epoch,train_loss,val_loss,train_acc_action,train_acc_status,val_acc_action,val_acc_status,learning_rate
1,1.740555226802826,1.5636239051818848,0.2692307692307692,0.8269230769230769,0.5714285714285714,0.8571428571428571,0.0004
2,1.5519423484802246,1.5222280025482178,0.4423076923076923,0.8269230769230769,0.35714285714285715,0.8571428571428571,0.0004
3,1.6013939380645752,1.5206586122512817,0.38461538461538464,0.8269230769230769,0.2857142857142857,0.8571428571428571,0.0004
4,1.503990113735199,1.4925106763839722,0.4423076923076923,0.8269230769230769,0.35714285714285715,0.8571428571428571,0.0004
5,1.5621702671051025,1.3840543031692505,0.4423076923076923,0.8269230769230769,0.5714285714285714,0.8571428571428571,0.0004
6,1.5806053280830383,1.5018255710601807,0.36538461538461536,0.8269230769230769,0.35714285714285715,0.8571428571428571,0.0004
7,1.470492959022522,1.4260059595108032,0.5384615384615384,0.8269230769230769,0.6428571428571429,0.8571428571428571,0.0004
8,1.5222387313842773,1.3695391416549683,0.38461538461538464,0.8269230769230769,0.5714285714285714,0.8571428571428571,0.0004
9,1.507867157459259,1.4692466259002686,0.4807692307692308,0.8269230769230769,0.42857142857142855,0.8571428571428571,0.0004
10,1.421481192111969,1.5160926580429077,0.5192307692307693,0.8269230769230769,0.42857142857142855,0.8571428571428571,0.0004
11,1.4394899010658264,1.4479005336761475,0.5576923076923077,0.8269230769230769,0.42857142857142855,0.8571428571428571,0.0004
12,1.4165738224983215,1.3542616367340088,0.5384615384615384,0.8269230769230769,0.5714285714285714,0.8571428571428571,0.0004
13,1.4919666051864624,1.3269044160842896,0.4230769230769231,0.8269230769230769,0.5714285714285714,0.8571428571428571,0.0004
14,1.4033308625221252,1.2989425659179688,0.4807692307692308,0.8269230769230769,0.7142857142857143,0.8571428571428571,0.0004
15,1.294490098953247,1.3164458274841309,0.5961538461538461,0.8269230769230769,0.6428571428571429,0.8571428571428571,0.0004
16,1.3472033739089966,1.466492772102356,0.6153846153846154,0.8269230769230769,0.42857142857142855,0.8571428571428571,0.0004
17,1.2628877758979797,1.2933425903320312,0.6153846153846154,0.8269230769230769,0.5,0.8571428571428571,0.0004
18,1.2857323288917542,1.2126400470733643,0.5769230769230769,0.8269230769230769,0.5714285714285714,0.8571428571428571,0.0004
19,1.265762209892273,1.1634680032730103,0.6346153846153846,0.8269230769230769,0.7857142857142857,0.8571428571428571,0.0004
20,1.3501878380775452,1.2313566207885742,0.5,0.8269230769230769,0.7142857142857143,0.8571428571428571,0.0004
21,1.3066975474357605,1.3061738014221191,0.5769230769230769,0.8269230769230769,0.5,0.8571428571428571,0.0004
22,1.2116989493370056,1.0067262649536133,0.6346153846153846,0.8269230769230769,0.7142857142857143,0.8571428571428571,0.0004
23,1.2312787175178528,1.2781922817230225,0.6153846153846154,0.8269230769230769,0.5,0.8571428571428571,0.0004
24,1.128686249256134,1.1211645603179932,0.6538461538461539,0.8269230769230769,0.6428571428571429,0.8571428571428571,0.0004
25,1.1445831060409546,0.9017916321754456,0.6730769230769231,0.8269230769230769,0.9285714285714286,0.8571428571428571,0.0004
26,1.0356712341308594,1.1755986213684082,0.75,0.8269230769230769,0.7142857142857143,0.8571428571428571,0.0004
27,1.1096145510673523,1.0264084339141846,0.6346153846153846,0.8269230769230769,0.7857142857142857,0.8571428571428571,0.0004
28,1.0776905417442322,1.1605100631713867,0.75,0.8269230769230769,0.7857142857142857,0.8571428571428571,0.0004
29,1.0597603917121887,1.3973087072372437,0.6346153846153846,0.8269230769230769,0.42857142857142855,0.8571428571428571,0.0004
30,1.0428522229194641,1.0344041585922241,0.6346153846153846,0.8653846153846154,0.7857142857142857,0.8571428571428571,0.0004
31,1.2307966947555542,1.4050498008728027,0.6730769230769231,0.9038461538461539,0.5,0.8571428571428571,0.0004
32,1.087354600429535,1.2815220355987549,0.6538461538461539,0.8461538461538461,0.7857142857142857,0.8571428571428571,0.0004
33,1.0129006803035736,1.3756513595581055,0.6730769230769231,0.9038461538461539,0.7142857142857143,0.8571428571428571,0.0004
34,1.1588817834854126,1.4166386127471924,0.5961538461538461,0.8653846153846154,0.5714285714285714,0.7857142857142857,0.0004
35,0.9432656466960907,1.2381596565246582,0.75,0.9230769230769231,0.6428571428571429,0.8571428571428571,0.0004
36,1.071259617805481,0.9156577587127686,0.6730769230769231,0.9038461538461539,0.7857142857142857,0.9285714285714286,0.0004
37,1.2951825857162476,1.5670130252838135,0.5384615384615384,0.8653846153846154,0.5714285714285714,0.7857142857142857,0.0004
38,1.0901052057743073,1.0956720113754272,0.6730769230769231,0.8846153846153846,0.6428571428571429,0.8571428571428571,0.0004
39,1.086961030960083,1.5337330102920532,0.6346153846153846,0.9423076923076923,0.42857142857142855,0.8571428571428571,0.0004
40,1.1214849352836609,1.5483404397964478,0.5384615384615384,0.9615384615384616,0.42857142857142855,0.8571428571428571,0.0004
41,1.0081087946891785,1.204662561416626,0.6923076923076923,0.8846153846153846,0.5714285714285714,0.8571428571428571,0.0004
42,1.0362851023674011,1.3428516387939453,0.6346153846153846,0.9230769230769231,0.5,0.8571428571428571,0.0004
43,1.0319369435310364,1.2489944696426392,0.6153846153846154,0.9038461538461539,0.7142857142857143,0.7857142857142857,0.0004
44,1.2216852903366089,0.993168830871582,0.5576923076923077,0.8846153846153846,0.7142857142857143,0.8571428571428571,0.0004
45,1.0586512088775635,0.9290731549263,0.5961538461538461,0.8269230769230769,0.6428571428571429,0.8571428571428571,0.0004
46,1.0366044342517853,0.9899557828903198,0.6153846153846154,0.9038461538461539,0.6428571428571429,0.9285714285714286,0.0004
47,1.1470629572868347,1.174317479133606,0.5961538461538461,0.9423076923076923,0.5714285714285714,0.8571428571428571,0.0004
48,1.0212889611721039,0.9470797777175903,0.6346153846153846,0.9230769230769231,0.6428571428571429,0.9285714285714286,0.0004
49,1.0003139078617096,1.6261957883834839,0.6153846153846154,0.9615384615384616,0.5714285714285714,0.7857142857142857,0.0004
50,0.90949946641922,1.6964781284332275,0.6153846153846154,0.9038461538461539,0.5714285714285714,0.7857142857142857,0.0004
51,0.9630099833011627,1.4638960361480713,0.6730769230769231,0.8653846153846154,0.6428571428571429,0.7142857142857143,0.0004
52,1.3173213005065918,0.9960615038871765,0.6153846153846154,0.9038461538461539,0.7142857142857143,0.9285714285714286,0.0004
53,0.9805804789066315,1.0639677047729492,0.6730769230769231,0.9423076923076923,0.6428571428571429,0.7857142857142857,0.0004
54,0.8022610545158386,0.7720478773117065,0.7692307692307693,0.9423076923076923,0.8571428571428571,0.9285714285714286,0.0004
55,0.8705623149871826,1.1435080766677856,0.75,0.9038461538461539,0.7142857142857143,0.8571428571428571,0.0004
56,0.9346005320549011,0.9056128263473511,0.6153846153846154,0.9038461538461539,0.9285714285714286,0.9285714285714286,0.0004
57,0.959312379360199,1.2401018142700195,0.6153846153846154,0.9230769230769231,0.7142857142857143,0.7857142857142857,0.0004
58,1.0095770955085754,1.3428139686584473,0.5769230769230769,0.9423076923076923,0.5714285714285714,0.8571428571428571,0.0004
59,0.9839460253715515,1.4527652263641357,0.6730769230769231,0.9230769230769231,0.5,0.8571428571428571,0.0004
60,0.8792490363121033,1.346323013305664,0.7115384615384616,0.9423076923076923,0.7142857142857143,0.8571428571428571,0.0004
61,1.1664701104164124,1.2771809101104736,0.6538461538461539,0.8846153846153846,0.6428571428571429,0.8571428571428571,0.0004
62,0.8283506333827972,1.1133787631988525,0.6730769230769231,0.9615384615384616,0.7142857142857143,0.8571428571428571,0.0004
63,0.968258410692215,0.9015917181968689,0.6153846153846154,0.9230769230769231,0.6428571428571429,0.9285714285714286,0.0004
64,0.823704183101654,1.290988564491272,0.6923076923076923,0.9230769230769231,0.7142857142857143,0.7857142857142857,0.0004
65,0.8011269271373749,1.14069402217865,0.6730769230769231,0.9807692307692307,0.6428571428571429,0.7857142857142857,0.0004
66,1.0079341530799866,1.0420476198196411,0.7115384615384616,0.9423076923076923,0.7857142857142857,0.9285714285714286,0.0004
67,1.001212626695633,1.610473871231079,0.6538461538461539,0.9230769230769231,0.5,0.7142857142857143,0.0004
68,1.076391875743866,1.1815948486328125,0.6153846153846154,0.9038461538461539,0.6428571428571429,0.9285714285714286,0.0004
69,0.9661895334720612,1.2675487995147705,0.6346153846153846,0.9423076923076923,0.5714285714285714,0.8571428571428571,0.0004
70,0.766295850276947,0.893417239189148,0.7692307692307693,0.9807692307692307,0.7857142857142857,0.9285714285714286,0.0004
71,0.6753565073013306,1.3179128170013428,0.7884615384615384,1.0,0.5714285714285714,0.7857142857142857,0.0004
72,0.7815722227096558,0.6776858568191528,0.7692307692307693,0.9615384615384616,0.8571428571428571,0.9285714285714286,0.0004
73,0.9437842965126038,0.6926514506340027,0.6538461538461539,0.9230769230769231,0.9285714285714286,0.9285714285714286,0.0004
74,0.8530577719211578,1.0328197479248047,0.7307692307692307,0.9230769230769231,0.7142857142857143,0.8571428571428571,0.0004
75,0.7606882452964783,1.0711735486984253,0.6923076923076923,0.9615384615384616,0.5,0.9285714285714286,0.0004
76,0.6754883825778961,1.2106295824050903,0.7884615384615384,1.0,0.6428571428571429,0.8571428571428571,0.0004
77,0.8040808439254761,0.9407699108123779,0.6730769230769231,1.0,0.7142857142857143,0.9285714285714286,0.0004
78,0.975385844707489,1.3413053750991821,0.6538461538461539,0.9423076923076923,0.6428571428571429,0.8571428571428571,0.0004
79,0.6731326580047607,1.308763027191162,0.7884615384615384,1.0,0.7142857142857143,0.8571428571428571,0.0004
80,0.6643476486206055,0.7252528071403503,0.7884615384615384,1.0,0.8571428571428571,0.9285714285714286,0.0004
81,0.6738386154174805,1.3622605800628662,0.8076923076923077,0.9807692307692307,0.6428571428571429,0.7857142857142857,0.0004
82,0.8789697289466858,1.384758472442627,0.6538461538461539,0.9615384615384616,0.7142857142857143,0.7857142857142857,0.0004
83,0.8655130863189697,0.6998424530029297,0.7307692307692307,0.9423076923076923,0.7857142857142857,0.9285714285714286,0.0004
84,0.9099715352058411,0.9429767727851868,0.6538461538461539,0.9615384615384616,0.7857142857142857,0.9285714285714286,0.0004
85,0.9005498886108398,1.0388354063034058,0.6730769230769231,0.9423076923076923,0.6428571428571429,0.8571428571428571,0.0004
86,0.8615894317626953,1.6208312511444092,0.7115384615384616,0.9615384615384616,0.5714285714285714,0.7142857142857143,0.0004
87,0.693578690290451,1.211601734161377,0.6923076923076923,1.0,0.5714285714285714,0.8571428571428571,0.0004
88,0.9964810013771057,1.3206979036331177,0.75,0.9038461538461539,0.5,0.9285714285714286,0.0004
89,0.7607234120368958,0.9452311396598816,0.7692307692307693,0.9615384615384616,0.6428571428571429,0.9285714285714286,0.0004
90,0.7738895416259766,1.4505411386489868,0.6538461538461539,0.9615384615384616,0.5714285714285714,0.7857142857142857,0.0004
91,0.8213496804237366,1.0549042224884033,0.7115384615384616,0.9423076923076923,0.7142857142857143,0.9285714285714286,0.0004
92,0.8120510578155518,0.9427549839019775,0.6538461538461539,0.9615384615384616,0.9285714285714286,0.9285714285714286,0.0004
93,0.7272001802921295,1.3515069484710693,0.6923076923076923,0.9807692307692307,0.5714285714285714,0.8571428571428571,0.0004
94,0.9057087302207947,1.0157158374786377,0.7115384615384616,0.8846153846153846,0.6428571428571429,0.8571428571428571,0.0004
95,0.8420850336551666,1.7461752891540527,0.6923076923076923,0.9423076923076923,0.5,0.7857142857142857,0.0004
96,0.950811117887497,1.296976923942566,0.6153846153846154,0.9038461538461539,0.6428571428571429,0.8571428571428571,0.0004
97,0.7368259429931641,1.3491884469985962,0.75,0.9230769230769231,0.7142857142857143,0.7857142857142857,0.0004
98,0.7978068590164185,1.1894789934158325,0.7692307692307693,0.9615384615384616,0.6428571428571429,0.9285714285714286,0.0004
99,0.6252312064170837,1.1154234409332275,0.7884615384615384,0.9615384615384616,0.7142857142857143,0.7857142857142857,0.0004
100,0.6206706166267395,1.395094394683838,0.8269230769230769,0.9423076923076923,0.5714285714285714,0.8571428571428571,0.0004
101,0.6618310213088989,1.2528276443481445,0.7692307692307693,0.9615384615384616,0.7142857142857143,0.8571428571428571,0.0004
102,0.8996767997741699,0.7458657026290894,0.6346153846153846,0.9615384615384616,0.8571428571428571,0.9285714285714286,0.0004
103,0.7077174484729767,1.3351609706878662,0.75,0.9807692307692307,0.7142857142857143,0.8571428571428571,0.0004
104,0.6031198352575302,1.0610820055007935,0.8653846153846154,0.9615384615384616,0.7142857142857143,0.9285714285714286,0.0004
105,0.8478507697582245,1.0524739027023315,0.7307692307692307,0.8846153846153846,0.5714285714285714,0.9285714285714286,0.0004
106,0.7523534297943115,1.37047278881073,0.7115384615384616,0.9615384615384616,0.35714285714285715,0.9285714285714286,0.0004
107,0.5149092972278595,1.4736847877502441,0.8269230769230769,0.9807692307692307,0.5,0.7857142857142857,0.0004
108,0.9050249457359314,1.1168999671936035,0.6923076923076923,0.9423076923076923,0.7142857142857143,0.9285714285714286,0.0004
109,0.6554955840110779,1.2819567918777466,0.75,0.9615384615384616,0.5,0.8571428571428571,0.0004
110,0.8089703619480133,0.9644430875778198,0.7115384615384616,0.9615384615384616,0.7857142857142857,0.9285714285714286,0.0004
111,0.6390677094459534,0.7262243628501892,0.8076923076923077,0.9615384615384616,0.9285714285714286,0.9285714285714286,0.0004
112,0.5277981162071228,0.9320068359375,0.8269230769230769,0.9615384615384616,0.7142857142857143,0.9285714285714286,0.0004
113,0.8253778219223022,0.9186036586761475,0.6923076923076923,0.9423076923076923,0.7857142857142857,0.8571428571428571,0.0004
114,0.704026609659195,1.2500877380371094,0.7115384615384616,0.9807692307692307,0.7142857142857143,0.7857142857142857,0.0004
115,0.6571762561798096,1.1593880653381348,0.75,0.9807692307692307,0.7142857142857143,0.7857142857142857,0.0004
116,0.7199382483959198,1.335815191268921,0.75,0.9807692307692307,0.6428571428571429,0.7857142857142857,0.0004
117,0.5869758725166321,1.2370752096176147,0.7692307692307693,1.0,0.7142857142857143,0.7857142857142857,0.0004
118,0.8289470076560974,1.614081621170044,0.6538461538461539,0.9807692307692307,0.5714285714285714,0.7857142857142857,0.0004
119,0.5805003792047501,1.5220894813537598,0.8269230769230769,0.9423076923076923,0.6428571428571429,0.8571428571428571,0.0004
120,0.5382989645004272,1.3662464618682861,0.8269230769230769,0.9807692307692307,0.6428571428571429,0.7857142857142857,0.0004
121,0.6167327612638474,1.299630045890808,0.7692307692307693,0.9615384615384616,0.7142857142857143,0.9285714285714286,0.0004
122,0.9372645020484924,1.0166900157928467,0.6923076923076923,0.9615384615384616,0.6428571428571429,0.8571428571428571,0.0004
123,0.7613615393638611,1.2347720861434937,0.7307692307692307,0.9807692307692307,0.7142857142857143,0.8571428571428571,0.0004
124,0.7732187211513519,1.1062278747558594,0.7307692307692307,0.9423076923076923,0.5714285714285714,0.8571428571428571,0.0004
125,0.5435329079627991,1.0796513557434082,0.8269230769230769,0.9807692307692307,0.7142857142857143,0.8571428571428571,0.0004
126,0.4617614895105362,1.1619007587432861,0.8653846153846154,1.0,0.7857142857142857,0.8571428571428571,0.0004
127,0.5457454174757004,0.8918346762657166,0.8076923076923077,0.9807692307692307,0.7857142857142857,0.9285714285714286,0.0004
128,0.6976283490657806,1.293687343597412,0.75,0.9807692307692307,0.7857142857142857,0.8571428571428571,0.0004
129,0.7533890306949615,1.6763297319412231,0.7115384615384616,0.9615384615384616,0.5714285714285714,0.8571428571428571,0.0004
130,0.5883121192455292,1.8532540798187256,0.7692307692307693,0.9807692307692307,0.6428571428571429,0.7857142857142857,0.0004
131,0.6610783934593201,2.1806347370147705,0.8461538461538461,0.9615384615384616,0.6428571428571429,0.7142857142857143,0.0004
132,0.5755714774131775,1.289496660232544,0.7884615384615384,0.9615384615384616,0.7142857142857143,0.7857142857142857,0.0004
133,0.69283726811409,1.4592664241790771,0.75,0.9615384615384616,0.6428571428571429,0.8571428571428571,0.0004
134,0.7380585670471191,1.5303577184677124,0.7884615384615384,0.9807692307692307,0.5714285714285714,0.8571428571428571,0.0004
135,0.8641453683376312,1.6156704425811768,0.8076923076923077,0.9230769230769231,0.7142857142857143,0.7857142857142857,0.0004
136,0.5965353697538376,1.5640559196472168,0.8653846153846154,0.9615384615384616,0.7142857142857143,0.8571428571428571,0.0004
137,0.43044520914554596,1.3737943172454834,0.8076923076923077,1.0,0.7857142857142857,0.8571428571428571,0.0004
138,0.6775709390640259,1.6445473432540894,0.7884615384615384,0.9807692307692307,0.6428571428571429,0.7857142857142857,0.0004
139,0.664817750453949,1.6502668857574463,0.8076923076923077,0.9615384615384616,0.7142857142857143,0.8571428571428571,0.0004
140,0.8105005323886871,1.1848912239074707,0.7307692307692307,0.9807692307692307,0.7142857142857143,0.8571428571428571,0.0004
141,0.7927315831184387,1.0368289947509766,0.7307692307692307,0.9615384615384616,0.6428571428571429,0.9285714285714286,0.0004
142,0.7453588843345642,0.7314666509628296,0.7307692307692307,0.9807692307692307,0.7142857142857143,0.8571428571428571,0.0004
143,0.8829098343849182,1.50152587890625,0.75,0.9423076923076923,0.5,0.8571428571428571,0.0004
144,0.522381067276001,0.9635096788406372,0.8846153846153846,0.9807692307692307,0.8571428571428571,0.9285714285714286,0.0004
145,0.6196599900722504,1.4485819339752197,0.7884615384615384,0.9807692307692307,0.5714285714285714,0.7857142857142857,0.0004
146,0.6719070672988892,1.2334953546524048,0.7692307692307693,0.9615384615384616,0.6428571428571429,0.8571428571428571,0.0004
147,0.7499406337738037,1.4958221912384033,0.6923076923076923,0.9615384615384616,0.7142857142857143,0.8571428571428571,0.0004
148,0.5400908440351486,1.417604923248291,0.8461538461538461,1.0,0.6428571428571429,0.7857142857142857,0.0004
149,0.7080763280391693,1.0775233507156372,0.75,0.9807692307692307,0.5,0.9285714285714286,0.0004
150,0.6989989280700684,1.285410761833191,0.7884615384615384,0.9807692307692307,0.6428571428571429,0.8571428571428571,0.0004
151,0.7642630040645599,1.4509656429290771,0.75,0.9423076923076923,0.6428571428571429,0.7857142857142857,0.0004
152,0.6104498207569122,1.1332051753997803,0.8269230769230769,0.9615384615384616,0.7857142857142857,0.9285714285714286,0.0004
153,0.9592548906803131,1.7036784887313843,0.6923076923076923,0.9230769230769231,0.5714285714285714,0.8571428571428571,0.0004
154,0.5964008867740631,1.0358566045761108,0.75,0.9615384615384616,0.8571428571428571,0.9285714285714286,0.0004
155,0.7664286494255066,2.031907558441162,0.7307692307692307,0.9423076923076923,0.7142857142857143,0.7857142857142857,0.0004
156,0.6788654327392578,1.941887617111206,0.6923076923076923,0.9807692307692307,0.6428571428571429,0.8571428571428571,0.0004
157,0.7175499200820923,1.35896897315979,0.7307692307692307,0.9615384615384616,0.7857142857142857,0.9285714285714286,0.0004
158,0.7723188698291779,2.125033140182495,0.75,0.9230769230769231,0.7142857142857143,0.7857142857142857,0.0004
159,0.6142456829547882,1.9970316886901855,0.8269230769230769,1.0,0.6428571428571429,0.7142857142857143,0.0004
160,0.4696817994117737,0.9012552499771118,0.8461538461538461,1.0,0.8571428571428571,0.9285714285714286,0.0004
161,0.5428397953510284,1.2891144752502441,0.8461538461538461,0.9807692307692307,0.7142857142857143,0.8571428571428571,0.0004
162,0.5011128187179565,1.7028828859329224,0.7884615384615384,0.9807692307692307,0.8571428571428571,0.7857142857142857,0.0004
163,0.3678814768791199,1.173405647277832,0.8653846153846154,0.9807692307692307,0.7142857142857143,0.8571428571428571,0.0004
164,0.8586603105068207,0.9027134776115417,0.7115384615384616,0.9230769230769231,0.8571428571428571,0.9285714285714286,0.0004
165,0.706674262881279,1.7233573198318481,0.7692307692307693,0.9807692307692307,0.7857142857142857,0.7857142857142857,0.0004
166,0.6397663354873657,1.4046201705932617,0.7692307692307693,0.9423076923076923,0.7142857142857143,0.8571428571428571,0.0004
167,0.5373503267765045,0.8604532480239868,0.8076923076923077,0.9807692307692307,0.7857142857142857,0.9285714285714286,0.0004
168,0.43036089837551117,1.4250361919403076,0.8461538461538461,1.0,0.8571428571428571,0.8571428571428571,0.0004
169,0.7272525429725647,1.3206150531768799,0.7884615384615384,0.9615384615384616,0.7857142857142857,0.8571428571428571,0.0004
170,0.3471977263689041,0.8380670547485352,0.9230769230769231,1.0,0.9285714285714286,0.9285714285714286,0.0004
171,0.5384051650762558,0.7812036275863647,0.8461538461538461,0.9807692307692307,0.8571428571428571,0.9285714285714286,0.0004
172,0.7907690703868866,1.925419807434082,0.8076923076923077,0.9423076923076923,0.6428571428571429,0.7857142857142857,0.0004
173,0.7472419440746307,1.4534401893615723,0.7307692307692307,0.9615384615384616,0.7142857142857143,0.8571428571428571,0.0004
174,0.5491462349891663,1.7910221815109253,0.8269230769230769,0.9615384615384616,0.6428571428571429,0.7857142857142857,0.0004
175,0.5971499383449554,1.8740156888961792,0.8269230769230769,0.9807692307692307,0.6428571428571429,0.7857142857142857,0.0004
176,0.8125092387199402,1.5132546424865723,0.7692307692307693,0.9423076923076923,0.7142857142857143,0.8571428571428571,0.0004
177,0.7421585619449615,1.6377084255218506,0.7884615384615384,0.9807692307692307,0.7857142857142857,0.8571428571428571,0.0004
178,0.48704326152801514,1.2851353883743286,0.8846153846153846,0.9807692307692307,0.7857142857142857,0.8571428571428571,0.0004
179,0.5439709424972534,1.4745945930480957,0.8076923076923077,0.9807692307692307,0.6428571428571429,0.9285714285714286,0.0004
180,0.5426345020532608,1.101891040802002,0.8076923076923077,0.9807692307692307,0.7142857142857143,0.9285714285714286,0.0004
181,0.8927635848522186,1.58945894241333,0.75,0.9423076923076923,0.6428571428571429,0.7857142857142857,0.0004
182,0.5420898944139481,1.1210193634033203,0.8653846153846154,0.9615384615384616,0.7142857142857143,0.9285714285714286,0.0004
183,0.35365110635757446,0.9759162664413452,0.8846153846153846,0.9807692307692307,0.7857142857142857,0.9285714285714286,0.0004
184,0.6259539425373077,0.9082245826721191,0.8076923076923077,0.9615384615384616,0.7857142857142857,0.9285714285714286,0.0004
185,0.5534672290086746,1.4626970291137695,0.7884615384615384,0.9807692307692307,0.5714285714285714,0.8571428571428571,0.0004
186,0.5924097001552582,1.7620857954025269,0.8076923076923077,0.9615384615384616,0.5714285714285714,0.8571428571428571,0.0004
187,0.5022482126951218,1.165191650390625,0.8269230769230769,0.9807692307692307,0.7857142857142857,0.7857142857142857,0.0004
188,0.7216140329837799,1.1695910692214966,0.7115384615384616,0.9230769230769231,0.7142857142857143,0.8571428571428571,0.0004
189,0.5255284607410431,1.64933443069458,0.8461538461538461,0.9807692307692307,0.7142857142857143,0.7857142857142857,0.0004
190,0.5979568362236023,1.2147130966186523,0.8076923076923077,0.9807692307692307,0.8571428571428571,0.9285714285714286,0.0004
191,0.8690604567527771,1.2046387195587158,0.6923076923076923,0.9615384615384616,0.7142857142857143,0.9285714285714286,0.0004
192,0.37920384109020233,1.6952075958251953,0.8653846153846154,0.9807692307692307,0.5714285714285714,0.8571428571428571,0.0004
193,0.554671049118042,1.0134143829345703,0.7884615384615384,0.9423076923076923,0.7857142857142857,0.9285714285714286,0.0004
194,0.7922768294811249,1.0647082328796387,0.7307692307692307,0.9807692307692307,0.9285714285714286,0.8571428571428571,0.0004
195,0.5231460928916931,1.116037368774414,0.8076923076923077,1.0,0.7857142857142857,0.8571428571428571,0.0004
196,0.6204004734754562,1.4023864269256592,0.7884615384615384,0.9807692307692307,0.7142857142857143,0.8571428571428571,0.0004
197,0.6848273873329163,2.038456678390503,0.7692307692307693,0.9615384615384616,0.6428571428571429,0.7142857142857143,0.0004
198,0.6112691015005112,1.0116424560546875,0.8653846153846154,0.9615384615384616,0.7142857142857143,0.9285714285714286,0.0004
199,0.31457754969596863,1.2508021593093872,0.9230769230769231,1.0,0.5714285714285714,0.9285714285714286,0.0004
200,0.5783356726169586,0.8870104551315308,0.8076923076923077,0.9615384615384616,0.7857142857142857,0.9285714285714286,0.0004
201,0.6827273964881897,1.4144657850265503,0.7884615384615384,0.9423076923076923,0.7857142857142857,0.8571428571428571,0.0004
202,0.6879084408283234,1.6620433330535889,0.7692307692307693,1.0,0.7857142857142857,0.7857142857142857,0.0004
203,0.5392230153083801,0.6963780522346497,0.8461538461538461,0.9615384615384616,0.9285714285714286,0.9285714285714286,0.0004
204,0.7362338602542877,2.136235475540161,0.75,0.9038461538461539,0.6428571428571429,0.7142857142857143,0.0004
205,0.4097621738910675,1.2832601070404053,0.8846153846153846,0.9807692307692307,0.8571428571428571,0.8571428571428571,0.0004
206,0.7577189952135086,1.6311628818511963,0.8269230769230769,0.9615384615384616,0.7142857142857143,0.8571428571428571,0.0004
207,0.5023576021194458,1.4952654838562012,0.7884615384615384,0.9807692307692307,0.7857142857142857,0.8571428571428571,0.0004
208,0.4270535558462143,1.2362803220748901,0.8653846153846154,1.0,0.7857142857142857,0.9285714285714286,0.0004
209,0.7999535202980042,1.3646135330200195,0.6730769230769231,0.9423076923076923,0.7857142857142857,0.8571428571428571,0.0004
210,0.5124919712543488,1.7646198272705078,0.8076923076923077,1.0,0.6428571428571429,0.7857142857142857,0.0004
211,0.5330313593149185,1.3233132362365723,0.8076923076923077,0.9615384615384616,0.7857142857142857,0.8571428571428571,0.0004
212,0.5153973400592804,1.2756016254425049,0.8846153846153846,1.0,0.7142857142857143,0.8571428571428571,0.0004
213,0.5558355152606964,1.280308485031128,0.7884615384615384,0.9615384615384616,0.7142857142857143,0.7857142857142857,0.0004
214,0.6470888257026672,1.365487813949585,0.7692307692307693,0.9423076923076923,0.7857142857142857,0.8571428571428571,0.0004
215,0.6573080122470856,1.1748287677764893,0.8269230769230769,0.8846153846153846,0.7857142857142857,0.8571428571428571,0.0004
216,0.7331660687923431,1.1848794221878052,0.75,0.9615384615384616,0.9285714285714286,0.8571428571428571,0.0004
217,0.7225882709026337,1.8880906105041504,0.7692307692307693,0.9807692307692307,0.6428571428571429,0.7857142857142857,0.0004
218,0.6522324085235596,1.463874101638794,0.75,0.9230769230769231,0.7142857142857143,0.7857142857142857,0.0004
219,0.5081543475389481,1.320277452468872,0.8653846153846154,0.9807692307692307,0.7857142857142857,0.8571428571428571,0.0004
220,0.5955362021923065,1.3793607950210571,0.8461538461538461,0.9615384615384616,0.6428571428571429,0.8571428571428571,0.0004
221,0.6365060955286026,1.2854924201965332,0.8076923076923077,0.9615384615384616,0.7142857142857143,0.8571428571428571,0.0004
222,0.5073813199996948,1.3324239253997803,0.7884615384615384,0.9807692307692307,0.6428571428571429,0.8571428571428571,0.0004
223,0.4826033413410187,1.2129271030426025,0.8269230769230769,1.0,0.7142857142857143,0.9285714285714286,0.0004
224,0.5712123364210129,1.5484840869903564,0.7884615384615384,0.9807692307692307,0.7857142857142857,0.8571428571428571,0.0004
225,0.7921817600727081,1.75079345703125,0.7307692307692307,0.9423076923076923,0.6428571428571429,0.7857142857142857,0.0004
226,0.5093616247177124,1.457237720489502,0.8461538461538461,0.9615384615384616,0.7142857142857143,0.8571428571428571,0.0004
227,0.5023032277822495,1.0441313982009888,0.7884615384615384,1.0,0.7857142857142857,0.9285714285714286,0.0004
228,0.6096979081630707,0.8378078937530518,0.7692307692307693,0.9807692307692307,0.8571428571428571,0.8571428571428571,0.0004
229,0.4237699955701828,1.5612139701843262,0.8846153846153846,0.9807692307692307,0.7142857142857143,0.7857142857142857,0.0004
230,0.5369997024536133,1.5166622400283813,0.7692307692307693,0.9615384615384616,0.7142857142857143,0.8571428571428571,0.0004
231,0.49368055164813995,1.113235592842102,0.7884615384615384,0.9807692307692307,0.7857142857142857,0.8571428571428571,0.0004
232,0.5472456216812134,1.644582986831665,0.7692307692307693,0.9615384615384616,0.7857142857142857,0.8571428571428571,0.0004
233,0.47691671550273895,2.005976676940918,0.8846153846153846,0.9807692307692307,0.5714285714285714,0.7857142857142857,0.0004
234,0.48360344767570496,1.884397029876709,0.8461538461538461,0.9615384615384616,0.6428571428571429,0.7857142857142857,0.0004
235,0.34005604684352875,1.2934021949768066,0.8461538461538461,1.0,0.7857142857142857,0.8571428571428571,0.0004
236,0.3004281148314476,1.6348696947097778,0.9230769230769231,1.0,0.7142857142857143,0.7857142857142857,0.0004
237,0.3815917819738388,1.2081637382507324,0.8846153846153846,0.9615384615384616,0.8571428571428571,0.8571428571428571,0.0004
238,0.5797976553440094,1.9247510433197021,0.8653846153846154,0.9615384615384616,0.7142857142857143,0.7857142857142857,0.0004
239,0.3143196254968643,0.9352707266807556,0.8461538461538461,1.0,0.8571428571428571,0.9285714285714286,0.0004
240,0.3954038619995117,0.9468256235122681,0.8653846153846154,0.9807692307692307,0.8571428571428571,0.9285714285714286,0.0004
241,0.4620763212442398,1.0423660278320312,0.8269230769230769,0.9807692307692307,0.7142857142857143,0.8571428571428571,0.0004
242,0.7056116759777069,1.6342239379882812,0.7692307692307693,0.9615384615384616,0.6428571428571429,0.8571428571428571,0.0004
243,0.2981816530227661,1.1977291107177734,0.9230769230769231,1.0,0.7857142857142857,0.9285714285714286,0.0004
244,0.5853779166936874,0.9781929850578308,0.8076923076923077,0.9615384615384616,0.9285714285714286,0.9285714285714286,0.0004
245,0.4143335819244385,1.0028215646743774,0.8653846153846154,1.0,0.8571428571428571,0.9285714285714286,0.0004
246,0.5869521796703339,1.2146809101104736,0.8461538461538461,0.9423076923076923,0.7857142857142857,0.9285714285714286,0.0004
247,0.5093197226524353,1.0067856311798096,0.8269230769230769,0.9807692307692307,0.7142857142857143,0.8571428571428571,0.0004
248,0.3497297614812851,0.9924148917198181,0.8461538461538461,1.0,0.8571428571428571,0.9285714285714286,0.0004
249,0.7711129188537598,0.9629493951797485,0.8269230769230769,0.9230769230769231,0.7142857142857143,0.9285714285714286,0.0004
250,0.44312357529997826,1.2906975746154785,0.8653846153846154,0.9615384615384616,0.7857142857142857,0.7857142857142857,0.0004
251,0.7356540858745575,1.309834599494934,0.8076923076923077,0.9230769230769231,0.7857142857142857,0.8571428571428571,0.0004
252,0.4893959015607834,1.0064747333526611,0.8653846153846154,0.9615384615384616,0.8571428571428571,0.8571428571428571,0.0004
253,0.6106594055891037,1.4869859218597412,0.8269230769230769,0.9807692307692307,0.7142857142857143,0.9285714285714286,0.0004
254,0.6705194413661957,1.1981396675109863,0.7115384615384616,0.9615384615384616,0.7142857142857143,0.8571428571428571,0.0004
255,0.7128659784793854,1.6349173784255981,0.7307692307692307,0.9615384615384616,0.7142857142857143,0.9285714285714286,0.0004
256,0.46114136278629303,0.9387639760971069,0.8461538461538461,0.9615384615384616,0.7857142857142857,0.9285714285714286,0.0004
257,0.6256875693798065,0.8651953935623169,0.8269230769230769,0.9615384615384616,0.8571428571428571,0.9285714285714286,0.0004
258,0.627914160490036,1.2787699699401855,0.8076923076923077,0.9807692307692307,0.8571428571428571,0.9285714285714286,0.0004
259,0.41779570281505585,0.7237433195114136,0.8653846153846154,1.0,0.9285714285714286,0.9285714285714286,0.0004
260,0.44484901428222656,0.9356399774551392,0.8653846153846154,0.9423076923076923,0.7857142857142857,0.9285714285714286,0.0004
261,0.709984302520752,0.7520274519920349,0.7692307692307693,0.9807692307692307,1.0,0.9285714285714286,0.0004
262,0.6251478046178818,1.3202850818634033,0.7692307692307693,0.9615384615384616,0.8571428571428571,0.8571428571428571,0.0004
263,0.47962231934070587,1.3527865409851074,0.8653846153846154,0.9807692307692307,0.7142857142857143,0.8571428571428571,0.0004
264,0.5465812534093857,0.9833289384841919,0.7884615384615384,0.9807692307692307,0.7857142857142857,0.9285714285714286,0.0004
265,0.46435754001140594,0.9959747791290283,0.8846153846153846,0.9807692307692307,0.7857142857142857,0.8571428571428571,0.0004
266,0.5266864150762558,1.7474603652954102,0.8461538461538461,0.9807692307692307,0.7857142857142857,0.8571428571428571,0.0004
267,0.6185769736766815,1.3116093873977661,0.8076923076923077,0.9615384615384616,0.7142857142857143,0.8571428571428571,0.0004
268,0.610152393579483,1.347951054573059,0.7692307692307693,0.9807692307692307,0.7142857142857143,0.9285714285714286,0.0004
269,0.5462453663349152,1.3917510509490967,0.7692307692307693,0.9615384615384616,0.7142857142857143,0.8571428571428571,0.0004
270,0.494329035282135,1.4142999649047852,0.8461538461538461,0.9615384615384616,0.6428571428571429,0.8571428571428571,0.0004
271,0.45556363463401794,1.337550401687622,0.8653846153846154,1.0,0.7142857142857143,0.9285714285714286,0.0004
272,0.3946537598967552,1.0618956089019775,0.8653846153846154,0.9807692307692307,0.7857142857142857,0.9285714285714286,0.0004
273,0.43839341402053833,1.6935334205627441,0.8846153846153846,0.9615384615384616,0.6428571428571429,0.7857142857142857,0.0004
274,0.71198670566082,1.640572428703308,0.7692307692307693,0.9038461538461539,0.7857142857142857,0.7857142857142857,0.0004
275,0.39345015585422516,1.0262300968170166,0.9038461538461539,0.9615384615384616,0.7857142857142857,0.9285714285714286,0.0004
276,0.406318798661232,1.1990106105804443,0.8846153846153846,0.9807692307692307,0.8571428571428571,0.8571428571428571,0.0004
277,0.4984251707792282,1.2873048782348633,0.7884615384615384,1.0,0.8571428571428571,0.8571428571428571,0.0004
278,0.533423900604248,1.227702021598816,0.8076923076923077,0.9807692307692307,0.9285714285714286,0.8571428571428571,0.0004
279,0.3257804363965988,0.9271628260612488,0.8653846153846154,1.0,0.8571428571428571,0.9285714285714286,0.0004
280,0.42942361533641815,1.382352352142334,0.8653846153846154,1.0,0.6428571428571429,0.7857142857142857,0.0004
281,0.7666208148002625,1.0236098766326904,0.7884615384615384,0.9038461538461539,0.7142857142857143,0.8571428571428571,0.0004
282,0.5634893923997879,1.2925224304199219,0.7884615384615384,1.0,0.7857142857142857,0.9285714285714286,0.0004
283,0.6296968758106232,1.5281058549880981,0.8461538461538461,0.9615384615384616,0.7142857142857143,0.8571428571428571,0.0004
284,0.4872101843357086,1.6141396760940552,0.8269230769230769,0.9423076923076923,0.7857142857142857,0.8571428571428571,0.0004
285,0.42446769028902054,0.9251582026481628,0.8269230769230769,1.0,0.8571428571428571,0.9285714285714286,0.0004
286,0.38022033870220184,1.4099479913711548,0.8653846153846154,1.0,0.7142857142857143,0.8571428571428571,0.0004
287,0.5643367618322372,1.1050440073013306,0.8269230769230769,0.9615384615384616,0.7857142857142857,0.8571428571428571,0.0004
288,0.5778408944606781,1.0660120248794556,0.8269230769230769,1.0,0.7857142857142857,0.9285714285714286,0.0004
289,0.5234507322311401,1.341718077659607,0.7884615384615384,0.9615384615384616,0.8571428571428571,0.8571428571428571,0.0004
290,0.722000777721405,1.7454614639282227,0.7692307692307693,0.9423076923076923,0.6428571428571429,0.7857142857142857,0.0004
291,0.5422542989253998,1.4888279438018799,0.8461538461538461,0.9615384615384616,0.6428571428571429,0.8571428571428571,0.0004
292,0.5885746628046036,1.6789087057113647,0.8461538461538461,0.9423076923076923,0.7142857142857143,0.8571428571428571,0.0004
293,0.5626038312911987,2.611846446990967,0.7884615384615384,0.9807692307692307,0.5714285714285714,0.7142857142857143,0.0004
294,0.48316195607185364,0.7044154405593872,0.9038461538461539,0.9615384615384616,0.8571428571428571,0.8571428571428571,0.0004
295,0.6122694909572601,0.965461790561676,0.8269230769230769,0.9423076923076923,0.8571428571428571,0.9285714285714286,0.0004
296,0.6098950505256653,1.0124043226242065,0.7884615384615384,0.9807692307692307,0.7142857142857143,0.9285714285714286,0.0004
297,0.5989046990871429,1.369530200958252,0.8269230769230769,0.9807692307692307,0.7142857142857143,0.8571428571428571,0.0004
298,0.3925360217690468,2.4183297157287598,0.8269230769230769,0.9807692307692307,0.42857142857142855,0.7142857142857143,0.0004
299,0.45216307044029236,1.5663100481033325,0.8846153846153846,0.9615384615384616,0.6428571428571429,0.7857142857142857,0.0004
300,0.5823474526405334,1.461661458015442,0.8461538461538461,0.9615384615384616,0.7142857142857143,0.8571428571428571,0.0004
301,0.5770508050918579,0.9907946586608887,0.8076923076923077,1.0,0.8571428571428571,0.9285714285714286,0.0004
302,0.6532370150089264,0.7933639287948608,0.7115384615384616,0.9615384615384616,0.8571428571428571,0.9285714285714286,0.0004
303,0.517329066991806,0.6600584983825684,0.8269230769230769,0.9807692307692307,1.0,0.9285714285714286,0.0004
304,0.688754066824913,0.6366367340087891,0.8076923076923077,0.9615384615384616,1.0,0.9285714285714286,0.0004
305,0.6776570081710815,0.7057582139968872,0.7692307692307693,0.9423076923076923,1.0,0.9285714285714286,0.0004
306,0.6187354177236557,0.9807938933372498,0.8076923076923077,0.9615384615384616,0.8571428571428571,0.9285714285714286,0.0004
307,0.7080307602882385,0.8998270630836487,0.7115384615384616,0.9615384615384616,0.9285714285714286,0.9285714285714286,0.0004
308,0.506429985165596,1.1716450452804565,0.8269230769230769,0.9807692307692307,0.8571428571428571,0.8571428571428571,0.0004
309,0.48902593553066254,1.7398533821105957,0.8076923076923077,0.9807692307692307,0.6428571428571429,0.8571428571428571,0.0004
310,0.5244209915399551,1.9679031372070312,0.8269230769230769,0.9807692307692307,0.5,0.8571428571428571,0.0004
311,0.6163620501756668,1.124653935432434,0.7307692307692307,0.9615384615384616,0.7142857142857143,0.9285714285714286,0.0004
312,0.9460950791835785,1.2081737518310547,0.6923076923076923,0.9230769230769231,0.6428571428571429,0.9285714285714286,0.0004
313,0.705840677022934,1.5868051052093506,0.75,0.9615384615384616,0.6428571428571429,0.8571428571428571,0.0004
314,0.48630180954933167,1.7011244297027588,0.8269230769230769,0.9423076923076923,0.7142857142857143,0.8571428571428571,0.0004
315,0.3572593629360199,1.5295356512069702,0.8653846153846154,0.9615384615384616,0.7142857142857143,0.8571428571428571,0.0004
316,0.5641845911741257,1.0449714660644531,0.8269230769230769,1.0,0.7857142857142857,0.9285714285714286,0.0004
317,0.6862315535545349,0.982646107673645,0.8461538461538461,0.9230769230769231,0.9285714285714286,0.9285714285714286,0.0004
318,0.6621930003166199,1.671626091003418,0.8269230769230769,0.9230769230769231,0.7142857142857143,0.7142857142857143,0.0004
319,0.5535551905632019,1.6493182182312012,0.8269230769230769,0.9807692307692307,0.6428571428571429,0.8571428571428571,0.0004
320,0.5482285469770432,1.0400251150131226,0.8653846153846154,0.9807692307692307,0.9285714285714286,0.8571428571428571,0.0004
321,0.627693697810173,0.8905499577522278,0.7884615384615384,0.9423076923076923,0.8571428571428571,0.9285714285714286,0.0004
322,0.6337892264127731,1.328295111656189,0.8076923076923077,0.9423076923076923,0.7857142857142857,0.7857142857142857,0.0004
323,0.4614842087030411,2.079505205154419,0.9038461538461539,0.9807692307692307,0.5714285714285714,0.8571428571428571,0.0004
324,0.43504251539707184,0.9950481653213501,0.8461538461538461,1.0,0.8571428571428571,0.9285714285714286,0.0004
325,0.6297539472579956,1.2760429382324219,0.8076923076923077,0.9807692307692307,0.9285714285714286,0.8571428571428571,0.0004
326,0.5110201239585876,0.89656662940979,0.8653846153846154,0.9615384615384616,0.9285714285714286,0.9285714285714286,0.0004
327,0.5383830219507217,1.0667588710784912,0.8461538461538461,0.9807692307692307,0.7857142857142857,0.9285714285714286,0.0004
328,0.5115213096141815,1.4999701976776123,0.8461538461538461,0.9807692307692307,0.7142857142857143,0.7857142857142857,0.0004
329,0.5210712105035782,1.015723705291748,0.8269230769230769,0.9807692307692307,0.7857142857142857,0.7857142857142857,0.0004
330,0.5110876113176346,1.0714836120605469,0.8461538461538461,0.9615384615384616,0.7857142857142857,0.9285714285714286,0.0004
331,0.5714984387159348,1.1420130729675293,0.8076923076923077,0.9423076923076923,0.7857142857142857,0.7857142857142857,0.0004
332,0.6853430867195129,1.1360859870910645,0.7692307692307693,0.9807692307692307,0.8571428571428571,0.7857142857142857,0.0004
333,0.5243601202964783,0.8820345401763916,0.8653846153846154,1.0,0.9285714285714286,0.8571428571428571,0.0004
334,0.48267804086208344,1.413042664527893,0.8653846153846154,0.9615384615384616,0.7142857142857143,0.8571428571428571,0.0004
335,0.641350507736206,1.105919361114502,0.8461538461538461,0.9615384615384616,0.7857142857142857,0.9285714285714286,0.0004
336,0.5394689738750458,1.3749451637268066,0.7884615384615384,0.9615384615384616,0.7142857142857143,0.8571428571428571,0.0004
337,0.5385274142026901,1.1483852863311768,0.8461538461538461,0.9807692307692307,0.8571428571428571,0.9285714285714286,0.0004
338,0.5369572192430496,1.37865149974823,0.8076923076923077,1.0,0.8571428571428571,0.8571428571428571,0.0004
339,0.4997812956571579,1.0561617612838745,0.8461538461538461,0.9807692307692307,0.8571428571428571,0.8571428571428571,0.0004
340,0.6196580231189728,1.1811747550964355,0.7884615384615384,0.9615384615384616,0.7857142857142857,0.8571428571428571,0.0004
341,0.524474561214447,1.3956800699234009,0.8461538461538461,0.9807692307692307,0.7857142857142857,0.8571428571428571,0.0004
342,0.43553778529167175,0.9197940826416016,0.8461538461538461,0.9615384615384616,0.9285714285714286,0.9285714285714286,0.0004
343,0.5674155056476593,1.1873548030853271,0.7884615384615384,0.9807692307692307,0.7857142857142857,0.9285714285714286,0.0004
344,0.4893054664134979,1.0435829162597656,0.9038461538461539,0.9615384615384616,0.7857142857142857,0.8571428571428571,0.0004
345,0.7910915911197662,0.9349604845046997,0.7115384615384616,0.9423076923076923,0.8571428571428571,0.9285714285714286,0.0004
346,0.476435124874115,1.3623870611190796,0.8653846153846154,0.9615384615384616,0.7142857142857143,0.8571428571428571,0.0004
347,0.687261700630188,1.2169474363327026,0.7884615384615384,0.9423076923076923,0.7857142857142857,0.9285714285714286,0.0004
348,0.6295900046825409,1.3629448413848877,0.8461538461538461,0.9807692307692307,0.6428571428571429,0.8571428571428571,0.0004
349,0.7880701422691345,1.6533839702606201,0.7307692307692307,0.9230769230769231,0.7857142857142857,0.8571428571428571,0.0004
350,0.48796820640563965,0.819908618927002,0.8269230769230769,0.9807692307692307,0.9285714285714286,0.9285714285714286,0.0004
351,0.4696680009365082,1.6953785419464111,0.8461538461538461,0.9807692307692307,0.5714285714285714,0.7142857142857143,0.0004
352,0.38423699140548706,1.4504575729370117,0.8846153846153846,0.9807692307692307,0.7142857142857143,0.7857142857142857,0.0004
353,0.398492693901062,1.3762474060058594,0.9038461538461539,0.9423076923076923,0.7142857142857143,0.7857142857142857,0.0004
354,0.563804030418396,1.8100183010101318,0.7884615384615384,0.9807692307692307,0.5714285714285714,0.7857142857142857,0.0004
355,0.6159780919551849,1.4952988624572754,0.7692307692307693,0.9615384615384616,0.7857142857142857,0.8571428571428571,0.0004
356,0.4132901281118393,1.263037919998169,0.8653846153846154,0.9807692307692307,0.7142857142857143,0.8571428571428571,0.0004
357,0.5716967284679413,1.7485162019729614,0.8269230769230769,0.9807692307692307,0.5,0.7142857142857143,0.0004
358,0.5058170855045319,1.2769283056259155,0.8461538461538461,0.9615384615384616,0.8571428571428571,0.8571428571428571,0.0004
359,0.5766999125480652,1.1843541860580444,0.7884615384615384,0.9615384615384616,0.7857142857142857,0.7857142857142857,0.0004
360,0.5444996505975723,1.1695621013641357,0.8269230769230769,0.9615384615384616,0.7857142857142857,0.8571428571428571,0.0004
361,0.5326679348945618,0.7465585470199585,0.8076923076923077,0.9230769230769231,0.9285714285714286,0.9285714285714286,0.0004
362,0.3581221252679825,1.3680732250213623,0.9038461538461539,0.9807692307692307,0.8571428571428571,0.8571428571428571,0.0004
363,0.5524708777666092,1.3290376663208008,0.7884615384615384,0.9615384615384616,0.8571428571428571,0.8571428571428571,0.0004
364,0.4752030372619629,1.258148431777954,0.8269230769230769,0.9807692307692307,0.8571428571428571,0.7857142857142857,0.0004
365,0.32289057970046997,1.4094982147216797,0.8653846153846154,1.0,0.7142857142857143,0.8571428571428571,0.0004
366,0.6898394972085953,1.1163913011550903,0.8269230769230769,0.9423076923076923,0.7857142857142857,0.8571428571428571,0.0004
367,0.5637916624546051,1.3916330337524414,0.8269230769230769,0.9807692307692307,0.7857142857142857,0.8571428571428571,0.0004
368,0.44391486048698425,1.523537516593933,0.7692307692307693,0.9807692307692307,0.7142857142857143,0.8571428571428571,0.0004
369,0.5129557847976685,1.4094455242156982,0.8269230769230769,0.9807692307692307,0.7857142857142857,0.7857142857142857,0.0004
370,0.4974001944065094,1.1660065650939941,0.8269230769230769,0.9615384615384616,0.7857142857142857,0.8571428571428571,0.0004
371,0.554414838552475,0.9021633863449097,0.7692307692307693,0.9615384615384616,0.8571428571428571,0.9285714285714286,0.0004
372,0.37655727565288544,1.3317121267318726,0.8461538461538461,1.0,0.6428571428571429,0.9285714285714286,0.0004
373,0.5317910313606262,1.4204052686691284,0.7884615384615384,0.9807692307692307,0.7142857142857143,0.8571428571428571,0.0004
374,0.5275211930274963,1.989208459854126,0.7692307692307693,0.9807692307692307,0.6428571428571429,0.7142857142857143,0.0004
375,0.42192646861076355,2.0392515659332275,0.8269230769230769,0.9807692307692307,0.7142857142857143,0.7857142857142857,0.0004
376,0.6783099174499512,1.3840208053588867,0.7692307692307693,0.9615384615384616,0.7142857142857143,0.9285714285714286,0.0004
377,0.404463566839695,1.0955660343170166,0.9038461538461539,0.9615384615384616,0.7142857142857143,0.8571428571428571,0.0004
378,0.5576375722885132,1.0990489721298218,0.8461538461538461,0.9615384615384616,0.6428571428571429,0.9285714285714286,0.0004
379,0.4745037257671356,1.2733386754989624,0.8461538461538461,0.9615384615384616,0.7857142857142857,0.9285714285714286,0.0004
380,0.35128992795944214,1.3560924530029297,0.9038461538461539,0.9807692307692307,0.7142857142857143,0.9285714285714286,0.0004
381,0.5984527170658112,1.0678308010101318,0.8653846153846154,0.9615384615384616,0.7857142857142857,0.9285714285714286,0.0004
382,0.611740380525589,1.713869571685791,0.8076923076923077,0.9423076923076923,0.6428571428571429,0.7857142857142857,0.0004
383,0.6516719609498978,1.6237354278564453,0.8076923076923077,0.9615384615384616,0.7142857142857143,0.7857142857142857,0.0004
384,0.3862007111310959,2.007211208343506,0.8269230769230769,0.9615384615384616,0.7142857142857143,0.7857142857142857,0.0004
385,0.331607885658741,1.4029223918914795,0.8846153846153846,0.9807692307692307,0.8571428571428571,0.8571428571428571,0.0004
386,0.4906896948814392,1.7417945861816406,0.8076923076923077,1.0,0.7857142857142857,0.8571428571428571,0.0004
387,0.6982687711715698,1.403756856918335,0.7692307692307693,0.9615384615384616,0.7142857142857143,0.9285714285714286,0.0004
388,0.2895190566778183,2.3537092208862305,0.8653846153846154,1.0,0.5714285714285714,0.8571428571428571,0.0004
389,0.3897235691547394,1.3399546146392822,0.8461538461538461,1.0,0.7857142857142857,0.8571428571428571,0.0004
390,0.4558209627866745,1.0332729816436768,0.8269230769230769,0.9615384615384616,0.8571428571428571,0.9285714285714286,0.0004
391,0.5131838396191597,1.2782256603240967,0.8076923076923077,0.9615384615384616,0.7857142857142857,0.9285714285714286,0.0004
392,0.6021957695484161,1.3873863220214844,0.7692307692307693,0.9230769230769231,0.6428571428571429,0.8571428571428571,0.0004
393,0.3317379578948021,0.9089539051055908,0.8846153846153846,0.9807692307692307,0.8571428571428571,0.9285714285714286,0.0004
394,0.4867282211780548,1.7979974746704102,0.8461538461538461,0.9807692307692307,0.7142857142857143,0.7857142857142857,0.0004
395,0.5086307525634766,0.9381524920463562,0.8076923076923077,0.9615384615384616,0.8571428571428571,0.9285714285714286,0.0004
396,0.5052122324705124,0.9457349181175232,0.7884615384615384,1.0,0.9285714285714286,0.8571428571428571,0.0004
397,0.5001298487186432,2.032808303833008,0.8076923076923077,0.9423076923076923,0.5714285714285714,0.7857142857142857,0.0004
398,0.4004504084587097,1.0239570140838623,0.8269230769230769,0.9807692307692307,0.7857142857142857,0.8571428571428571,0.0004
399,0.5434060543775558,1.3876636028289795,0.8461538461538461,0.9807692307692307,0.7142857142857143,0.8571428571428571,0.0004
400,0.4423232823610306,1.0925949811935425,0.8653846153846154,0.9230769230769231,0.9285714285714286,0.9285714285714286,0.0004
401,0.4251222163438797,1.1341228485107422,0.8269230769230769,0.9807692307692307,0.6428571428571429,0.9285714285714286,0.0004
402,0.632718563079834,0.9831457138061523,0.8269230769230769,0.9038461538461539,0.8571428571428571,0.8571428571428571,0.0004
403,0.2997575104236603,1.1466667652130127,0.9038461538461539,0.9615384615384616,0.7142857142857143,0.8571428571428571,0.0004
404,0.48059529066085815,1.9484022855758667,0.8846153846153846,0.9807692307692307,0.7142857142857143,0.7857142857142857,0.0004
405,0.3555121123790741,1.5481681823730469,0.9038461538461539,0.9423076923076923,0.7857142857142857,0.8571428571428571,0.0004
406,0.6259298175573349,1.1177564859390259,0.8269230769230769,0.9423076923076923,0.8571428571428571,0.8571428571428571,0.0004
407,0.3718227744102478,0.9698944091796875,0.8846153846153846,0.9615384615384616,0.8571428571428571,0.9285714285714286,0.0004
408,0.6032784730195999,1.5548826456069946,0.8269230769230769,0.9807692307692307,0.7142857142857143,0.9285714285714286,0.0004
409,0.5070555806159973,1.7806222438812256,0.8461538461538461,0.9615384615384616,0.7857142857142857,0.8571428571428571,0.0004
410,0.26263800263404846,1.4033968448638916,0.9230769230769231,1.0,0.7142857142857143,0.8571428571428571,0.0004
411,0.7697306275367737,1.6412556171417236,0.7884615384615384,0.9230769230769231,0.6428571428571429,0.8571428571428571,0.0004
412,0.4498814046382904,1.6612694263458252,0.8653846153846154,0.9807692307692307,0.7142857142857143,0.8571428571428571,0.0004
413,0.6301952004432678,1.7582387924194336,0.8076923076923077,0.9807692307692307,0.7142857142857143,0.8571428571428571,0.0004
414,0.3952687084674835,0.9371916055679321,0.8461538461538461,1.0,0.8571428571428571,0.9285714285714286,0.0004
415,0.4854918122291565,1.2939965724945068,0.8076923076923077,0.9615384615384616,0.8571428571428571,0.8571428571428571,0.0004
416,0.5161524266004562,0.8928749561309814,0.8269230769230769,0.9807692307692307,1.0,0.8571428571428571,0.0004
417,0.4443597346544266,1.1589362621307373,0.8269230769230769,1.0,0.7142857142857143,0.8571428571428571,0.0004
418,0.5505432188510895,1.1212611198425293,0.8846153846153846,0.9423076923076923,0.7142857142857143,0.8571428571428571,0.0004
419,0.5998479574918747,1.2063026428222656,0.8461538461538461,0.9807692307692307,0.9285714285714286,0.7857142857142857,0.0004
420,0.5785904973745346,1.388746976852417,0.8461538461538461,0.9423076923076923,0.7142857142857143,0.8571428571428571,0.0004
421,0.5347959846258163,1.0535461902618408,0.8461538461538461,0.9807692307692307,0.7857142857142857,0.9285714285714286,0.0004
422,0.4294438362121582,0.9854352474212646,0.7884615384615384,0.9615384615384616,0.8571428571428571,0.9285714285714286,0.0004
423,0.5011791884899139,0.9138065576553345,0.8461538461538461,1.0,0.8571428571428571,0.9285714285714286,0.0004
424,0.6526063084602356,0.9534619450569153,0.8269230769230769,0.9615384615384616,0.8571428571428571,0.9285714285714286,0.0004
425,0.28786246478557587,1.4763240814208984,0.8846153846153846,1.0,0.7142857142857143,0.9285714285714286,0.0004
426,0.5887057781219482,1.987923502922058,0.8269230769230769,0.9423076923076923,0.6428571428571429,0.7857142857142857,0.0004
427,0.48875555396080017,1.1823301315307617,0.8076923076923077,0.9615384615384616,0.8571428571428571,0.8571428571428571,0.0004
428,0.6594245582818985,1.5926636457443237,0.7692307692307693,0.9615384615384616,0.7857142857142857,0.7857142857142857,0.0004
429,0.3962857276201248,1.3229255676269531,0.8846153846153846,1.0,0.7142857142857143,0.8571428571428571,0.0004
430,0.4957084208726883,1.8944485187530518,0.8461538461538461,1.0,0.6428571428571429,0.7142857142857143,0.0004
431,0.42348067462444305,0.9063315391540527,0.8269230769230769,1.0,0.8571428571428571,0.9285714285714286,0.0004
432,0.5412385165691376,1.304457426071167,0.8076923076923077,0.9230769230769231,0.7142857142857143,0.8571428571428571,0.0004
433,0.35375939309597015,1.5586775541305542,0.8653846153846154,0.9807692307692307,0.6428571428571429,0.8571428571428571,0.0004
434,0.635291188955307,1.3135193586349487,0.7884615384615384,0.9423076923076923,0.7142857142857143,0.7857142857142857,0.0004
435,0.3710714429616928,1.7744282484054565,0.8461538461538461,1.0,0.7857142857142857,0.8571428571428571,0.0004
436,0.53935806453228,1.6597063541412354,0.7884615384615384,0.9230769230769231,0.7142857142857143,0.8571428571428571,0.0004
437,0.4777650237083435,1.491607904434204,0.9038461538461539,0.9615384615384616,0.7142857142857143,0.8571428571428571,0.0004
438,0.4503890424966812,1.2000558376312256,0.8846153846153846,0.9807692307692307,0.7857142857142857,0.8571428571428571,0.0004
439,0.8767499029636383,1.3163982629776,0.6923076923076923,0.9230769230769231,0.7857142857142857,0.9285714285714286,0.0004
440,0.5996986329555511,1.8748455047607422,0.7884615384615384,0.9807692307692307,0.6428571428571429,0.7857142857142857,0.0004
441,0.4850936681032181,1.379450798034668,0.7884615384615384,1.0,0.8571428571428571,0.9285714285714286,0.0004
442,0.4376089721918106,1.261151671409607,0.8653846153846154,0.9615384615384616,0.8571428571428571,0.9285714285714286,0.0004
443,0.45282046496868134,1.2507390975952148,0.8653846153846154,0.9615384615384616,0.7142857142857143,0.9285714285714286,0.0004
444,0.3749099671840668,1.6223514080047607,0.8461538461538461,1.0,0.7857142857142857,0.8571428571428571,0.0004
445,0.5572280138731003,1.1156758069992065,0.75,0.9423076923076923,0.7857142857142857,0.9285714285714286,0.0004
446,0.5185839831829071,1.2302792072296143,0.8653846153846154,0.9807692307692307,0.7857142857142857,0.8571428571428571,0.0004
447,0.35171768069267273,1.2072405815124512,0.8461538461538461,1.0,0.9285714285714286,0.8571428571428571,0.0004
448,0.6844485402107239,1.3634512424468994,0.7884615384615384,0.9423076923076923,0.7142857142857143,0.7857142857142857,0.0004
449,0.3210739344358444,1.601632833480835,0.9423076923076923,0.9807692307692307,0.8571428571428571,0.8571428571428571,0.0004
450,0.5320563018321991,0.8091030120849609,0.8269230769230769,0.9807692307692307,1.0,0.9285714285714286,0.0004
451,0.630461186170578,1.6294105052947998,0.7884615384615384,0.9423076923076923,0.5714285714285714,0.8571428571428571,0.0004
452,0.411895290017128,1.6410006284713745,0.8461538461538461,0.9807692307692307,0.5,0.8571428571428571,0.0004
453,0.33763387799263,1.1537755727767944,0.9615384615384616,0.9807692307692307,0.8571428571428571,0.9285714285714286,0.0004
454,0.44182002544403076,1.2419688701629639,0.8653846153846154,0.9615384615384616,0.7857142857142857,0.9285714285714286,0.0004
455,0.5279554426670074,2.0308220386505127,0.75,1.0,0.6428571428571429,0.8571428571428571,0.0004
456,0.5458851456642151,1.2584688663482666,0.8076923076923077,0.9615384615384616,0.7857142857142857,0.9285714285714286,0.0004
457,0.698105052113533,1.1723052263259888,0.8076923076923077,0.9423076923076923,0.9285714285714286,0.9285714285714286,0.0004
458,0.7195503413677216,1.121299147605896,0.8076923076923077,0.9423076923076923,0.7857142857142857,0.8571428571428571,0.0004
459,0.46083156764507294,1.0196069478988647,0.8076923076923077,0.9807692307692307,0.8571428571428571,0.9285714285714286,0.0004
460,0.591719001531601,0.9031319618225098,0.75,0.9807692307692307,0.9285714285714286,0.9285714285714286,0.0004
461,0.7782526016235352,2.012460708618164,0.7884615384615384,0.9615384615384616,0.5,0.8571428571428571,0.0004
462,0.42053671181201935,2.3768386840820312,0.8269230769230769,0.9807692307692307,0.5714285714285714,0.7142857142857143,0.0004
463,0.47932520508766174,1.2583963871002197,0.8461538461538461,0.9807692307692307,0.7142857142857143,0.9285714285714286,0.0004
464,0.6584820747375488,1.1996078491210938,0.7884615384615384,0.9615384615384616,0.7142857142857143,0.8571428571428571,0.0004
465,0.7343892455101013,1.0873100757598877,0.75,0.9615384615384616,0.9285714285714286,0.9285714285714286,0.0004
466,0.43414419889450073,1.7522337436676025,0.8461538461538461,1.0,0.7142857142857143,0.7857142857142857,0.0004
467,0.5680118650197983,1.3296672105789185,0.8076923076923077,0.9230769230769231,0.6428571428571429,0.8571428571428571,0.0004
468,0.8003412187099457,1.0883005857467651,0.7307692307692307,0.8846153846153846,0.8571428571428571,0.9285714285714286,0.0004
469,0.3626865968108177,0.8913038969039917,0.9038461538461539,0.9423076923076923,0.9285714285714286,0.9285714285714286,0.0004
470,0.6177366971969604,0.9370754957199097,0.8269230769230769,0.9615384615384616,0.9285714285714286,0.9285714285714286,0.0004
471,0.5780626386404037,1.135843276977539,0.7692307692307693,0.9423076923076923,0.8571428571428571,0.9285714285714286,0.0004
472,0.6405408978462219,1.4209113121032715,0.7884615384615384,0.9615384615384616,0.6428571428571429,0.8571428571428571,0.0004
473,0.31619350612163544,1.4676008224487305,0.9423076923076923,0.9615384615384616,0.7142857142857143,0.7857142857142857,0.0004
474,0.4395095109939575,0.7271147966384888,0.8653846153846154,0.9807692307692307,1.0,0.9285714285714286,0.0004
475,0.48714372515678406,0.8850052356719971,0.9038461538461539,0.9807692307692307,0.9285714285714286,0.9285714285714286,0.0004
476,0.2862415760755539,1.3541336059570312,0.9615384615384616,1.0,0.7857142857142857,0.8571428571428571,0.0004
477,0.5023463815450668,1.829107403755188,0.8461538461538461,0.9230769230769231,0.6428571428571429,0.7857142857142857,0.0004
478,0.5246091783046722,1.3853899240493774,0.8461538461538461,1.0,0.6428571428571429,0.7857142857142857,0.0004
479,0.4179370850324631,1.319857120513916,0.8653846153846154,1.0,0.7857142857142857,0.8571428571428571,0.0004
480,0.29365018010139465,1.1825402975082397,0.9423076923076923,1.0,0.7857142857142857,0.8571428571428571,0.0004
481,0.5951265543699265,0.9351661205291748,0.7884615384615384,0.9230769230769231,0.9285714285714286,0.9285714285714286,0.0004
482,0.5210141539573669,1.4008171558380127,0.8461538461538461,0.9807692307692307,0.7142857142857143,0.8571428571428571,0.0004
483,0.20406346768140793,1.0718531608581543,0.9230769230769231,0.9615384615384616,0.8571428571428571,0.9285714285714286,0.0004
484,0.6572799533605576,1.3191442489624023,0.7692307692307693,0.9615384615384616,0.8571428571428571,0.8571428571428571,0.0004
485,0.29069315642118454,1.209834337234497,0.9038461538461539,1.0,0.9285714285714286,0.9285714285714286,0.0004
486,0.4060203433036804,1.4787299633026123,0.8653846153846154,0.9807692307692307,0.6428571428571429,0.8571428571428571,0.0004
487,0.34407541155815125,1.0961178541183472,0.9038461538461539,0.9807692307692307,0.8571428571428571,0.9285714285714286,0.0004
488,0.6577156335115433,1.2361143827438354,0.8461538461538461,0.9615384615384616,0.7857142857142857,0.9285714285714286,0.0004
489,0.6235068738460541,1.7282438278198242,0.7692307692307693,0.9807692307692307,0.7142857142857143,0.8571428571428571,0.0004
490,0.29256270825862885,1.687835931777954,0.8461538461538461,1.0,0.7142857142857143,0.7857142857142857,0.0004
491,0.4873243272304535,1.5211045742034912,0.8846153846153846,0.9807692307692307,0.6428571428571429,0.8571428571428571,0.0004
492,0.5022473633289337,1.5969645977020264,0.7692307692307693,1.0,0.8571428571428571,0.8571428571428571,0.0004
493,0.5394745692610741,1.2138285636901855,0.8846153846153846,0.9807692307692307,0.7857142857142857,0.9285714285714286,0.0004
494,0.7110653817653656,1.3249684572219849,0.8269230769230769,0.9615384615384616,0.7857142857142857,0.9285714285714286,0.0004
495,0.37426210939884186,1.571055293083191,0.8269230769230769,1.0,0.7857142857142857,0.8571428571428571,0.0004
496,0.5289090871810913,1.7324068546295166,0.8653846153846154,0.9615384615384616,0.7142857142857143,0.8571428571428571,0.0004
497,0.5563720166683197,1.1541416645050049,0.8461538461538461,0.9807692307692307,0.7142857142857143,0.8571428571428571,0.0004
498,0.4182058870792389,1.041729211807251,0.9230769230769231,0.9807692307692307,0.8571428571428571,0.9285714285714286,0.0004
499,0.673194020986557,1.8387781381607056,0.7692307692307693,0.9423076923076923,0.7857142857142857,0.7142857142857143,0.0004
500,0.4030021131038666,1.053294062614441,0.8461538461538461,0.9807692307692307,0.7857142857142857,0.9285714285714286,0.0004
501,0.5682075619697571,1.3850529193878174,0.8269230769230769,0.9423076923076923,0.7857142857142857,0.8571428571428571,0.0004
502,0.6165340542793274,1.1193387508392334,0.8653846153846154,0.9423076923076923,0.8571428571428571,0.9285714285714286,0.0004
503,0.3667151927947998,1.485103726387024,0.8846153846153846,0.9807692307692307,0.8571428571428571,0.8571428571428571,0.0004
504,0.38160674273967743,1.6573517322540283,0.8846153846153846,0.9807692307692307,0.6428571428571429,0.9285714285714286,0.0004
505,0.5074230432510376,1.5332696437835693,0.8269230769230769,0.9423076923076923,0.6428571428571429,0.9285714285714286,0.0004
506,0.6995423138141632,1.2118453979492188,0.7307692307692307,0.9230769230769231,0.8571428571428571,0.9285714285714286,0.0004
507,0.435213565826416,1.6150481700897217,0.8461538461538461,0.9423076923076923,0.7857142857142857,0.7857142857142857,0.0004
508,0.3805558383464813,1.3420194387435913,0.9038461538461539,0.9807692307692307,0.7857142857142857,0.9285714285714286,0.0004
509,0.3150513991713524,1.385674238204956,0.9230769230769231,1.0,0.7142857142857143,0.8571428571428571,0.0004
510,0.4292561262845993,1.332562804222107,0.8653846153846154,0.9807692307692307,0.7142857142857143,0.9285714285714286,0.0004
511,0.40480533242225647,1.9022942781448364,0.9038461538461539,0.9807692307692307,0.6428571428571429,0.7857142857142857,0.0004
512,0.4680356830358505,1.649181842803955,0.8653846153846154,1.0,0.7142857142857143,0.9285714285714286,0.0004
513,0.5907787084579468,1.085075855255127,0.8269230769230769,0.9423076923076923,0.8571428571428571,0.9285714285714286,0.0004
514,0.3027159124612808,1.0228478908538818,0.9615384615384616,1.0,0.8571428571428571,0.9285714285714286,0.0004
515,0.2738199979066849,1.4716962575912476,0.8846153846153846,1.0,0.7142857142857143,0.9285714285714286,0.0004
516,0.38980019092559814,1.0783878564834595,0.8846153846153846,0.9807692307692307,0.7857142857142857,0.8571428571428571,0.0004
517,0.5860209763050079,1.847179651260376,0.8653846153846154,0.9615384615384616,0.7142857142857143,0.7857142857142857,0.0004
518,0.6014782190322876,1.7930042743682861,0.8269230769230769,0.9038461538461539,0.6428571428571429,0.8571428571428571,0.0004
519,0.35314418375492096,1.104816198348999,0.9038461538461539,1.0,0.8571428571428571,0.9285714285714286,0.0004
520,0.4134274274110794,1.57816481590271,0.8269230769230769,0.9807692307692307,0.7857142857142857,0.7857142857142857,0.0004
521,0.36395108699798584,1.0819523334503174,0.8846153846153846,0.9807692307692307,0.7142857142857143,0.9285714285714286,0.0004
522,0.6290590912103653,2.1996655464172363,0.8653846153846154,0.9423076923076923,0.6428571428571429,0.7857142857142857,0.0004
523,0.491103932261467,0.8663691282272339,0.8269230769230769,0.9807692307692307,0.8571428571428571,0.9285714285714286,0.0004
524,0.5643933713436127,1.4490078687667847,0.7884615384615384,0.9615384615384616,0.7857142857142857,0.8571428571428571,0.0004
525,0.3294317275285721,1.2397414445877075,0.9230769230769231,0.9615384615384616,0.7142857142857143,0.8571428571428571,0.0004
526,0.39751240611076355,0.9485980272293091,0.9038461538461539,0.9423076923076923,0.7857142857142857,0.9285714285714286,0.0004
527,0.6158687174320221,1.8033002614974976,0.7884615384615384,0.9615384615384616,0.5,0.7857142857142857,0.0004
528,0.5665513798594475,1.7891955375671387,0.8076923076923077,0.9423076923076923,0.7857142857142857,0.8571428571428571,0.0004
529,0.7046659886837006,1.2218129634857178,0.7884615384615384,0.9807692307692307,0.7857142857142857,0.9285714285714286,0.0004
530,0.3809330463409424,1.4354641437530518,0.8846153846153846,0.9423076923076923,0.7142857142857143,0.8571428571428571,0.0004
531,0.6478995978832245,1.190596342086792,0.8076923076923077,0.9615384615384616,0.7142857142857143,0.9285714285714286,0.0004
532,0.5074597746133804,1.3751957416534424,0.7884615384615384,0.9615384615384616,0.8571428571428571,0.8571428571428571,0.0004
533,0.3897477090358734,1.0446679592132568,0.8653846153846154,1.0,0.8571428571428571,0.9285714285714286,0.0004
534,0.3744032382965088,1.1368286609649658,0.8653846153846154,0.9807692307692307,0.7857142857142857,0.7857142857142857,0.0004
535,0.4678438752889633,1.3902194499969482,0.8846153846153846,0.9807692307692307,0.8571428571428571,0.8571428571428571,0.0004
536,0.5492285788059235,1.1132895946502686,0.8461538461538461,0.9423076923076923,0.7857142857142857,0.9285714285714286,0.0004
537,0.5702836811542511,1.6862009763717651,0.7884615384615384,0.9807692307692307,0.6428571428571429,0.7857142857142857,0.0004
538,0.5624052584171295,1.8713544607162476,0.7884615384615384,0.9807692307692307,0.6428571428571429,0.7857142857142857,0.0004
539,0.2889355942606926,1.5557029247283936,0.9038461538461539,1.0,0.6428571428571429,0.8571428571428571,0.0004
540,0.23342566192150116,0.7915595769882202,0.9423076923076923,1.0,1.0,0.9285714285714286,0.0004
541,0.5377285778522491,1.407637596130371,0.8269230769230769,0.9807692307692307,0.7142857142857143,0.9285714285714286,0.0004
542,0.5249855816364288,1.731757402420044,0.8461538461538461,0.9615384615384616,0.7857142857142857,0.8571428571428571,0.0004
543,0.4797807037830353,0.8707575798034668,0.8653846153846154,0.9807692307692307,1.0,0.9285714285714286,0.0004
544,0.40761955082416534,1.303785800933838,0.8269230769230769,1.0,0.7142857142857143,0.8571428571428571,0.0004
545,0.471101850271225,1.2548545598983765,0.8846153846153846,0.9807692307692307,0.7857142857142857,0.8571428571428571,0.0004
546,0.5803018510341644,1.3079737424850464,0.8076923076923077,0.9230769230769231,0.7857142857142857,0.9285714285714286,0.0004
547,0.499596431851387,1.2739391326904297,0.8269230769230769,0.9807692307692307,0.7857142857142857,0.8571428571428571,0.0004
548,0.6373519897460938,1.543575406074524,0.7884615384615384,0.9423076923076923,0.7142857142857143,0.8571428571428571,0.0004
549,0.5963577032089233,1.2140589952468872,0.8076923076923077,0.9615384615384616,0.7857142857142857,0.9285714285714286,0.0004
550,0.33632608503103256,1.2157354354858398,0.9038461538461539,1.0,0.7857142857142857,0.8571428571428571,0.0004
551,0.3887876495718956,1.2506909370422363,0.9230769230769231,0.9423076923076923,0.7857142857142857,0.9285714285714286,0.0004
552,0.22914671897888184,1.0138006210327148,0.9423076923076923,1.0,0.9285714285714286,0.9285714285714286,0.0004
553,0.4797062426805496,1.3543039560317993,0.8653846153846154,0.9807692307692307,0.8571428571428571,0.8571428571428571,0.0004
554,0.2745528109371662,0.9680798649787903,0.9038461538461539,0.9807692307692307,0.8571428571428571,0.8571428571428571,0.0004
555,0.6956342160701752,1.6192831993103027,0.8076923076923077,0.9038461538461539,0.5714285714285714,0.7857142857142857,0.0004
556,0.5827061831951141,1.3567113876342773,0.7884615384615384,0.9615384615384616,0.7857142857142857,0.8571428571428571,0.0004
557,0.42953311651945114,1.3583660125732422,0.7884615384615384,0.9423076923076923,0.7857142857142857,0.9285714285714286,0.0004
558,0.5485037714242935,1.8323521614074707,0.8269230769230769,0.9423076923076923,0.6428571428571429,0.7857142857142857,0.0004
559,0.42908017337322235,1.4694273471832275,0.9038461538461539,0.9423076923076923,0.7857142857142857,0.8571428571428571,0.0004
560,0.5631946921348572,1.6659266948699951,0.8461538461538461,0.9615384615384616,0.6428571428571429,0.8571428571428571,0.0004
561,0.4037473350763321,3.153873920440674,0.8846153846153846,0.9807692307692307,0.42857142857142855,0.7142857142857143,0.0004
562,0.4256286025047302,0.952870786190033,0.8653846153846154,0.9423076923076923,0.8571428571428571,0.9285714285714286,0.0004
563,0.6114609986543655,2.0012333393096924,0.8076923076923077,0.9423076923076923,0.5714285714285714,0.7857142857142857,0.0004
564,0.399495393037796,0.8553907871246338,0.8461538461538461,0.9615384615384616,1.0,0.9285714285714286,0.0004
565,0.27688755095005035,1.8344647884368896,0.9038461538461539,0.9615384615384616,0.6428571428571429,0.9285714285714286,0.0004
566,0.3445328623056412,0.9521893262863159,0.8846153846153846,0.9807692307692307,0.9285714285714286,0.9285714285714286,0.0004
567,0.49364274740219116,1.1527836322784424,0.8076923076923077,0.9807692307692307,0.7857142857142857,0.9285714285714286,0.0004
568,0.41896361112594604,1.3494659662246704,0.8269230769230769,1.0,0.7142857142857143,0.8571428571428571,0.0004
569,0.40907755494117737,1.1932570934295654,0.9038461538461539,0.9807692307692307,0.7857142857142857,0.8571428571428571,0.0004
570,0.34112512320280075,1.7346149682998657,0.8846153846153846,1.0,0.7142857142857143,0.8571428571428571,0.0004
571,0.3981400579214096,1.8825525045394897,0.9038461538461539,1.0,0.7857142857142857,0.8571428571428571,0.0004
572,0.2728605270385742,1.5471965074539185,0.9423076923076923,1.0,0.7142857142857143,0.8571428571428571,0.0004
573,0.9852481782436371,1.5449434518814087,0.6923076923076923,0.9038461538461539,0.7142857142857143,0.9285714285714286,0.0004
574,0.4880569279193878,1.5670299530029297,0.8653846153846154,0.9807692307692307,0.7857142857142857,0.8571428571428571,0.0004
575,0.4027188569307327,0.9115634560585022,0.8461538461538461,0.9807692307692307,0.9285714285714286,0.9285714285714286,0.0004
576,0.33087901026010513,1.566662073135376,0.9423076923076923,0.9807692307692307,0.7857142857142857,0.8571428571428571,0.0004
577,0.663312166929245,1.3258566856384277,0.8076923076923077,0.9423076923076923,0.7857142857142857,0.8571428571428571,0.0004
578,0.2474888265132904,2.0969648361206055,0.9615384615384616,0.9807692307692307,0.5,0.7857142857142857,0.0004
579,0.3577205091714859,1.5764987468719482,0.9230769230769231,0.9423076923076923,0.7142857142857143,0.7857142857142857,0.0004
580,0.3571120649576187,0.787688136100769,0.9038461538461539,0.9615384615384616,0.8571428571428571,0.8571428571428571,0.0004
581,0.4273146688938141,1.064347505569458,0.8653846153846154,0.9807692307692307,0.7142857142857143,0.8571428571428571,0.0004
582,0.288280189037323,1.860912561416626,0.9038461538461539,1.0,0.6428571428571429,0.8571428571428571,0.0004
583,0.3871438652276993,0.8555642366409302,0.8846153846153846,0.9615384615384616,0.9285714285714286,0.9285714285714286,0.0004
584,0.42302724719047546,2.2723114490509033,0.8846153846153846,0.9807692307692307,0.7142857142857143,0.7142857142857143,0.0004
585,0.46723905205726624,1.2546499967575073,0.8653846153846154,0.9615384615384616,0.8571428571428571,0.9285714285714286,0.0004
586,0.45890115201473236,1.008211612701416,0.8461538461538461,0.9807692307692307,0.7857142857142857,0.9285714285714286,0.0004
587,0.28693126887083054,1.5146281719207764,0.9038461538461539,1.0,0.6428571428571429,0.8571428571428571,0.0004
588,0.3269283026456833,1.2375714778900146,0.8653846153846154,0.9615384615384616,0.7857142857142857,0.9285714285714286,0.0004
589,0.3062475770711899,1.369814157485962,0.9038461538461539,1.0,0.7857142857142857,0.9285714285714286,0.0004
590,0.5159651190042496,2.402681827545166,0.8461538461538461,0.9230769230769231,0.7142857142857143,0.7857142857142857,0.0004
591,0.4731815457344055,1.2683377265930176,0.8076923076923077,0.9807692307692307,0.7857142857142857,0.8571428571428571,0.0004
592,0.3129328042268753,1.11474609375,0.9038461538461539,0.9807692307692307,0.8571428571428571,0.9285714285714286,0.0004
593,0.45570677518844604,1.8897011280059814,0.8269230769230769,0.9423076923076923,0.5714285714285714,0.7857142857142857,0.0004
594,0.3413563743233681,1.6859116554260254,0.8846153846153846,0.9807692307692307,0.7142857142857143,0.8571428571428571,0.0004
595,0.4338180869817734,1.509810209274292,0.8653846153846154,0.9615384615384616,0.7857142857142857,0.8571428571428571,0.0004
596,0.40555907785892487,1.2974324226379395,0.9230769230769231,0.9807692307692307,0.7142857142857143,0.8571428571428571,0.0004
597,0.4229050278663635,1.1925534009933472,0.8461538461538461,0.9615384615384616,0.7857142857142857,0.8571428571428571,0.0004
598,0.4616820216178894,1.2989280223846436,0.8269230769230769,1.0,0.7142857142857143,0.8571428571428571,0.0004
599,0.2650875747203827,0.939293384552002,0.9038461538461539,0.9807692307692307,0.8571428571428571,0.9285714285714286,0.0004
600,0.5029698014259338,1.7574503421783447,0.8461538461538461,0.9423076923076923,0.7142857142857143,0.9285714285714286,0.0004
601,0.6734104156494141,1.7508432865142822,0.75,0.9038461538461539,0.7857142857142857,0.9285714285714286,0.0004
602,0.7986145615577698,1.4370026588439941,0.7884615384615384,0.9230769230769231,0.7142857142857143,0.8571428571428571,0.0004
603,0.5801992863416672,2.0119385719299316,0.7692307692307693,0.9230769230769231,0.6428571428571429,0.9285714285714286,0.0004
604,0.5152783542871475,1.1707181930541992,0.8269230769230769,0.9807692307692307,0.8571428571428571,0.9285714285714286,0.0004
605,0.30670926719903946,1.2591747045516968,0.9230769230769231,0.9615384615384616,0.7142857142857143,0.9285714285714286,0.0004
606,0.4925796389579773,1.837986707687378,0.8653846153846154,0.9807692307692307,0.7142857142857143,0.7857142857142857,0.0004
607,0.3720278739929199,0.9547343254089355,0.8653846153846154,0.9615384615384616,0.7857142857142857,0.9285714285714286,0.0004
608,0.40260159224271774,1.141946792602539,0.9230769230769231,0.9615384615384616,0.8571428571428571,0.9285714285714286,0.0004
609,0.3936990052461624,0.9926427602767944,0.8653846153846154,0.9807692307692307,0.9285714285714286,0.9285714285714286,0.0004
610,0.718561202287674,1.481415867805481,0.7692307692307693,0.9423076923076923,0.8571428571428571,0.8571428571428571,0.0004
611,0.311345636844635,1.2530605792999268,0.8846153846153846,1.0,0.9285714285714286,0.9285714285714286,0.0004
612,0.4827820360660553,1.325437307357788,0.7884615384615384,0.9615384615384616,0.7857142857142857,0.8571428571428571,0.0004
613,0.5543103218078613,1.8129551410675049,0.7884615384615384,0.9230769230769231,0.7142857142857143,0.8571428571428571,0.0004
614,0.5009792000055313,1.5693268775939941,0.7884615384615384,0.9807692307692307,0.7142857142857143,0.8571428571428571,0.0004
615,0.3348838537931442,1.7520740032196045,0.9230769230769231,0.9807692307692307,0.5714285714285714,0.7857142857142857,0.0004
616,0.30270475149154663,1.9805532693862915,0.9615384615384616,0.9807692307692307,0.6428571428571429,0.8571428571428571,0.0004
617,0.3628571778535843,1.519531011581421,0.8846153846153846,0.9807692307692307,0.7857142857142857,0.8571428571428571,0.0004
618,0.5807561725378036,1.2289533615112305,0.8653846153846154,0.9615384615384616,0.8571428571428571,0.8571428571428571,0.0004
619,0.5283932387828827,1.5254530906677246,0.8076923076923077,0.9615384615384616,0.6428571428571429,0.8571428571428571,0.0004
620,0.23300819844007492,1.740295171737671,0.9615384615384616,0.9807692307692307,0.6428571428571429,0.8571428571428571,0.0004
621,0.5571045875549316,1.6419743299484253,0.8461538461538461,0.9423076923076923,0.7142857142857143,0.9285714285714286,0.0004
622,0.34313251078128815,1.3198480606079102,0.9038461538461539,1.0,0.7857142857142857,0.7857142857142857,0.0004
623,0.5822879374027252,1.051702857017517,0.75,0.9615384615384616,0.7857142857142857,0.9285714285714286,0.0004
624,0.5373836308717728,1.2390058040618896,0.8076923076923077,0.9807692307692307,0.7142857142857143,0.9285714285714286,0.0004
625,0.4855218678712845,1.494084358215332,0.8076923076923077,1.0,0.7857142857142857,0.8571428571428571,0.0004
626,0.5348300337791443,1.0518088340759277,0.8269230769230769,0.9807692307692307,0.7857142857142857,0.9285714285714286,0.0004
627,0.3400496020913124,1.5997109413146973,0.9038461538461539,0.9807692307692307,0.8571428571428571,0.8571428571428571,0.0004
628,0.6398656815290451,1.7888307571411133,0.7884615384615384,0.9423076923076923,0.7857142857142857,0.8571428571428571,0.0004
629,0.6094693392515182,1.8112223148345947,0.8461538461538461,0.9807692307692307,0.6428571428571429,0.8571428571428571,0.0004
630,0.7183024734258652,1.6869724988937378,0.8269230769230769,0.9423076923076923,0.5714285714285714,0.8571428571428571,0.0004
631,0.41492460668087006,1.7966580390930176,0.8269230769230769,1.0,0.7857142857142857,0.8571428571428571,0.0004
632,0.45171959698200226,1.7762055397033691,0.8653846153846154,0.9807692307692307,0.7857142857142857,0.8571428571428571,0.0004
633,0.26419898867607117,1.496039867401123,0.9423076923076923,1.0,0.7857142857142857,0.9285714285714286,0.0004
634,0.4815964102745056,1.2293078899383545,0.8846153846153846,0.9807692307692307,0.7857142857142857,0.9285714285714286,0.0004
635,0.5273793637752533,1.619462490081787,0.8461538461538461,0.9615384615384616,0.7857142857142857,0.8571428571428571,0.0004
636,0.33376215398311615,1.3480415344238281,0.9038461538461539,0.9807692307692307,0.7142857142857143,0.9285714285714286,0.0004
637,0.36381112039089203,1.343860387802124,0.9423076923076923,0.9807692307692307,0.8571428571428571,0.9285714285714286,0.0004
638,0.29924018681049347,1.315213680267334,0.8846153846153846,1.0,0.7857142857142857,0.8571428571428571,0.0004
639,0.4816177934408188,1.6660478115081787,0.7884615384615384,0.9807692307692307,0.8571428571428571,0.8571428571428571,0.0004
640,0.3576291650533676,1.6204079389572144,0.8461538461538461,1.0,0.7142857142857143,0.8571428571428571,0.0004
641,0.6085739731788635,1.726311445236206,0.7884615384615384,0.9423076923076923,0.6428571428571429,0.8571428571428571,0.0004
642,0.42791391909122467,1.1120272874832153,0.9038461538461539,0.9615384615384616,0.8571428571428571,0.8571428571428571,0.0004
643,0.4906008541584015,1.0247197151184082,0.8269230769230769,0.9423076923076923,0.8571428571428571,0.9285714285714286,0.0004
644,0.6235912442207336,2.105227470397949,0.8461538461538461,0.9038461538461539,0.7142857142857143,0.7857142857142857,0.0004
645,0.2374311089515686,2.475168228149414,0.9423076923076923,1.0,0.5714285714285714,0.7857142857142857,0.0004
646,0.435974657535553,1.8907034397125244,0.8461538461538461,0.9423076923076923,0.7857142857142857,0.8571428571428571,0.0004
647,0.38732193410396576,1.513859510421753,0.8269230769230769,1.0,0.7142857142857143,0.7857142857142857,0.0004
648,0.5764074325561523,1.5474483966827393,0.8269230769230769,0.9423076923076923,0.7142857142857143,0.9285714285714286,0.0004
649,0.5803106129169464,1.0927318334579468,0.8461538461538461,0.9615384615384616,0.8571428571428571,0.9285714285714286,0.0004
650,0.41710250079631805,1.0310410261154175,0.8653846153846154,0.9807692307692307,0.8571428571428571,0.9285714285714286,0.0004
651,0.6113632023334503,1.8807090520858765,0.7307692307692307,0.9615384615384616,0.6428571428571429,0.7857142857142857,0.0004
652,0.5198622047901154,1.1690115928649902,0.8076923076923077,0.9423076923076923,0.7857142857142857,0.9285714285714286,0.0004
653,0.4503404498100281,1.4396395683288574,0.8269230769230769,0.9615384615384616,0.7857142857142857,0.9285714285714286,0.0004
654,0.7912973761558533,2.2667109966278076,0.7692307692307693,0.9423076923076923,0.6428571428571429,0.7857142857142857,0.0004
655,0.4719661474227905,1.1234300136566162,0.8461538461538461,0.9807692307692307,0.7142857142857143,0.8571428571428571,0.0004
656,0.5097698867321014,1.7160470485687256,0.8461538461538461,0.9807692307692307,0.5714285714285714,0.8571428571428571,0.0004
657,0.41630466282367706,1.033366322517395,0.9038461538461539,0.9615384615384616,1.0,0.9285714285714286,0.0004
658,0.5034988224506378,1.9164719581604004,0.8269230769230769,1.0,0.7142857142857143,0.8571428571428571,0.0004
659,0.6238961517810822,1.3068556785583496,0.7692307692307693,0.9807692307692307,0.7857142857142857,0.9285714285714286,0.0004
660,0.4019950330257416,1.314232587814331,0.8653846153846154,0.9807692307692307,0.7142857142857143,0.8571428571428571,0.0004
661,0.5947197079658508,1.8443516492843628,0.8076923076923077,1.0,0.7142857142857143,0.7857142857142857,0.0004
662,0.364928662776947,1.1570600271224976,0.9038461538461539,0.9807692307692307,0.8571428571428571,0.8571428571428571,0.0004
663,0.8355081081390381,1.5503668785095215,0.75,0.9423076923076923,0.7857142857142857,0.9285714285714286,0.0004
664,0.5430591702461243,2.095461130142212,0.8653846153846154,0.9615384615384616,0.6428571428571429,0.8571428571428571,0.0004
665,0.5221803486347198,1.9678826332092285,0.8461538461538461,0.9615384615384616,0.7142857142857143,0.8571428571428571,0.0004
666,0.3259323388338089,1.614433765411377,0.9230769230769231,0.9807692307692307,0.7142857142857143,0.8571428571428571,0.0004
667,0.5139172673225403,1.851801872253418,0.8269230769230769,0.9615384615384616,0.7142857142857143,0.8571428571428571,0.0004
668,0.8751006424427032,1.1295913457870483,0.75,0.9230769230769231,0.8571428571428571,0.9285714285714286,0.0004
669,0.37451697885990143,1.3934370279312134,0.8461538461538461,0.9807692307692307,0.7857142857142857,0.7857142857142857,0.0004
670,0.4887835681438446,1.2103822231292725,0.8461538461538461,0.9423076923076923,0.8571428571428571,0.9285714285714286,0.0004
671,0.4590546488761902,0.7980905175209045,0.8846153846153846,0.9807692307692307,0.9285714285714286,0.9285714285714286,0.0004
672,0.407319575548172,0.8709624409675598,0.8076923076923077,0.9615384615384616,0.9285714285714286,0.9285714285714286,0.0004
673,0.34316179156303406,1.7275632619857788,0.9038461538461539,0.9807692307692307,0.7142857142857143,0.8571428571428571,0.0004
674,0.5181970596313477,1.0694739818572998,0.8653846153846154,0.9615384615384616,0.7142857142857143,0.8571428571428571,0.0004
675,0.39808760583400726,1.1074172258377075,0.8461538461538461,1.0,0.8571428571428571,0.9285714285714286,0.0004
676,0.21435163170099258,2.3189032077789307,0.9423076923076923,1.0,0.6428571428571429,0.7857142857142857,0.0004
677,0.8109956383705139,1.160569667816162,0.7692307692307693,0.9423076923076923,0.8571428571428571,0.9285714285714286,0.0004
678,0.4099847972393036,1.9036470651626587,0.8653846153846154,0.9615384615384616,0.7142857142857143,0.8571428571428571,0.0004
679,0.2876051515340805,1.298112154006958,0.9230769230769231,1.0,0.7857142857142857,0.9285714285714286,0.0004
680,0.4307735115289688,1.659564733505249,0.8846153846153846,1.0,0.7142857142857143,0.8571428571428571,0.0004
681,0.37163208425045013,1.9866636991500854,0.9038461538461539,0.9615384615384616,0.6428571428571429,0.7857142857142857,0.0004
682,0.30555758625268936,1.2792365550994873,0.9230769230769231,0.9807692307692307,0.7857142857142857,0.8571428571428571,0.0004
683,0.3298629969358444,2.1509830951690674,0.9038461538461539,0.9807692307692307,0.7857142857142857,0.7857142857142857,0.0004
684,0.38486117124557495,0.9191751480102539,0.8846153846153846,1.0,0.9285714285714286,0.9285714285714286,0.0004
685,0.5964260101318359,1.947174310684204,0.8461538461538461,0.9230769230769231,0.7857142857142857,0.7857142857142857,0.0004
686,0.5680029988288879,1.1515955924987793,0.8269230769230769,0.9423076923076923,0.8571428571428571,0.9285714285714286,0.0004
687,0.3205225169658661,1.0769864320755005,0.8846153846153846,0.9615384615384616,0.7857142857142857,0.9285714285714286,0.0004
688,0.3208586424589157,1.0468491315841675,0.9230769230769231,1.0,0.8571428571428571,0.9285714285714286,0.0004
689,0.5629410743713379,0.7968622446060181,0.8461538461538461,0.9423076923076923,0.9285714285714286,0.9285714285714286,0.0004
690,0.6153672337532043,1.387232780456543,0.8846153846153846,0.9038461538461539,0.7857142857142857,0.8571428571428571,0.0004
691,0.37154223024845123,1.5380125045776367,0.8461538461538461,0.9807692307692307,0.7857142857142857,0.8571428571428571,0.0004
692,0.2436853125691414,1.4154776334762573,0.9230769230769231,1.0,0.7857142857142857,0.9285714285714286,0.0004
693,0.4642966538667679,1.8529082536697388,0.8076923076923077,0.9807692307692307,0.7142857142857143,0.8571428571428571,0.0004
694,0.47900885343551636,2.2250866889953613,0.8461538461538461,0.9423076923076923,0.6428571428571429,0.7857142857142857,0.0004
695,0.2308763787150383,1.785642147064209,0.9230769230769231,1.0,0.7142857142857143,0.8571428571428571,0.0004
696,0.24617402255535126,1.2784361839294434,0.9230769230769231,1.0,0.7857142857142857,0.8571428571428571,0.0004
697,0.38345852494239807,1.3982701301574707,0.8846153846153846,1.0,0.7857142857142857,0.8571428571428571,0.0004
698,0.5006886273622513,0.988154947757721,0.8653846153846154,0.9807692307692307,0.8571428571428571,0.8571428571428571,0.0004
699,0.5711498558521271,2.5505316257476807,0.7884615384615384,1.0,0.5714285714285714,0.7857142857142857,0.0004
700,0.365460604429245,0.908777117729187,0.8846153846153846,1.0,0.8571428571428571,0.9285714285714286,0.0004
701,0.417439728975296,1.6834644079208374,0.8846153846153846,0.9615384615384616,0.7857142857142857,0.8571428571428571,0.0004
702,0.2677443325519562,1.839473009109497,0.9230769230769231,1.0,0.7857142857142857,0.8571428571428571,0.0004
703,0.46067631244659424,1.3853563070297241,0.8846153846153846,0.9807692307692307,0.6428571428571429,0.8571428571428571,0.0004
704,0.5669841766357422,1.093681812286377,0.8269230769230769,0.9807692307692307,0.7857142857142857,0.9285714285714286,0.0004
705,0.420671284198761,1.7106733322143555,0.8653846153846154,0.9807692307692307,0.7857142857142857,0.8571428571428571,0.0004
706,0.36878594011068344,0.7192524075508118,0.8461538461538461,1.0,1.0,0.9285714285714286,0.0004
707,0.6360905468463898,1.1108499765396118,0.7884615384615384,0.9423076923076923,0.8571428571428571,0.8571428571428571,0.0004
708,0.34776875376701355,1.6397497653961182,0.8846153846153846,0.9807692307692307,0.7142857142857143,0.7857142857142857,0.0004
709,0.40724316239356995,1.4651579856872559,0.9038461538461539,1.0,0.7857142857142857,0.8571428571428571,0.0004
710,0.46359944343566895,1.4952056407928467,0.8653846153846154,0.9615384615384616,0.7857142857142857,0.8571428571428571,0.0004
711,0.4778590500354767,1.2148070335388184,0.8461538461538461,0.9807692307692307,0.7857142857142857,0.9285714285714286,0.0004
712,0.46022698283195496,1.4834381341934204,0.8269230769230769,0.9615384615384616,0.7142857142857143,0.8571428571428571,0.0004
713,0.2787943333387375,2.3711066246032715,0.9230769230769231,0.9615384615384616,0.7857142857142857,0.7857142857142857,0.0004
714,0.5513094812631607,1.7389557361602783,0.8653846153846154,0.9807692307692307,0.7142857142857143,0.7857142857142857,0.0004
715,0.2769795209169388,1.9737541675567627,0.9038461538461539,1.0,0.7142857142857143,0.8571428571428571,0.0004
716,0.5537423342466354,1.5089445114135742,0.8269230769230769,0.9807692307692307,0.7142857142857143,0.8571428571428571,0.0004
717,0.3969740867614746,0.937769889831543,0.8653846153846154,1.0,0.8571428571428571,0.9285714285714286,0.0004
718,0.5162414759397507,1.024585485458374,0.8461538461538461,0.9423076923076923,0.9285714285714286,0.9285714285714286,0.0004
719,0.630698561668396,1.3736960887908936,0.7884615384615384,0.9423076923076923,0.7857142857142857,0.8571428571428571,0.0004
720,0.3699547350406647,1.0435154438018799,0.8076923076923077,1.0,0.7857142857142857,0.9285714285714286,0.0004
721,0.5935828387737274,1.9889700412750244,0.8461538461538461,1.0,0.5,0.7857142857142857,0.0004
722,0.7134465873241425,2.0164899826049805,0.7884615384615384,0.9423076923076923,0.7142857142857143,0.7857142857142857,0.0004
723,0.383886456489563,1.7987627983093262,0.8653846153846154,0.9807692307692307,0.6428571428571429,0.7857142857142857,0.0004
724,0.3340398669242859,1.4008221626281738,0.9230769230769231,0.9615384615384616,0.7142857142857143,0.8571428571428571,0.0004
725,0.38397060334682465,1.3165510892868042,0.8653846153846154,0.9807692307692307,0.7857142857142857,0.9285714285714286,0.0004
726,0.4594930112361908,2.534748077392578,0.8269230769230769,1.0,0.5714285714285714,0.7857142857142857,0.0004
727,0.4446512758731842,2.448195219039917,0.8461538461538461,0.9807692307692307,0.7142857142857143,0.7857142857142857,0.0004
728,0.2373877540230751,1.3366379737854004,0.9423076923076923,0.9807692307692307,0.7142857142857143,0.9285714285714286,0.0004
729,0.5933818072080612,2.3697237968444824,0.8076923076923077,0.9423076923076923,0.6428571428571429,0.7857142857142857,0.0004
730,0.6132192760705948,1.616335153579712,0.7884615384615384,0.9423076923076923,0.7857142857142857,0.8571428571428571,0.0004
731,0.4458308219909668,1.5116771459579468,0.8461538461538461,0.9807692307692307,0.7857142857142857,0.8571428571428571,0.0004
732,0.37815582752227783,1.6718271970748901,0.8269230769230769,0.9807692307692307,0.6428571428571429,0.8571428571428571,0.0004
733,0.4598499536514282,1.5497450828552246,0.8461538461538461,0.9807692307692307,0.7142857142857143,0.8571428571428571,0.0004
734,0.4295463263988495,1.7172380685806274,0.8653846153846154,0.9807692307692307,0.6428571428571429,0.8571428571428571,0.0004
735,0.30260100960731506,1.2916309833526611,0.8846153846153846,0.9807692307692307,0.7857142857142857,0.8571428571428571,0.0004
736,0.3989429771900177,1.2188987731933594,0.8653846153846154,1.0,0.8571428571428571,0.9285714285714286,0.0004
737,0.4388958066701889,1.217602252960205,0.9038461538461539,1.0,0.7857142857142857,0.9285714285714286,0.0004
738,0.3003295734524727,1.1533128023147583,0.8653846153846154,1.0,0.9285714285714286,0.8571428571428571,0.0004
739,0.334061823785305,1.0667619705200195,0.8846153846153846,0.9807692307692307,0.7857142857142857,0.8571428571428571,0.0004
740,0.5679420381784439,0.8720596432685852,0.8076923076923077,0.9423076923076923,0.9285714285714286,0.8571428571428571,0.0004
741,0.31699007749557495,1.0318313837051392,0.8653846153846154,0.9807692307692307,0.8571428571428571,0.9285714285714286,0.0004
742,0.32299111783504486,1.7904413938522339,0.8461538461538461,1.0,0.7857142857142857,0.7857142857142857,0.0004
743,0.42556336522102356,1.927323818206787,0.8269230769230769,0.9807692307692307,0.7142857142857143,0.7857142857142857,0.0004
744,0.5859262496232986,1.0687718391418457,0.9038461538461539,0.9423076923076923,0.9285714285714286,0.8571428571428571,0.0004
745,0.4929778277873993,1.6846153736114502,0.8076923076923077,0.9423076923076923,0.6428571428571429,0.8571428571428571,0.0004
746,0.2881045863032341,0.941555380821228,0.8653846153846154,1.0,0.9285714285714286,0.9285714285714286,0.0004
747,0.2871344983577728,1.4239685535430908,0.9230769230769231,0.9807692307692307,0.6428571428571429,0.8571428571428571,0.0004
748,0.44584308564662933,1.894933819770813,0.8269230769230769,0.9423076923076923,0.6428571428571429,0.8571428571428571,0.0004
749,0.2833026796579361,1.3422045707702637,0.9038461538461539,1.0,0.8571428571428571,0.8571428571428571,0.0004
750,0.5046975016593933,1.1765000820159912,0.8269230769230769,0.9615384615384616,0.9285714285714286,0.9285714285714286,0.0004
751,0.6892282664775848,1.6561163663864136,0.7692307692307693,0.9230769230769231,0.7142857142857143,0.7857142857142857,0.0004
752,0.37494662404060364,1.9118506908416748,0.8653846153846154,0.9807692307692307,0.6428571428571429,0.7857142857142857,0.0004
753,0.3798905611038208,1.4866467714309692,0.8461538461538461,0.9807692307692307,0.7857142857142857,0.7857142857142857,0.0004
754,0.7375089526176453,1.2199918031692505,0.7884615384615384,0.9615384615384616,0.7857142857142857,0.9285714285714286,0.0004
755,0.4260863959789276,1.1331918239593506,0.9230769230769231,0.9615384615384616,0.7142857142857143,0.8571428571428571,0.0004
756,0.3590319752693176,1.1028395891189575,0.8653846153846154,1.0,0.8571428571428571,0.9285714285714286,0.0004
757,0.48394228518009186,1.77594792842865,0.8653846153846154,0.9807692307692307,0.7857142857142857,0.7857142857142857,0.0004
758,0.43167344480752945,1.3915066719055176,0.8461538461538461,0.9615384615384616,0.7857142857142857,0.8571428571428571,0.0004
759,0.4696347713470459,1.4482158422470093,0.8461538461538461,0.9615384615384616,0.7857142857142857,0.9285714285714286,0.0004
760,0.37901994585990906,1.4944703578948975,0.9038461538461539,0.9615384615384616,0.7857142857142857,0.8571428571428571,0.0004
761,0.2489839270710945,1.756705403327942,0.9038461538461539,1.0,0.6428571428571429,0.9285714285714286,0.0004
762,0.37474001199007034,1.0787804126739502,0.8653846153846154,0.9807692307692307,0.8571428571428571,0.8571428571428571,0.0004
763,0.45581361651420593,1.5557326078414917,0.8269230769230769,0.9807692307692307,0.6428571428571429,0.7857142857142857,0.0004
764,0.414823055267334,1.0262337923049927,0.8653846153846154,0.9615384615384616,0.9285714285714286,0.9285714285714286,0.0004
765,0.3697221204638481,2.037879228591919,0.8653846153846154,0.9807692307692307,0.6428571428571429,0.7857142857142857,0.0004
766,0.5192136168479919,1.5957887172698975,0.8269230769230769,0.9807692307692307,0.7857142857142857,0.8571428571428571,0.0004
767,0.8304080367088318,1.5641453266143799,0.7115384615384616,0.9230769230769231,0.6428571428571429,0.7857142857142857,0.0004
768,0.6304331570863724,1.419041395187378,0.8461538461538461,0.9807692307692307,0.7142857142857143,0.8571428571428571,0.0004
769,0.3222046494483948,1.4940288066864014,0.9038461538461539,1.0,0.7857142857142857,0.8571428571428571,0.0004
770,0.33735838532447815,1.0053128004074097,0.9038461538461539,0.9807692307692307,0.9285714285714286,0.9285714285714286,0.0004
771,0.3972197324037552,1.8932887315750122,0.8653846153846154,0.9807692307692307,0.6428571428571429,0.8571428571428571,0.0004
772,0.45051470398902893,0.8765235543251038,0.8461538461538461,0.9807692307692307,0.9285714285714286,0.9285714285714286,0.0004
773,0.3938630074262619,1.2708168029785156,0.8269230769230769,0.9807692307692307,0.7142857142857143,0.8571428571428571,0.0004
774,0.4096684902906418,1.3228700160980225,0.8846153846153846,1.0,0.8571428571428571,0.9285714285714286,0.0004
775,0.29786647856235504,1.5087625980377197,0.9423076923076923,0.9807692307692307,0.7142857142857143,0.8571428571428571,0.0004
776,0.4686972498893738,1.5799560546875,0.8269230769230769,0.9615384615384616,0.7857142857142857,0.7857142857142857,0.0004
777,0.34157977998256683,1.6458748579025269,0.8653846153846154,1.0,0.5714285714285714,0.7857142857142857,0.0004
778,0.48238033056259155,1.345959186553955,0.8846153846153846,0.9807692307692307,0.8571428571428571,0.9285714285714286,0.0004
779,0.46390679478645325,1.366437315940857,0.8653846153846154,0.9615384615384616,0.7142857142857143,0.8571428571428571,0.0004
780,0.29597076773643494,0.9191642999649048,0.9038461538461539,1.0,0.9285714285714286,0.9285714285714286,0.0004
781,0.3590196371078491,1.4699435234069824,0.8653846153846154,1.0,0.7857142857142857,0.8571428571428571,0.0004
782,0.3236173540353775,0.8094825744628906,0.9230769230769231,1.0,1.0,0.9285714285714286,0.0004
783,0.32780468463897705,1.0793834924697876,0.8846153846153846,0.9807692307692307,0.7142857142857143,0.9285714285714286,0.0004
784,0.5810374021530151,0.8369467258453369,0.8461538461538461,0.9807692307692307,0.9285714285714286,0.9285714285714286,0.0004
785,0.27391742169857025,1.9318368434906006,0.9230769230769231,0.9807692307692307,0.8571428571428571,0.8571428571428571,0.0004
786,0.658441036939621,2.181262731552124,0.8269230769230769,0.9230769230769231,0.5714285714285714,0.7857142857142857,0.0004
787,0.40708255767822266,1.5274373292922974,0.9038461538461539,0.9615384615384616,0.7142857142857143,0.9285714285714286,0.0004
788,0.2842109501361847,1.3063864707946777,0.8846153846153846,1.0,0.7857142857142857,0.8571428571428571,0.0004
789,0.5283323228359222,1.1978275775909424,0.8846153846153846,0.9615384615384616,0.8571428571428571,0.9285714285714286,0.0004
790,0.33852267265319824,2.411693811416626,0.8846153846153846,1.0,0.5714285714285714,0.7857142857142857,0.0004
791,0.4078873097896576,0.9308156967163086,0.8653846153846154,1.0,0.9285714285714286,0.8571428571428571,0.0004
792,0.43283145129680634,1.024158239364624,0.8461538461538461,0.9615384615384616,0.7857142857142857,0.9285714285714286,0.0004
793,0.2731092572212219,1.463439702987671,0.9038461538461539,0.9807692307692307,0.7857142857142857,0.9285714285714286,0.0004
794,0.522133857011795,1.3744758367538452,0.8076923076923077,0.9615384615384616,0.7142857142857143,0.8571428571428571,0.0004
795,0.5734047591686249,0.8966448307037354,0.8076923076923077,0.9615384615384616,0.7857142857142857,0.9285714285714286,0.0004
796,0.4486309885978699,1.3110122680664062,0.9038461538461539,0.9807692307692307,0.7857142857142857,0.8571428571428571,0.0004
797,0.39484262466430664,1.2108180522918701,0.8461538461538461,0.9807692307692307,0.7142857142857143,0.9285714285714286,0.0004
798,0.43080419301986694,1.57627534866333,0.8653846153846154,0.9615384615384616,0.6428571428571429,0.7857142857142857,0.0004
799,0.4762289524078369,1.834242582321167,0.8076923076923077,0.9807692307692307,0.7142857142857143,0.8571428571428571,0.0004
800,0.38829363882541656,1.7134058475494385,0.9038461538461539,0.9615384615384616,0.7857142857142857,0.8571428571428571,0.0004
801,0.5257406979799271,1.7111101150512695,0.8269230769230769,0.9807692307692307,0.7142857142857143,0.9285714285714286,0.0004
802,0.44161340594291687,1.988633394241333,0.8653846153846154,1.0,0.7142857142857143,0.7857142857142857,0.0004
803,0.51739102602005,1.9570748805999756,0.8461538461538461,0.9807692307692307,0.6428571428571429,0.8571428571428571,0.0004
804,0.42223644256591797,1.3941081762313843,0.8076923076923077,1.0,0.7857142857142857,0.8571428571428571,0.0004
805,0.61735999584198,1.7086892127990723,0.8269230769230769,0.9230769230769231,0.6428571428571429,0.8571428571428571,0.0004
806,0.39270052313804626,2.562915802001953,0.8076923076923077,0.9807692307692307,0.6428571428571429,0.7142857142857143,0.0004
807,0.2860542833805084,1.0139771699905396,0.8653846153846154,0.9807692307692307,0.9285714285714286,0.9285714285714286,0.0004
808,0.4965856671333313,0.9938077926635742,0.7884615384615384,0.9615384615384616,0.8571428571428571,0.9285714285714286,0.0004
809,0.42821332812309265,1.026590347290039,0.8653846153846154,0.9423076923076923,0.8571428571428571,0.8571428571428571,0.0004
810,0.43411414325237274,1.526505470275879,0.8653846153846154,1.0,0.9285714285714286,0.8571428571428571,0.0004
811,0.2957792431116104,1.5720449686050415,0.9038461538461539,1.0,0.7142857142857143,0.8571428571428571,0.0004
812,0.7439476847648621,1.3659878969192505,0.8076923076923077,0.9615384615384616,0.7142857142857143,0.8571428571428571,0.0004
813,0.4614925757050514,1.3366775512695312,0.8846153846153846,0.9807692307692307,0.7142857142857143,0.7857142857142857,0.0004
814,0.3409242630004883,1.2102270126342773,0.9038461538461539,0.9807692307692307,0.8571428571428571,0.9285714285714286,0.0004
815,0.23849641531705856,1.2344372272491455,0.9230769230769231,0.9807692307692307,0.8571428571428571,0.9285714285714286,0.0004
816,0.49010802805423737,1.2695717811584473,0.8269230769230769,0.9615384615384616,0.7857142857142857,0.8571428571428571,0.0004
817,0.7755984961986542,1.971226692199707,0.7692307692307693,0.9423076923076923,0.7142857142857143,0.8571428571428571,0.0004
818,0.45417509973049164,1.430585503578186,0.8653846153846154,0.9807692307692307,0.7142857142857143,0.9285714285714286,0.0004
819,0.5558247715234756,1.5293583869934082,0.8269230769230769,0.9615384615384616,0.7857142857142857,0.8571428571428571,0.0004
820,0.5763731300830841,1.0924174785614014,0.7884615384615384,0.9615384615384616,0.7857142857142857,0.9285714285714286,0.0004
821,0.436437651515007,1.3211848735809326,0.8653846153846154,0.9807692307692307,0.9285714285714286,0.9285714285714286,0.0004
822,0.39575953781604767,1.2431888580322266,0.8653846153846154,1.0,0.7857142857142857,0.8571428571428571,0.0004
823,0.6475444734096527,1.7480140924453735,0.7884615384615384,0.9423076923076923,0.7142857142857143,0.7857142857142857,0.0004
824,0.6524557769298553,1.4911646842956543,0.8076923076923077,0.9423076923076923,0.7857142857142857,0.8571428571428571,0.0004
825,0.3983946740627289,0.8839680552482605,0.8846153846153846,0.9807692307692307,1.0,0.9285714285714286,0.0004
826,0.27238451689481735,1.4705476760864258,0.9615384615384616,0.9807692307692307,0.7857142857142857,0.7857142857142857,0.0004
827,0.47165830433368683,1.2492706775665283,0.8461538461538461,0.9615384615384616,0.8571428571428571,0.9285714285714286,0.0004
828,0.4267920255661011,1.248853087425232,0.8461538461538461,0.9807692307692307,0.8571428571428571,0.8571428571428571,0.0004
829,0.4100240170955658,1.2102055549621582,0.9230769230769231,0.9615384615384616,0.7857142857142857,0.8571428571428571,0.0004
830,0.36982205510139465,1.0809931755065918,0.8846153846153846,0.9807692307692307,0.7857142857142857,0.8571428571428571,0.0004
831,0.44846583902835846,1.3590977191925049,0.9038461538461539,0.9807692307692307,0.7857142857142857,0.9285714285714286,0.0004
832,0.36706362664699554,1.4705865383148193,0.8846153846153846,0.9807692307692307,0.5714285714285714,0.7857142857142857,0.0004
833,0.23770111054182053,1.214815378189087,0.9423076923076923,1.0,0.8571428571428571,0.9285714285714286,0.0004
834,0.4218983054161072,1.1078035831451416,0.9038461538461539,1.0,0.8571428571428571,0.7857142857142857,0.0004
835,0.7182886451482773,1.5335533618927002,0.8461538461538461,0.9230769230769231,0.8571428571428571,0.7857142857142857,0.0004
836,0.4487864524126053,2.2367541790008545,0.9038461538461539,0.9807692307692307,0.5714285714285714,0.8571428571428571,0.0004
837,0.382595494389534,2.106678009033203,0.8269230769230769,0.9807692307692307,0.7142857142857143,0.7857142857142857,0.0004
838,0.5879560858011246,1.7569875717163086,0.8461538461538461,0.9615384615384616,0.7857142857142857,0.8571428571428571,0.0004
839,0.46406541764736176,1.1038901805877686,0.8653846153846154,0.9423076923076923,0.7142857142857143,0.9285714285714286,0.0004
840,0.2826799154281616,1.6158862113952637,0.8653846153846154,0.9807692307692307,0.8571428571428571,0.8571428571428571,0.0004
841,0.31620214879512787,1.6439542770385742,0.9230769230769231,0.9423076923076923,0.7857142857142857,0.9285714285714286,0.0004
842,0.522109180688858,1.4500353336334229,0.8076923076923077,0.9807692307692307,0.7142857142857143,0.8571428571428571,0.0004
843,0.4110856354236603,1.5041826963424683,0.8653846153846154,0.9807692307692307,0.7857142857142857,0.9285714285714286,0.0004
844,0.41558070480823517,2.2474749088287354,0.8653846153846154,1.0,0.7142857142857143,0.7857142857142857,0.0004
845,0.5243428349494934,1.4995688199996948,0.8461538461538461,0.9807692307692307,0.7857142857142857,0.8571428571428571,0.0004
846,0.25482212007045746,1.1985771656036377,0.9038461538461539,1.0,0.8571428571428571,0.9285714285714286,0.0004
847,0.3704800009727478,1.4482728242874146,0.9230769230769231,0.9807692307692307,0.8571428571428571,0.8571428571428571,0.0004
848,0.4473995417356491,1.4396326541900635,0.8653846153846154,0.9807692307692307,0.7857142857142857,0.8571428571428571,0.0004
849,0.4874369204044342,1.1151812076568604,0.8846153846153846,0.9615384615384616,0.8571428571428571,0.8571428571428571,0.0004
850,0.3896377980709076,1.1558290719985962,0.8461538461538461,0.9807692307692307,0.8571428571428571,0.9285714285714286,0.0004
851,0.5529526472091675,1.938080072402954,0.7884615384615384,0.9615384615384616,0.7142857142857143,0.8571428571428571,0.0004
852,0.41449353098869324,1.1562777757644653,0.8461538461538461,1.0,0.8571428571428571,0.9285714285714286,0.0004
853,0.641332745552063,1.8185635805130005,0.75,0.9807692307692307,0.7142857142857143,0.8571428571428571,0.0004
854,0.3908562511205673,2.6770801544189453,0.9230769230769231,0.9615384615384616,0.5714285714285714,0.7857142857142857,0.0004
855,0.26904504746198654,1.8133571147918701,0.9230769230769231,1.0,0.7857142857142857,0.8571428571428571,0.0004
856,0.6428205668926239,1.2809014320373535,0.8269230769230769,0.9615384615384616,0.8571428571428571,0.8571428571428571,0.0004
857,0.359081968665123,1.7687760591506958,0.8846153846153846,0.9807692307692307,0.7857142857142857,0.8571428571428571,0.0004
858,0.5212676227092743,2.135469675064087,0.8461538461538461,0.9423076923076923,0.5714285714285714,0.8571428571428571,0.0004
859,0.2287687137722969,1.3361990451812744,0.9230769230769231,1.0,0.7857142857142857,0.8571428571428571,0.0004
860,0.393082857131958,1.3570327758789062,0.8653846153846154,1.0,0.7142857142857143,0.8571428571428571,0.0004
861,0.3365488350391388,1.468982458114624,0.8846153846153846,1.0,0.8571428571428571,0.9285714285714286,0.0004
862,0.5909805446863174,0.9420450925827026,0.8653846153846154,0.9423076923076923,0.9285714285714286,0.9285714285714286,0.0004
863,0.3444192633032799,1.2194716930389404,0.9038461538461539,0.9807692307692307,0.8571428571428571,0.9285714285714286,0.0004
864,0.44289299845695496,1.4736316204071045,0.8461538461538461,0.9807692307692307,0.7142857142857143,0.9285714285714286,0.0004
865,0.5670976042747498,1.5926904678344727,0.8461538461538461,0.9615384615384616,0.7142857142857143,0.9285714285714286,0.0004
866,0.37691569328308105,1.0210542678833008,0.8653846153846154,0.9807692307692307,0.9285714285714286,0.9285714285714286,0.0004
867,0.5847556293010712,1.5249972343444824,0.8076923076923077,0.9615384615384616,0.7142857142857143,0.8571428571428571,0.0004
868,0.41344693303108215,1.410251259803772,0.8653846153846154,0.9807692307692307,0.6428571428571429,0.8571428571428571,0.0004
869,0.5068509131669998,1.0665203332901,0.9038461538461539,0.9807692307692307,0.8571428571428571,0.9285714285714286,0.0004
870,0.28772568702697754,1.646775484085083,0.8461538461538461,1.0,0.5714285714285714,0.8571428571428571,0.0004
871,0.5737505853176117,1.5070974826812744,0.8461538461538461,0.9615384615384616,0.8571428571428571,0.7857142857142857,0.0004
872,0.30484867095947266,1.1151607036590576,0.9230769230769231,0.9615384615384616,0.8571428571428571,0.9285714285714286,0.0004
873,0.6112028956413269,1.0350956916809082,0.8269230769230769,0.9615384615384616,0.7857142857142857,0.9285714285714286,0.0004
874,0.7054052948951721,1.432478904724121,0.8653846153846154,0.9423076923076923,0.8571428571428571,0.8571428571428571,0.0004
875,0.6938425898551941,1.861253023147583,0.8076923076923077,0.9423076923076923,0.6428571428571429,0.7857142857142857,0.0004
876,0.4017513692378998,1.3353462219238281,0.8269230769230769,0.9807692307692307,0.7142857142857143,0.9285714285714286,0.0004
877,0.3763430714607239,1.5584254264831543,0.8846153846153846,0.9807692307692307,0.7142857142857143,0.8571428571428571,0.0004
878,0.5775008797645569,1.715183138847351,0.8076923076923077,0.9423076923076923,0.7857142857142857,0.8571428571428571,0.0004
879,0.5028801709413528,1.4376235008239746,0.8461538461538461,0.9230769230769231,0.6428571428571429,0.9285714285714286,0.0004
880,0.3152588978409767,2.0743589401245117,0.9230769230769231,0.9807692307692307,0.7142857142857143,0.8571428571428571,0.0004
881,0.5009137690067291,1.3918025493621826,0.9038461538461539,0.9423076923076923,0.7857142857142857,0.8571428571428571,0.0004
882,0.5838912278413773,2.025097131729126,0.8461538461538461,1.0,0.5,0.9285714285714286,0.0004
883,0.5652514398097992,1.5397632122039795,0.7884615384615384,0.9807692307692307,0.7142857142857143,0.8571428571428571,0.0004
884,0.6228906512260437,1.5685564279556274,0.8269230769230769,0.9423076923076923,0.6428571428571429,0.9285714285714286,0.0004
885,0.40138712525367737,1.657842993736267,0.9038461538461539,0.9807692307692307,0.7857142857142857,0.9285714285714286,0.0004
886,0.5378531962633133,1.6862627267837524,0.8269230769230769,0.9615384615384616,0.7142857142857143,0.8571428571428571,0.0004
887,0.4081999212503433,0.8983708620071411,0.8461538461538461,0.9807692307692307,0.9285714285714286,0.9285714285714286,0.0004
888,0.32453007996082306,1.0319252014160156,0.8653846153846154,0.9807692307692307,0.7857142857142857,0.8571428571428571,0.0004
889,0.5792397260665894,1.7769874334335327,0.8269230769230769,0.9230769230769231,0.7142857142857143,0.8571428571428571,0.0004
890,0.31074167788028717,2.0022077560424805,0.9038461538461539,1.0,0.7142857142857143,0.8571428571428571,0.0004
891,0.5680719763040543,1.854633092880249,0.7884615384615384,0.9807692307692307,0.5714285714285714,0.8571428571428571,0.0004
892,0.5966354310512543,1.0797208547592163,0.8269230769230769,0.9615384615384616,0.9285714285714286,0.9285714285714286,0.0004
893,0.4271690994501114,2.1446542739868164,0.8076923076923077,0.9615384615384616,0.6428571428571429,0.7857142857142857,0.0004
894,0.5325583517551422,1.334761142730713,0.8653846153846154,1.0,0.7857142857142857,0.9285714285714286,0.0004
895,0.6239146888256073,1.5624669790267944,0.7884615384615384,1.0,0.7142857142857143,0.9285714285714286,0.0004
896,0.48073773086071014,1.60238516330719,0.8076923076923077,0.9615384615384616,0.8571428571428571,0.8571428571428571,0.0004
897,0.5945868492126465,1.390220046043396,0.8269230769230769,0.9807692307692307,0.5714285714285714,0.9285714285714286,0.0004
898,0.2904109060764313,1.6192853450775146,0.9423076923076923,0.9807692307692307,0.7142857142857143,0.8571428571428571,0.0004
899,0.562794491648674,2.1909189224243164,0.9038461538461539,0.9423076923076923,0.5714285714285714,0.7857142857142857,0.0004
900,0.42724592983722687,1.1091068983078003,0.8653846153846154,0.9807692307692307,0.9285714285714286,0.9285714285714286,0.0004
901,0.4680597335100174,2.0070695877075195,0.8461538461538461,0.9615384615384616,0.6428571428571429,0.8571428571428571,0.0004
902,0.4313599765300751,1.2415001392364502,0.8846153846153846,1.0,0.8571428571428571,0.8571428571428571,0.0004
903,0.5035961717367172,1.5065741539001465,0.8653846153846154,0.9807692307692307,0.7142857142857143,0.9285714285714286,0.0004
904,0.5708109885454178,1.4990425109863281,0.9038461538461539,0.9230769230769231,0.7857142857142857,0.9285714285714286,0.0004
905,0.5526379942893982,1.3225955963134766,0.8076923076923077,0.9423076923076923,0.8571428571428571,0.9285714285714286,0.0004
906,0.361227810382843,1.2111952304840088,0.8653846153846154,1.0,0.7857142857142857,0.9285714285714286,0.0004
907,0.4786938428878784,1.5965371131896973,0.8076923076923077,0.9423076923076923,0.6428571428571429,0.7857142857142857,0.0004
908,0.4223654866218567,1.3378233909606934,0.8846153846153846,0.9615384615384616,0.8571428571428571,0.8571428571428571,0.0004
909,0.3803808242082596,1.0579609870910645,0.9230769230769231,0.9423076923076923,0.9285714285714286,0.9285714285714286,0.0004
910,0.6890513300895691,1.6698782444000244,0.75,0.9615384615384616,0.8571428571428571,0.8571428571428571,0.0004
911,0.3292373940348625,1.5735480785369873,0.8846153846153846,0.9807692307692307,0.7857142857142857,0.8571428571428571,0.0004
912,0.3566899746656418,2.0380616188049316,0.9038461538461539,0.9807692307692307,0.7142857142857143,0.7857142857142857,0.0004
913,0.4052519351243973,1.2447214126586914,0.8846153846153846,1.0,0.7857142857142857,0.8571428571428571,0.0004
914,0.33126384019851685,0.9847303628921509,0.9038461538461539,1.0,0.9285714285714286,0.9285714285714286,0.0004
915,0.5840522348880768,1.1982606649398804,0.8461538461538461,0.9423076923076923,0.8571428571428571,0.7857142857142857,0.0004
916,0.5503852665424347,2.0408143997192383,0.8461538461538461,0.9807692307692307,0.6428571428571429,0.7857142857142857,0.0004
917,0.8490434288978577,1.6075584888458252,0.6923076923076923,0.9423076923076923,0.7142857142857143,0.7857142857142857,0.0004
918,0.5047718435525894,1.0643622875213623,0.8461538461538461,0.9615384615384616,0.9285714285714286,0.9285714285714286,0.0004
919,0.266171358525753,1.7705349922180176,0.9230769230769231,1.0,0.6428571428571429,0.8571428571428571,0.0004
920,0.464180663228035,1.6870999336242676,0.8653846153846154,0.9615384615384616,0.5714285714285714,0.9285714285714286,0.0004
921,0.3093257024884224,1.3029553890228271,0.8846153846153846,0.9807692307692307,0.7857142857142857,0.9285714285714286,0.0004
922,0.2927408292889595,1.6257901191711426,0.9038461538461539,1.0,0.7142857142857143,0.9285714285714286,0.0004
923,0.33446796238422394,2.0538995265960693,0.9230769230769231,1.0,0.5714285714285714,0.8571428571428571,0.0004
924,0.29499509930610657,1.2947394847869873,0.9423076923076923,0.9807692307692307,0.8571428571428571,0.9285714285714286,0.0004
925,0.23330140113830566,1.3257496356964111,0.9423076923076923,1.0,0.6428571428571429,0.9285714285714286,0.0004
926,0.5094015896320343,1.856819748878479,0.8269230769230769,0.9807692307692307,0.5714285714285714,0.7857142857142857,0.0004
927,0.5910094380378723,1.9896690845489502,0.8653846153846154,0.9423076923076923,0.7142857142857143,0.8571428571428571,0.0004
928,0.3315366208553314,2.1511287689208984,0.9038461538461539,0.9615384615384616,0.5,0.7142857142857143,0.0004
929,0.2716892138123512,1.0347025394439697,0.9038461538461539,1.0,0.8571428571428571,0.8571428571428571,0.0004
930,0.42002536356449127,1.2301160097122192,0.8846153846153846,0.9615384615384616,0.7857142857142857,0.9285714285714286,0.0004
931,0.2556518316268921,1.5595513582229614,0.8846153846153846,1.0,0.8571428571428571,0.8571428571428571,0.0004
932,0.30670811980962753,1.4898505210876465,0.9230769230769231,1.0,0.6428571428571429,0.8571428571428571,0.0004
933,0.325173981487751,1.0186944007873535,0.8846153846153846,1.0,0.7857142857142857,0.9285714285714286,0.0004
934,0.25936970114707947,1.6657066345214844,0.9038461538461539,1.0,0.7857142857142857,0.8571428571428571,0.0004
935,0.44056251645088196,1.4120354652404785,0.8846153846153846,0.9615384615384616,0.7857142857142857,0.9285714285714286,0.0004
936,0.3714132159948349,1.534437656402588,0.8461538461538461,0.9807692307692307,0.7142857142857143,0.9285714285714286,0.0004
937,0.6330744624137878,1.9346104860305786,0.8076923076923077,0.9807692307692307,0.7857142857142857,0.7857142857142857,0.0004
938,0.24181165546178818,1.1689839363098145,0.9230769230769231,1.0,0.7142857142857143,0.9285714285714286,0.0004
939,0.34832917153835297,1.8588666915893555,0.8076923076923077,1.0,0.7142857142857143,0.8571428571428571,0.0004
940,0.44745418429374695,1.3137502670288086,0.8653846153846154,1.0,0.7857142857142857,0.8571428571428571,0.0004
941,0.4078957438468933,2.054824113845825,0.8846153846153846,0.9807692307692307,0.6428571428571429,0.8571428571428571,0.0004
942,0.6409092545509338,1.9323151111602783,0.8269230769230769,0.9423076923076923,0.7857142857142857,0.8571428571428571,0.0004
943,0.32805031538009644,1.3498194217681885,0.9038461538461539,0.9807692307692307,0.7857142857142857,0.9285714285714286,0.0004
944,0.27363353967666626,1.2708280086517334,0.8653846153846154,1.0,0.8571428571428571,0.9285714285714286,0.0004
945,0.487288698554039,2.082095146179199,0.8653846153846154,0.9615384615384616,0.6428571428571429,0.8571428571428571,0.0004
946,0.6842453479766846,1.8053061962127686,0.75,0.9038461538461539,0.7142857142857143,0.8571428571428571,0.0004
947,0.5971977710723877,2.0252528190612793,0.7884615384615384,0.9230769230769231,0.7142857142857143,0.7857142857142857,0.0004
948,0.32567891478538513,2.1445372104644775,0.9038461538461539,0.9615384615384616,0.6428571428571429,0.7142857142857143,0.0004
949,0.16414844244718552,1.296154499053955,0.9423076923076923,0.9807692307692307,0.7142857142857143,0.9285714285714286,0.0004
950,0.25190839171409607,2.210968017578125,0.9230769230769231,1.0,0.7857142857142857,0.8571428571428571,0.0004
951,0.3090917319059372,1.628206491470337,0.8846153846153846,0.9615384615384616,0.7857142857142857,0.8571428571428571,0.0004
952,0.6995895355939865,2.2094807624816895,0.8076923076923077,0.9423076923076923,0.6428571428571429,0.8571428571428571,0.0004
953,0.4833608418703079,0.9853396415710449,0.8653846153846154,0.9615384615384616,0.9285714285714286,0.9285714285714286,0.0004
954,0.23292852938175201,0.9281915426254272,0.9230769230769231,1.0,0.7857142857142857,0.9285714285714286,0.0004
955,0.2948550879955292,0.9636021256446838,0.8846153846153846,0.9615384615384616,0.9285714285714286,0.8571428571428571,0.0004
956,0.4626168757677078,1.9193682670593262,0.75,0.9615384615384616,0.7142857142857143,0.8571428571428571,0.0004
957,0.5845943093299866,2.249181032180786,0.8076923076923077,0.9615384615384616,0.5714285714285714,0.7142857142857143,0.0004
958,0.5542308539152145,1.6381937265396118,0.8269230769230769,0.9423076923076923,0.7142857142857143,0.9285714285714286,0.0004
959,0.4864720106124878,1.8944854736328125,0.8846153846153846,0.9807692307692307,0.7142857142857143,0.7857142857142857,0.0004
960,0.39743132144212723,1.2327935695648193,0.8846153846153846,0.9615384615384616,0.7142857142857143,0.9285714285714286,0.0004
961,0.5574773102998734,1.6726493835449219,0.7692307692307693,0.9615384615384616,0.5714285714285714,0.7857142857142857,0.0004
962,0.3890461027622223,1.5399396419525146,0.8846153846153846,1.0,0.9285714285714286,0.8571428571428571,0.0004
963,0.49719755351543427,1.7793927192687988,0.75,0.9807692307692307,0.7142857142857143,0.8571428571428571,0.0004
964,0.35544033348560333,1.8353006839752197,0.8461538461538461,1.0,0.6428571428571429,0.8571428571428571,0.0004
965,0.5010380446910858,1.5748074054718018,0.8269230769230769,0.9807692307692307,0.7142857142857143,0.7857142857142857,0.0004
966,0.280283585190773,1.5570094585418701,0.9230769230769231,1.0,0.7857142857142857,0.8571428571428571,0.0004
967,0.3238617926836014,1.1414942741394043,0.9230769230769231,0.9807692307692307,0.7142857142857143,0.8571428571428571,0.0004
968,0.48024433851242065,1.2189147472381592,0.8846153846153846,0.9807692307692307,0.8571428571428571,0.9285714285714286,0.0004
969,0.3852483704686165,2.2661306858062744,0.9038461538461539,0.9807692307692307,0.7142857142857143,0.7857142857142857,0.0004
970,0.574277251958847,1.9968228340148926,0.7692307692307693,1.0,0.7142857142857143,0.8571428571428571,0.0004
971,0.3395291715860367,0.8646636009216309,0.8846153846153846,1.0,0.8571428571428571,0.9285714285714286,0.0004
972,0.49845533072948456,1.0585722923278809,0.8461538461538461,0.9615384615384616,0.9285714285714286,0.9285714285714286,0.0004
973,0.2816247195005417,2.1967146396636963,0.8846153846153846,0.9807692307692307,0.5,0.7857142857142857,0.0004
974,0.45211489498615265,1.4994853734970093,0.8461538461538461,0.9423076923076923,0.7857142857142857,0.9285714285714286,0.0004
975,0.31049127131700516,0.9936182498931885,0.9230769230769231,0.9807692307692307,0.8571428571428571,0.8571428571428571,0.0004
976,0.45473726093769073,2.3755297660827637,0.7884615384615384,0.9807692307692307,0.6428571428571429,0.7857142857142857,0.0004
977,0.2763533294200897,2.2683768272399902,0.8846153846153846,1.0,0.5714285714285714,0.7142857142857143,0.0004
978,0.5057480037212372,1.282818078994751,0.8269230769230769,0.9423076923076923,0.7142857142857143,0.9285714285714286,0.0004
979,0.4169572442770004,0.9068207740783691,0.8076923076923077,0.9807692307692307,0.8571428571428571,0.9285714285714286,0.0004
980,0.5647748708724976,2.022209882736206,0.7884615384615384,0.9615384615384616,0.7142857142857143,0.7857142857142857,0.0004
981,0.32765062153339386,2.319169521331787,0.8846153846153846,0.9807692307692307,0.5,0.8571428571428571,0.0004
982,0.4992039203643799,1.8093113899230957,0.75,0.9807692307692307,0.5,0.7857142857142857,0.0004
983,0.45672009885311127,1.644311547279358,0.8076923076923077,1.0,0.7857142857142857,0.9285714285714286,0.0004
984,0.5082641839981079,1.4026588201522827,0.8461538461538461,0.9807692307692307,0.7857142857142857,0.8571428571428571,0.0004
985,0.39932917803525925,0.9790687561035156,0.8653846153846154,0.9615384615384616,0.8571428571428571,0.8571428571428571,0.0004
986,0.4886596277356148,0.9891964197158813,0.8269230769230769,0.9807692307692307,0.9285714285714286,0.9285714285714286,0.0004
987,0.4910934567451477,1.4869039058685303,0.8269230769230769,0.9807692307692307,0.7142857142857143,0.9285714285714286,0.0004
988,0.5970201194286346,2.3235812187194824,0.7884615384615384,0.9615384615384616,0.5714285714285714,0.7142857142857143,0.0004
989,0.3940107971429825,2.0023398399353027,0.8846153846153846,0.9807692307692307,0.6428571428571429,0.8571428571428571,0.0004
990,0.35160668939352036,1.238110065460205,0.8653846153846154,0.9615384615384616,0.8571428571428571,0.9285714285714286,0.0004
991,0.38841353356838226,1.3858705759048462,0.9423076923076923,0.9807692307692307,0.7142857142857143,0.8571428571428571,0.0004
