epoch,train_loss,val_loss,train_acc_action,train_acc_status,val_acc_action,val_acc_status,learning_rate
1,1.833914875984192,1.6144554615020752,0.25,0.4807692307692308,0.35714285714285715,0.8571428571428571,0.0004
2,1.5946786403656006,1.6320515871047974,0.4423076923076923,0.8269230769230769,0.35714285714285715,0.8571428571428571,0.0004
3,1.5454230904579163,1.5231263637542725,0.4230769230769231,0.8269230769230769,0.21428571428571427,0.8571428571428571,0.0004
4,1.5588924288749695,1.4877774715423584,0.5,0.8269230769230769,0.42857142857142855,0.8571428571428571,0.0004
5,1.4577677249908447,1.5004671812057495,0.5961538461538461,0.8269230769230769,0.42857142857142855,0.8571428571428571,0.0004
6,1.5036677122116089,1.4741719961166382,0.4423076923076923,0.8269230769230769,0.7142857142857143,0.8571428571428571,0.0004
7,1.4874891638755798,1.4752038717269897,0.5961538461538461,0.8269230769230769,0.5,0.8571428571428571,0.0004
8,1.4730276465415955,1.4939124584197998,0.4807692307692308,0.8269230769230769,0.35714285714285715,0.8571428571428571,0.0004
9,1.480313241481781,1.550154685974121,0.5192307692307693,0.8269230769230769,0.2857142857142857,0.8571428571428571,0.0004
10,1.3820762634277344,1.4303443431854248,0.5576923076923077,0.8269230769230769,0.42857142857142855,0.8571428571428571,0.0004
11,1.3971137404441833,1.3833541870117188,0.5961538461538461,0.8269230769230769,0.42857142857142855,0.8571428571428571,0.0004
12,1.4030991792678833,1.3427555561065674,0.5769230769230769,0.8269230769230769,0.5714285714285714,0.8571428571428571,0.0004
13,1.430399239063263,1.4045038223266602,0.4807692307692308,0.8269230769230769,0.42857142857142855,0.8571428571428571,0.0004
14,1.4937994480133057,1.5939372777938843,0.5,0.8269230769230769,0.35714285714285715,0.8571428571428571,0.0004
15,1.333065688610077,1.4416022300720215,0.5384615384615384,0.8269230769230769,0.42857142857142855,0.8571428571428571,0.0004
16,1.4028345346450806,1.3850843906402588,0.5576923076923077,0.8269230769230769,0.5714285714285714,0.8571428571428571,0.0004
17,1.4367941617965698,1.3623833656311035,0.5384615384615384,0.8269230769230769,0.5714285714285714,0.8571428571428571,0.0004
18,1.2955607771873474,1.3918752670288086,0.6538461538461539,0.8269230769230769,0.5714285714285714,0.8571428571428571,0.0004
19,1.3146933317184448,1.381142258644104,0.6538461538461539,0.8269230769230769,0.5,0.8571428571428571,0.0004
20,1.3111693263053894,1.3767075538635254,0.5769230769230769,0.8269230769230769,0.42857142857142855,0.8571428571428571,0.0004
21,1.2815462946891785,1.2174831628799438,0.5961538461538461,0.8269230769230769,0.7142857142857143,0.8571428571428571,0.0004
22,1.1848036646842957,1.2460355758666992,0.6538461538461539,0.8269230769230769,0.7142857142857143,0.8571428571428571,0.0004
23,1.2942025661468506,1.4557605981826782,0.5961538461538461,0.8269230769230769,0.5714285714285714,0.8571428571428571,0.0004
24,1.1743777990341187,1.3088457584381104,0.7307692307692307,0.8269230769230769,0.7142857142857143,0.8571428571428571,0.0004
25,1.1304393410682678,1.0952129364013672,0.6153846153846154,0.8269230769230769,0.7142857142857143,0.8571428571428571,0.0004
26,1.166926085948944,1.149719476699829,0.6923076923076923,0.8269230769230769,0.6428571428571429,0.8571428571428571,0.0004
27,1.2055974006652832,0.9763308763504028,0.5961538461538461,0.8269230769230769,0.7857142857142857,0.8571428571428571,0.0004
28,1.1759622693061829,0.9929378032684326,0.7307692307692307,0.8269230769230769,0.7142857142857143,0.8571428571428571,0.0004
29,1.0262416005134583,1.0812076330184937,0.7692307692307693,0.8269230769230769,0.7142857142857143,0.8571428571428571,0.0004
30,1.1185103952884674,1.1714751720428467,0.5961538461538461,0.8269230769230769,0.5714285714285714,0.8571428571428571,0.0004
31,0.9672520756721497,1.2891379594802856,0.8076923076923077,0.8269230769230769,0.6428571428571429,0.8571428571428571,0.0004
32,0.9959611296653748,1.0142148733139038,0.7692307692307693,0.8269230769230769,0.6428571428571429,0.8571428571428571,0.0004
33,1.0679736733436584,0.8900606632232666,0.6730769230769231,0.8269230769230769,0.7857142857142857,0.8571428571428571,0.0004
34,0.9395796656608582,0.7613060474395752,0.7884615384615384,0.8269230769230769,0.8571428571428571,0.7857142857142857,0.0004
35,0.9554360210895538,1.1779474020004272,0.7307692307692307,0.8846153846153846,0.7142857142857143,0.7857142857142857,0.0004
36,1.172897458076477,1.1293888092041016,0.75,0.8653846153846154,0.5714285714285714,0.8571428571428571,0.0004
37,0.9900943040847778,1.063214898109436,0.7307692307692307,0.8653846153846154,0.6428571428571429,0.8571428571428571,0.0004
38,1.1259536445140839,0.7548775672912598,0.6923076923076923,0.8076923076923077,0.8571428571428571,0.7142857142857143,0.0004
39,0.9490846395492554,0.8403462171554565,0.7115384615384616,0.8461538461538461,0.7142857142857143,0.7857142857142857,0.0004
40,1.0199682712554932,1.0203299522399902,0.7115384615384616,0.8461538461538461,0.5714285714285714,0.8571428571428571,0.0004
41,1.0106163322925568,0.7648853063583374,0.7307692307692307,0.8461538461538461,0.8571428571428571,0.7857142857142857,0.0004
42,0.7727130055427551,1.148391604423523,0.8076923076923077,0.8653846153846154,0.6428571428571429,0.7857142857142857,0.0004
43,1.0593936741352081,0.8923256993293762,0.6730769230769231,0.8461538461538461,0.6428571428571429,0.8571428571428571,0.0004
44,0.9621811509132385,1.0566147565841675,0.6346153846153846,0.9038461538461539,0.7142857142857143,0.7142857142857143,0.0004
45,0.9223943948745728,1.3968793153762817,0.7692307692307693,0.8076923076923077,0.5714285714285714,0.8571428571428571,0.0004
46,0.9171683490276337,1.1399130821228027,0.75,0.8846153846153846,0.6428571428571429,0.6428571428571429,0.0004
47,0.89926677942276,1.3368785381317139,0.75,0.8461538461538461,0.6428571428571429,0.5,0.0004
48,0.8306279480457306,1.0129653215408325,0.7692307692307693,0.9038461538461539,0.7857142857142857,0.6428571428571429,0.0004
49,0.9404634535312653,1.3125855922698975,0.7692307692307693,0.8653846153846154,0.6428571428571429,0.8571428571428571,0.0004
50,0.8647758066654205,1.367708444595337,0.7884615384615384,0.9038461538461539,0.5714285714285714,0.7857142857142857,0.0004
51,0.9019402861595154,1.0654473304748535,0.7115384615384616,0.8846153846153846,0.5714285714285714,0.7857142857142857,0.0004
52,0.8116430640220642,1.2366993427276611,0.75,0.9230769230769231,0.5714285714285714,0.7142857142857143,0.0004
53,0.863001137971878,0.9273595809936523,0.8269230769230769,0.8653846153846154,0.8571428571428571,0.7857142857142857,0.0004
54,0.8515235483646393,0.9134265184402466,0.75,0.8461538461538461,0.7142857142857143,0.7857142857142857,0.0004
55,0.8636162877082825,0.8355098962783813,0.7692307692307693,0.8846153846153846,0.7142857142857143,0.8571428571428571,0.0004
56,1.0782909095287323,0.8647842407226562,0.8076923076923077,0.8461538461538461,0.7142857142857143,0.7857142857142857,0.0004
57,0.93930983543396,1.287899374961853,0.7307692307692307,0.8076923076923077,0.5714285714285714,0.7857142857142857,0.0004
58,0.8670288920402527,0.9091993570327759,0.7692307692307693,0.8461538461538461,0.6428571428571429,0.9285714285714286,0.0004
59,0.8271844983100891,0.7298998832702637,0.8076923076923077,0.8076923076923077,0.7857142857142857,0.7857142857142857,0.0004
60,0.7328755557537079,1.044426679611206,0.8076923076923077,0.8653846153846154,0.7857142857142857,0.7857142857142857,0.0004
61,0.7922468483448029,0.6934747099876404,0.7884615384615384,0.9038461538461539,0.8571428571428571,0.8571428571428571,0.0004
62,0.8631663620471954,1.5947837829589844,0.7115384615384616,0.8846153846153846,0.5714285714285714,0.6428571428571429,0.0004
63,0.5886739790439606,0.9355674982070923,0.8461538461538461,0.9038461538461539,0.7142857142857143,0.7142857142857143,0.0004
64,0.6447902619838715,1.193153738975525,0.8269230769230769,0.9230769230769231,0.5,0.7857142857142857,0.0004
65,0.7191199660301208,1.2112419605255127,0.75,0.8846153846153846,0.7857142857142857,0.7142857142857143,0.0004
66,0.6998391151428223,0.8825182914733887,0.7692307692307693,0.9038461538461539,0.8571428571428571,0.7142857142857143,0.0004
67,0.828156590461731,0.9554762840270996,0.7307692307692307,0.9038461538461539,0.6428571428571429,0.7857142857142857,0.0004
68,0.9412637948989868,0.5557540655136108,0.6730769230769231,0.8461538461538461,0.8571428571428571,0.8571428571428571,0.0004
69,0.8021054863929749,1.00238037109375,0.75,0.8461538461538461,0.6428571428571429,0.7857142857142857,0.0004
70,0.8576413691043854,0.9289711713790894,0.7884615384615384,0.8653846153846154,0.8571428571428571,0.8571428571428571,0.0004
71,0.7188186645507812,0.8281747102737427,0.8269230769230769,0.9038461538461539,0.6428571428571429,0.7857142857142857,0.0004
72,0.8311753273010254,1.0282964706420898,0.7692307692307693,0.9038461538461539,0.7857142857142857,0.8571428571428571,0.0004
73,0.7103853225708008,0.9342568516731262,0.75,0.9230769230769231,0.7857142857142857,0.7857142857142857,0.0004
74,0.7266327738761902,1.2218762636184692,0.8461538461538461,0.8269230769230769,0.6428571428571429,0.7857142857142857,0.0004
75,0.8210095763206482,1.0449777841567993,0.8076923076923077,0.9038461538461539,0.7857142857142857,0.7142857142857143,0.0004
76,0.9814577698707581,1.013267993927002,0.8076923076923077,0.7884615384615384,0.7857142857142857,0.7142857142857143,0.0004
77,0.7657030522823334,1.347099781036377,0.8269230769230769,0.8461538461538461,0.7142857142857143,0.7142857142857143,0.0004
78,0.841324508190155,0.7554054260253906,0.7884615384615384,0.8846153846153846,0.7857142857142857,0.7142857142857143,0.0004
79,0.7665208280086517,0.8131065368652344,0.7884615384615384,0.9230769230769231,0.7857142857142857,0.8571428571428571,0.0004
80,0.5485825538635254,1.3041877746582031,0.8653846153846154,0.9230769230769231,0.7142857142857143,0.7857142857142857,0.0004
81,0.6680247485637665,0.8762383460998535,0.7884615384615384,0.9230769230769231,0.6428571428571429,0.7857142857142857,0.0004
82,0.850128173828125,1.00138521194458,0.8076923076923077,0.9038461538461539,0.6428571428571429,0.9285714285714286,0.0004
83,0.7261363863945007,0.804579496383667,0.8846153846153846,0.8461538461538461,0.8571428571428571,0.9285714285714286,0.0004
84,0.580059826374054,0.9962162971496582,0.8846153846153846,0.8846153846153846,0.7857142857142857,0.9285714285714286,0.0004
85,0.6617193222045898,0.9159456491470337,0.8461538461538461,0.9038461538461539,0.6428571428571429,0.9285714285714286,0.0004
86,0.7769629061222076,0.818808913230896,0.8269230769230769,0.9038461538461539,0.7142857142857143,0.8571428571428571,0.0004
87,0.9513745903968811,0.9598623514175415,0.7307692307692307,0.8461538461538461,0.7857142857142857,0.7857142857142857,0.0004
88,0.7593216300010681,1.2117865085601807,0.8076923076923077,0.8653846153846154,0.6428571428571429,0.7857142857142857,0.0004
89,0.699443131685257,0.4998960494995117,0.8461538461538461,0.8653846153846154,0.9285714285714286,0.9285714285714286,0.0004
90,0.8114697337150574,0.8337347507476807,0.7307692307692307,0.9230769230769231,0.7857142857142857,0.7142857142857143,0.0004
91,0.6450665891170502,0.9752130508422852,0.8269230769230769,0.9038461538461539,0.6428571428571429,0.7857142857142857,0.0004
92,0.7444245219230652,0.8006762862205505,0.8076923076923077,0.8846153846153846,0.7857142857142857,0.7857142857142857,0.0004
93,0.6089951992034912,1.0200390815734863,0.8653846153846154,0.9038461538461539,0.6428571428571429,0.8571428571428571,0.0004
94,0.7975218296051025,1.0594849586486816,0.7692307692307693,0.8461538461538461,0.6428571428571429,0.8571428571428571,0.0004
95,0.7980023324489594,0.948273777961731,0.7884615384615384,0.8653846153846154,0.7857142857142857,0.7142857142857143,0.0004
96,0.8491064310073853,0.8839904069900513,0.75,0.9230769230769231,0.7857142857142857,0.7857142857142857,0.0004
97,0.738743782043457,1.0194774866104126,0.7692307692307693,0.8846153846153846,0.5714285714285714,0.8571428571428571,0.0004
98,0.5847238004207611,1.0858311653137207,0.8846153846153846,0.8653846153846154,0.42857142857142855,0.8571428571428571,0.0004
99,0.7967667579650879,1.069682002067566,0.7884615384615384,0.8076923076923077,0.7142857142857143,0.8571428571428571,0.0004
100,0.8680524826049805,1.1466543674468994,0.7692307692307693,0.75,0.5,0.8571428571428571,0.0004
101,0.9150128364562988,1.229187250137329,0.7115384615384616,0.8846153846153846,0.42857142857142855,0.9285714285714286,0.0004
102,0.6205244064331055,0.7820523381233215,0.8269230769230769,0.8653846153846154,0.8571428571428571,0.9285714285714286,0.0004
103,0.641646683216095,0.9570255279541016,0.8269230769230769,0.9423076923076923,0.7142857142857143,0.7857142857142857,0.0004
104,0.6872795820236206,0.9387024641036987,0.8461538461538461,0.8653846153846154,0.8571428571428571,0.7142857142857143,0.0004
105,0.6775330305099487,0.7481530904769897,0.8846153846153846,0.8076923076923077,0.8571428571428571,0.7857142857142857,0.0004
106,0.7649250626564026,1.1973365545272827,0.7884615384615384,0.9038461538461539,0.7142857142857143,0.7857142857142857,0.0004
107,0.7970955669879913,0.9439401030540466,0.7692307692307693,0.9230769230769231,0.7142857142857143,0.9285714285714286,0.0004
108,0.8300765752792358,0.7095297574996948,0.7692307692307693,0.9423076923076923,0.8571428571428571,0.7142857142857143,0.0004
109,0.6983320415019989,1.7017513513565063,0.8461538461538461,0.9038461538461539,0.5,0.8571428571428571,0.0004
110,0.6279027760028839,0.9938252568244934,0.8269230769230769,0.8461538461538461,0.7142857142857143,0.8571428571428571,0.0004
111,0.7669156491756439,0.7700328826904297,0.7692307692307693,0.8846153846153846,0.7857142857142857,0.7142857142857143,0.0004
112,0.6188144683837891,0.8655441999435425,0.7307692307692307,0.9423076923076923,0.7142857142857143,0.7142857142857143,0.0004
113,0.6806113421916962,0.8309866786003113,0.7884615384615384,0.8846153846153846,0.8571428571428571,0.7857142857142857,0.0004
114,0.6675366908311844,1.3820183277130127,0.8461538461538461,0.9038461538461539,0.7857142857142857,0.7142857142857143,0.0004
115,0.49015893042087555,0.8520280122756958,0.9615384615384616,0.8846153846153846,0.7857142857142857,0.8571428571428571,0.0004
116,0.7325255870819092,0.7580823302268982,0.8653846153846154,0.9038461538461539,0.7142857142857143,0.9285714285714286,0.0004
117,0.5696055293083191,1.2690902948379517,0.8269230769230769,0.9615384615384616,0.6428571428571429,0.7142857142857143,0.0004
118,0.5192091166973114,0.8365042805671692,0.8653846153846154,0.9423076923076923,0.8571428571428571,0.7857142857142857,0.0004
119,0.6150941252708435,0.9895184636116028,0.8846153846153846,0.9038461538461539,0.7142857142857143,0.8571428571428571,0.0004
120,0.7838888168334961,0.9492632150650024,0.7692307692307693,0.9230769230769231,0.7857142857142857,0.8571428571428571,0.0004
121,0.6878222823143005,0.7313604354858398,0.8461538461538461,0.9423076923076923,0.9285714285714286,0.7857142857142857,0.0004
122,0.5765909552574158,0.6906341314315796,0.9038461538461539,0.9230769230769231,0.9285714285714286,0.8571428571428571,0.0004
123,0.7870925962924957,0.9159483313560486,0.8076923076923077,0.9230769230769231,0.7142857142857143,0.7857142857142857,0.0004
124,0.48933449387550354,0.9052906036376953,0.8461538461538461,0.9615384615384616,0.8571428571428571,0.6428571428571429,0.0004
125,0.5185097008943558,0.9056684374809265,0.8653846153846154,0.9615384615384616,0.7857142857142857,0.8571428571428571,0.0004
126,0.4746638238430023,0.7038382887840271,0.9230769230769231,0.8846153846153846,0.7857142857142857,0.8571428571428571,0.0004
127,0.5485411286354065,1.1693122386932373,0.8846153846153846,0.8846153846153846,0.7142857142857143,0.8571428571428571,0.0004
128,0.6261380612850189,1.6921191215515137,0.8653846153846154,0.8653846153846154,0.6428571428571429,0.7142857142857143,0.0004
129,0.6890635192394257,1.6904386281967163,0.8076923076923077,0.8653846153846154,0.5714285714285714,0.7857142857142857,0.0004
130,0.7770474553108215,0.8842907547950745,0.75,0.9038461538461539,0.8571428571428571,0.7857142857142857,0.0004
131,0.5911465883255005,1.5946567058563232,0.8846153846153846,0.8846153846153846,0.5,0.8571428571428571,0.0004
132,0.6911467909812927,0.7782851457595825,0.7884615384615384,0.9423076923076923,0.7857142857142857,0.8571428571428571,0.0004
133,0.675268292427063,0.8284173011779785,0.8269230769230769,0.9230769230769231,0.8571428571428571,0.7857142857142857,0.0004
134,0.7153901159763336,0.8792620897293091,0.7884615384615384,0.9038461538461539,0.7857142857142857,0.8571428571428571,0.0004
135,0.8110431730747223,0.8272407650947571,0.8461538461538461,0.8653846153846154,0.7142857142857143,0.9285714285714286,0.0004
136,0.6558199226856232,1.1127467155456543,0.8076923076923077,0.8846153846153846,0.7857142857142857,0.7142857142857143,0.0004
137,0.5028986483812332,0.7570409774780273,0.8269230769230769,0.9038461538461539,0.8571428571428571,0.7142857142857143,0.0004
138,0.4139450788497925,0.6687171459197998,0.9038461538461539,0.9807692307692307,0.8571428571428571,0.8571428571428571,0.0004
139,0.5025363117456436,1.0138988494873047,0.9038461538461539,0.9038461538461539,0.7857142857142857,0.7857142857142857,0.0004
140,0.5050845891237259,1.2761904001235962,0.8846153846153846,0.9038461538461539,0.7142857142857143,0.8571428571428571,0.0004
141,0.6357598453760147,1.2364143133163452,0.8461538461538461,0.8846153846153846,0.7857142857142857,0.7142857142857143,0.0004
142,0.5359382927417755,0.9532948136329651,0.8461538461538461,0.9038461538461539,0.8571428571428571,0.7857142857142857,0.0004
143,0.5130009949207306,0.8747542500495911,0.8461538461538461,0.9615384615384616,0.7857142857142857,0.7857142857142857,0.0004
144,0.6132442951202393,0.8560584783554077,0.7884615384615384,0.9423076923076923,0.7857142857142857,0.7142857142857143,0.0004
145,0.6700942814350128,0.6735738515853882,0.8269230769230769,0.9038461538461539,0.9285714285714286,0.7142857142857143,0.0004
146,0.6514550447463989,0.6960397958755493,0.8846153846153846,0.8846153846153846,0.8571428571428571,0.8571428571428571,0.0004
147,0.5260164737701416,0.6045244932174683,0.8653846153846154,0.9423076923076923,0.7857142857142857,0.7857142857142857,0.0004
148,0.5223357230424881,1.0237855911254883,0.9038461538461539,0.9038461538461539,0.7142857142857143,0.7142857142857143,0.0004
149,0.517825573682785,0.8453651070594788,0.8653846153846154,0.9615384615384616,0.8571428571428571,0.7142857142857143,0.0004
150,0.5757713168859482,0.8401283025741577,0.8846153846153846,0.9230769230769231,0.9285714285714286,0.7142857142857143,0.0004
151,0.6762038469314575,1.0291361808776855,0.8269230769230769,0.9423076923076923,0.7142857142857143,0.7857142857142857,0.0004
152,0.6037597060203552,0.8039165139198303,0.8269230769230769,0.8846153846153846,0.8571428571428571,0.6428571428571429,0.0004
153,0.83060222864151,0.8612809181213379,0.8269230769230769,0.9230769230769231,0.7142857142857143,0.7857142857142857,0.0004
154,0.5838706195354462,0.9960631132125854,0.8461538461538461,0.9615384615384616,0.8571428571428571,0.7142857142857143,0.0004
155,0.6291031837463379,1.026139497756958,0.8076923076923077,0.8846153846153846,0.6428571428571429,0.7857142857142857,0.0004
156,0.7584305852651596,1.1539974212646484,0.7692307692307693,0.8653846153846154,0.7142857142857143,0.7142857142857143,0.0004
157,0.48695342242717743,0.6770453453063965,0.8269230769230769,0.9807692307692307,0.9285714285714286,0.7857142857142857,0.0004
158,0.5449762344360352,0.8788801431655884,0.8653846153846154,0.9615384615384616,0.7857142857142857,0.7857142857142857,0.0004
159,0.4474295377731323,0.555171012878418,0.8653846153846154,0.9230769230769231,0.8571428571428571,0.9285714285714286,0.0004
160,0.5797485709190369,1.0709820985794067,0.8269230769230769,0.9423076923076923,0.7857142857142857,0.8571428571428571,0.0004
161,0.738876074552536,0.9488512277603149,0.7884615384615384,0.9230769230769231,0.8571428571428571,0.7142857142857143,0.0004
162,0.6259746551513672,0.8406766653060913,0.8076923076923077,0.9230769230769231,0.7857142857142857,0.8571428571428571,0.0004
163,0.6050217151641846,1.6990280151367188,0.8653846153846154,0.8846153846153846,0.5714285714285714,0.6428571428571429,0.0004
164,0.5099266767501831,1.239912986755371,0.8269230769230769,0.9230769230769231,0.7142857142857143,0.7857142857142857,0.0004
165,0.5553622543811798,1.1773194074630737,0.8076923076923077,0.9615384615384616,0.7142857142857143,0.7857142857142857,0.0004
166,0.6113275289535522,0.8985636830329895,0.8461538461538461,0.8846153846153846,0.8571428571428571,0.7142857142857143,0.0004
167,0.7971880435943604,1.0454723834991455,0.8269230769230769,0.8846153846153846,0.7142857142857143,0.8571428571428571,0.0004
168,0.46386925876140594,1.1541779041290283,0.8653846153846154,0.9423076923076923,0.6428571428571429,0.9285714285714286,0.0004
169,0.5986857712268829,0.6530133485794067,0.7884615384615384,0.8846153846153846,0.7142857142857143,0.8571428571428571,0.0004
170,0.448220357298851,0.7789344191551208,0.9038461538461539,0.9230769230769231,0.7142857142857143,0.8571428571428571,0.0004
171,0.551584392786026,0.8755578398704529,0.9038461538461539,0.9038461538461539,0.8571428571428571,0.8571428571428571,0.0004
172,0.5304982364177704,1.1247942447662354,0.8269230769230769,0.9423076923076923,0.7857142857142857,0.7857142857142857,0.0004
173,0.6806707978248596,1.24739408493042,0.8076923076923077,0.9230769230769231,0.7857142857142857,0.7142857142857143,0.0004
174,0.5362871885299683,1.7251708507537842,0.8653846153846154,0.9230769230769231,0.42857142857142855,0.8571428571428571,0.0004
175,0.676045835018158,0.6467432975769043,0.8076923076923077,0.9038461538461539,0.8571428571428571,0.9285714285714286,0.0004
176,0.4487825334072113,1.002256989479065,0.9038461538461539,0.9423076923076923,0.8571428571428571,0.8571428571428571,0.0004
177,0.45686139166355133,1.185441493988037,0.9038461538461539,0.9230769230769231,0.7857142857142857,0.7857142857142857,0.0004
178,0.5049414336681366,0.6808279752731323,0.8653846153846154,0.9423076923076923,0.9285714285714286,0.7857142857142857,0.0004
179,0.6160151213407516,1.0253207683563232,0.8269230769230769,0.9230769230769231,0.7142857142857143,0.7142857142857143,0.0004
180,0.6448168754577637,0.9562246799468994,0.7692307692307693,0.9807692307692307,0.8571428571428571,0.7142857142857143,0.0004
181,0.6373827755451202,0.996079683303833,0.8846153846153846,0.9423076923076923,0.8571428571428571,0.7142857142857143,0.0004
182,0.621000736951828,1.3898766040802002,0.7884615384615384,0.9230769230769231,0.5714285714285714,0.8571428571428571,0.0004
183,0.5269865989685059,0.6898970603942871,0.8461538461538461,0.9423076923076923,0.8571428571428571,0.7857142857142857,0.0004
184,0.3856620192527771,0.6935305595397949,0.9038461538461539,0.9038461538461539,0.9285714285714286,0.7142857142857143,0.0004
185,0.40809011459350586,1.0454130172729492,0.9230769230769231,0.9423076923076923,0.7857142857142857,0.8571428571428571,0.0004
186,0.28100350499153137,0.7781184315681458,0.9807692307692307,0.9615384615384616,0.8571428571428571,0.7142857142857143,0.0004
187,0.49828681349754333,1.693697452545166,0.9038461538461539,0.8653846153846154,0.6428571428571429,0.7142857142857143,0.0004
188,0.49553370475769043,1.100703477859497,0.8269230769230769,0.9423076923076923,0.6428571428571429,0.9285714285714286,0.0004
189,0.7589464783668518,0.9219160079956055,0.8076923076923077,0.9038461538461539,0.7857142857142857,0.8571428571428571,0.0004
190,0.6761924922466278,0.7597170472145081,0.8653846153846154,0.9038461538461539,0.8571428571428571,0.6428571428571429,0.0004
191,0.5863219201564789,0.5483896732330322,0.8653846153846154,0.9038461538461539,0.9285714285714286,0.8571428571428571,0.0004
192,0.4765971302986145,1.0579955577850342,0.8076923076923077,0.9230769230769231,0.7857142857142857,0.8571428571428571,0.0004
193,0.713674396276474,1.3543165922164917,0.7692307692307693,0.9423076923076923,0.7857142857142857,0.7142857142857143,0.0004
194,0.5199895799160004,0.9428741931915283,0.9230769230769231,0.9230769230769231,0.7857142857142857,0.7142857142857143,0.0004
195,0.5898447632789612,0.8437362909317017,0.8269230769230769,0.9038461538461539,0.7857142857142857,0.7857142857142857,0.0004
196,0.5884106457233429,1.214861273765564,0.9038461538461539,0.8461538461538461,0.8571428571428571,0.7857142857142857,0.0004
197,0.5280505120754242,1.1659424304962158,0.8653846153846154,0.9038461538461539,0.7857142857142857,0.7142857142857143,0.0004
198,0.6106560826301575,0.5477412939071655,0.8461538461538461,0.9038461538461539,0.9285714285714286,0.8571428571428571,0.0004
199,0.4925122559070587,1.3448665142059326,0.9038461538461539,0.8846153846153846,0.6428571428571429,0.8571428571428571,0.0004
200,0.49721813201904297,0.6149759888648987,0.8461538461538461,0.9615384615384616,0.7857142857142857,0.7857142857142857,0.0004
201,0.4264190196990967,0.6984344720840454,0.9230769230769231,0.9423076923076923,0.8571428571428571,0.8571428571428571,0.0004
202,0.646543025970459,0.6723906993865967,0.8269230769230769,0.8846153846153846,0.8571428571428571,0.8571428571428571,0.0004
203,0.6089007556438446,1.2851479053497314,0.8653846153846154,0.9038461538461539,0.7142857142857143,0.7857142857142857,0.0004
204,0.5761561244726181,1.05930757522583,0.9038461538461539,0.8653846153846154,0.7857142857142857,0.8571428571428571,0.0004
205,0.4533036947250366,0.565820574760437,0.9038461538461539,0.9230769230769231,0.9285714285714286,0.7857142857142857,0.0004
206,0.5547547042369843,1.0920968055725098,0.8076923076923077,0.9423076923076923,0.7857142857142857,0.7142857142857143,0.0004
207,0.6164757311344147,1.032961368560791,0.7884615384615384,0.9230769230769231,0.7142857142857143,0.7142857142857143,0.0004
208,0.4810413122177124,1.1543806791305542,0.9038461538461539,0.8653846153846154,0.6428571428571429,0.8571428571428571,0.0004
209,0.47978071868419647,1.388681173324585,0.9038461538461539,0.9230769230769231,0.5714285714285714,0.7857142857142857,0.0004
210,0.5464234501123428,0.9253931045532227,0.8461538461538461,0.9615384615384616,0.8571428571428571,0.7142857142857143,0.0004
211,0.4725811630487442,0.5594993829727173,0.9038461538461539,0.9038461538461539,1.0,0.8571428571428571,0.0004
212,0.5310341715812683,0.9452325701713562,0.8269230769230769,0.9230769230769231,0.7857142857142857,0.7142857142857143,0.0004
213,0.6439347863197327,0.7178317308425903,0.7884615384615384,0.9230769230769231,0.7857142857142857,0.9285714285714286,0.0004
214,0.6846776306629181,1.055343508720398,0.8461538461538461,0.9038461538461539,0.7142857142857143,0.8571428571428571,0.0004
215,0.42500564455986023,1.0131148099899292,0.8461538461538461,0.9615384615384616,0.7857142857142857,0.8571428571428571,0.0004
216,0.4829932600259781,0.6929192543029785,0.8846153846153846,0.8653846153846154,0.6428571428571429,0.9285714285714286,0.0004
217,0.7078359127044678,0.4631651043891907,0.8269230769230769,0.9423076923076923,0.9285714285714286,0.9285714285714286,0.0004
218,0.6363117396831512,0.4702352285385132,0.8653846153846154,0.8846153846153846,0.9285714285714286,0.8571428571428571,0.0004
219,0.3269263654947281,0.5098710060119629,0.9615384615384616,0.9423076923076923,0.8571428571428571,0.8571428571428571,0.0004
220,0.5442739129066467,1.112250566482544,0.8076923076923077,0.9807692307692307,0.7142857142857143,0.7857142857142857,0.0004
221,0.7590426206588745,0.7418179512023926,0.7884615384615384,0.9615384615384616,0.7857142857142857,0.8571428571428571,0.0004
222,0.3918724060058594,0.7301168441772461,0.8461538461538461,0.9807692307692307,0.8571428571428571,0.8571428571428571,0.0004
223,0.44685861468315125,0.6054098606109619,0.8653846153846154,0.9807692307692307,0.7142857142857143,0.9285714285714286,0.0004
224,0.477510005235672,0.7845903635025024,0.8269230769230769,0.9230769230769231,0.8571428571428571,0.8571428571428571,0.0004
225,0.6770824193954468,1.0010020732879639,0.8076923076923077,0.9038461538461539,0.7857142857142857,0.8571428571428571,0.0004
226,0.530709981918335,1.1312354803085327,0.8461538461538461,0.9615384615384616,0.7142857142857143,0.8571428571428571,0.0004
227,0.5214231163263321,1.0037063360214233,0.8846153846153846,0.8846153846153846,0.5714285714285714,0.8571428571428571,0.0004
228,0.6215562373399734,0.7337150573730469,0.8461538461538461,0.9423076923076923,0.9285714285714286,0.7857142857142857,0.0004
229,0.6685902178287506,0.8234513401985168,0.8269230769230769,0.9038461538461539,0.7142857142857143,1.0,0.0004
230,0.581123560667038,0.9645868539810181,0.9038461538461539,0.8846153846153846,0.7857142857142857,0.7857142857142857,0.0004
231,0.585949718952179,0.5794143676757812,0.8076923076923077,0.9423076923076923,0.9285714285714286,0.7857142857142857,0.0004
232,0.5676383227109909,0.7779358625411987,0.8269230769230769,0.9038461538461539,1.0,0.7857142857142857,0.0004
233,0.46775022149086,1.114919900894165,0.8846153846153846,0.8846153846153846,0.7857142857142857,0.8571428571428571,0.0004
234,0.5000898241996765,0.7445865273475647,0.8846153846153846,0.9615384615384616,0.7857142857142857,0.8571428571428571,0.0004
235,0.5316965281963348,0.5248551368713379,0.8461538461538461,0.9038461538461539,0.9285714285714286,0.9285714285714286,0.0004
236,0.5503992140293121,0.5328248143196106,0.8653846153846154,0.9423076923076923,0.8571428571428571,0.7857142857142857,0.0004
237,0.5813575983047485,0.7322057485580444,0.8461538461538461,0.8653846153846154,0.7857142857142857,0.8571428571428571,0.0004
238,0.7028412222862244,0.8593404293060303,0.75,0.9038461538461539,0.8571428571428571,0.8571428571428571,0.0004
239,0.7277048528194427,0.5907480716705322,0.75,0.9038461538461539,0.9285714285714286,0.8571428571428571,0.0004
240,0.5602187514305115,0.9963811635971069,0.8461538461538461,0.9038461538461539,0.7857142857142857,0.6428571428571429,0.0004
241,0.7222783267498016,0.543635368347168,0.75,0.8461538461538461,0.8571428571428571,0.8571428571428571,0.0004
242,0.6034139096736908,1.1498130559921265,0.8269230769230769,0.9038461538461539,0.6428571428571429,0.8571428571428571,0.0004
243,0.5798133313655853,1.0100126266479492,0.8269230769230769,0.9038461538461539,0.7857142857142857,0.8571428571428571,0.0004
244,0.4652844965457916,0.729640007019043,0.8269230769230769,0.9230769230769231,0.7857142857142857,0.7142857142857143,0.0004
245,0.39809559285640717,1.1363803148269653,0.9423076923076923,0.9615384615384616,0.5714285714285714,0.7857142857142857,0.0004
246,0.5250558853149414,1.34402334690094,0.8653846153846154,0.9230769230769231,0.7142857142857143,0.7857142857142857,0.0004
247,0.548595979809761,0.8984715938568115,0.8653846153846154,0.9038461538461539,0.7142857142857143,0.9285714285714286,0.0004
248,0.4612343907356262,0.7604267597198486,0.8269230769230769,0.9423076923076923,0.9285714285714286,0.7857142857142857,0.0004
249,0.6518726348876953,0.3660726547241211,0.8269230769230769,0.9038461538461539,1.0,0.8571428571428571,0.0004
250,0.4318701922893524,0.5418124794960022,0.8653846153846154,0.9615384615384616,0.7857142857142857,0.8571428571428571,0.0004
251,0.6589989960193634,1.272761344909668,0.7884615384615384,0.8653846153846154,0.7142857142857143,0.7142857142857143,0.0004
252,0.5786367654800415,0.5134026408195496,0.8461538461538461,0.8461538461538461,0.8571428571428571,0.9285714285714286,0.0004
253,0.48018893599510193,0.8445181846618652,0.8461538461538461,0.9230769230769231,0.9285714285714286,0.7142857142857143,0.0004
254,0.555202454328537,0.6970844268798828,0.8653846153846154,0.8846153846153846,0.8571428571428571,0.8571428571428571,0.0004
255,0.511925533413887,0.7991093397140503,0.8269230769230769,0.9615384615384616,0.8571428571428571,0.8571428571428571,0.0004
256,0.39401958882808685,0.7898482084274292,0.9230769230769231,0.9038461538461539,0.9285714285714286,0.9285714285714286,0.0004
257,0.5207109302282333,1.3329252004623413,0.8846153846153846,0.9423076923076923,0.7857142857142857,0.8571428571428571,0.0004
258,0.4654609113931656,0.7871187925338745,0.8461538461538461,0.9615384615384616,0.7857142857142857,0.8571428571428571,0.0004
259,0.6133020520210266,0.6688610911369324,0.8076923076923077,0.9230769230769231,0.9285714285714286,0.7857142857142857,0.0004
260,0.8660127222537994,0.7898590564727783,0.8269230769230769,0.8269230769230769,0.8571428571428571,0.7142857142857143,0.0004
261,0.43278081715106964,1.198106288909912,0.9230769230769231,0.9615384615384616,0.7857142857142857,0.8571428571428571,0.0004
262,0.6800378412008286,1.5754921436309814,0.8269230769230769,0.8846153846153846,0.7857142857142857,0.8571428571428571,0.0004
263,0.6501719802618027,1.0539953708648682,0.8076923076923077,0.9423076923076923,0.7857142857142857,0.8571428571428571,0.0004
264,0.388531357049942,1.0140045881271362,0.9038461538461539,0.9230769230769231,0.7142857142857143,0.7857142857142857,0.0004
265,0.49709153175354004,1.0530046224594116,0.8846153846153846,0.9230769230769231,0.5714285714285714,0.9285714285714286,0.0004
266,0.48229746520519257,0.9444908499717712,0.8846153846153846,0.9615384615384616,0.5714285714285714,0.7857142857142857,0.0004
267,0.4155237674713135,0.9247715473175049,0.8846153846153846,0.9230769230769231,0.8571428571428571,0.7857142857142857,0.0004
268,0.38623690605163574,0.5811804533004761,0.8846153846153846,0.9615384615384616,0.7857142857142857,0.8571428571428571,0.0004
269,0.5184181034564972,0.658691942691803,0.8846153846153846,0.9230769230769231,0.9285714285714286,0.7142857142857143,0.0004
270,0.5000424087047577,0.7807691097259521,0.8846153846153846,0.9423076923076923,0.7857142857142857,0.7857142857142857,0.0004
271,0.6769472509622574,1.0888593196868896,0.7884615384615384,0.8846153846153846,0.7142857142857143,0.8571428571428571,0.0004
272,0.5499755144119263,0.8787524700164795,0.8076923076923077,0.9230769230769231,0.7142857142857143,0.8571428571428571,0.0004
273,0.46077825129032135,0.9114699363708496,0.9230769230769231,0.9807692307692307,0.8571428571428571,0.7142857142857143,0.0004
274,0.5246839225292206,1.2403130531311035,0.8653846153846154,0.9038461538461539,0.7142857142857143,0.7857142857142857,0.0004
275,0.38229015469551086,0.7924114465713501,0.9423076923076923,0.9423076923076923,0.8571428571428571,0.7857142857142857,0.0004
276,0.533376008272171,1.2548564672470093,0.8653846153846154,0.9615384615384616,0.6428571428571429,0.7142857142857143,0.0004
277,0.5850806534290314,1.0870712995529175,0.8269230769230769,0.9038461538461539,0.7142857142857143,0.7142857142857143,0.0004
278,0.47145649790763855,0.9513298273086548,0.8269230769230769,0.9615384615384616,0.7142857142857143,0.7857142857142857,0.0004
279,0.6392140686511993,1.023791790008545,0.8269230769230769,0.9230769230769231,0.8571428571428571,0.7142857142857143,0.0004
280,0.5737578272819519,0.9751149415969849,0.8653846153846154,0.9423076923076923,0.7142857142857143,0.7142857142857143,0.0004
281,0.5741887986660004,0.904390811920166,0.8846153846153846,0.9230769230769231,0.7142857142857143,0.7857142857142857,0.0004
282,0.45215822756290436,1.100672960281372,0.9038461538461539,0.9230769230769231,0.5714285714285714,0.9285714285714286,0.0004
283,0.4451008290052414,0.9863245487213135,0.8076923076923077,0.9807692307692307,0.7142857142857143,0.8571428571428571,0.0004
284,0.5383948385715485,1.102036952972412,0.7884615384615384,0.9230769230769231,0.6428571428571429,0.8571428571428571,0.0004
285,0.418576255440712,1.1377735137939453,0.8846153846153846,0.9230769230769231,0.7142857142857143,0.7142857142857143,0.0004
286,0.4845620095729828,1.295832872390747,0.8461538461538461,0.9423076923076923,0.7857142857142857,0.7857142857142857,0.0004
287,0.44198575615882874,1.0971641540527344,0.8269230769230769,0.9807692307692307,0.6428571428571429,0.7857142857142857,0.0004
288,0.3817008137702942,0.8711754083633423,0.9230769230769231,0.9038461538461539,0.7857142857142857,0.7857142857142857,0.0004
289,0.5142000466585159,0.7079030871391296,0.8653846153846154,0.9230769230769231,0.8571428571428571,0.7857142857142857,0.0004
290,0.6420054137706757,0.9345210194587708,0.9038461538461539,0.9230769230769231,0.7857142857142857,0.9285714285714286,0.0004
291,0.436591699719429,1.3776054382324219,0.8461538461538461,0.9423076923076923,0.6428571428571429,0.7857142857142857,0.0004
292,0.4073639512062073,0.7286936044692993,0.9423076923076923,0.9038461538461539,0.7857142857142857,0.9285714285714286,0.0004
293,0.37500202655792236,0.9941187500953674,0.8846153846153846,0.9423076923076923,0.7142857142857143,0.7142857142857143,0.0004
294,0.6171321272850037,1.2474547624588013,0.8461538461538461,0.9807692307692307,0.7857142857142857,0.7857142857142857,0.0004
295,0.5059353709220886,0.7291083335876465,0.8846153846153846,0.9230769230769231,0.9285714285714286,0.7142857142857143,0.0004
296,0.5078946202993393,0.7868012189865112,0.8653846153846154,0.9230769230769231,0.7857142857142857,0.7857142857142857,0.0004
297,0.28217020630836487,0.8803799152374268,0.9423076923076923,0.9423076923076923,0.8571428571428571,0.8571428571428571,0.0004
298,0.3537808656692505,0.90682053565979,0.9038461538461539,0.9423076923076923,0.7857142857142857,0.7857142857142857,0.0004
299,0.32212211191654205,0.7639848589897156,0.9038461538461539,0.9615384615384616,0.8571428571428571,0.8571428571428571,0.0004
300,0.4785674512386322,0.9995863437652588,0.8461538461538461,0.9423076923076923,0.7142857142857143,0.8571428571428571,0.0004
301,0.3783603012561798,0.9901899695396423,0.8846153846153846,0.9230769230769231,0.7857142857142857,0.8571428571428571,0.0004
302,0.7115838825702667,0.7638384103775024,0.8461538461538461,0.9038461538461539,0.9285714285714286,0.7857142857142857,0.0004
303,0.5731952041387558,0.9126257300376892,0.8076923076923077,0.9615384615384616,0.8571428571428571,0.7857142857142857,0.0004
304,0.5171934217214584,1.3699284791946411,0.8461538461538461,0.9230769230769231,0.7857142857142857,0.7142857142857143,0.0004
305,0.5868079364299774,1.0348318815231323,0.7692307692307693,0.9807692307692307,0.7142857142857143,0.7857142857142857,0.0004
306,0.33940422534942627,0.6619468927383423,0.8846153846153846,0.9423076923076923,0.7142857142857143,0.8571428571428571,0.0004
307,0.5394716858863831,1.5270673036575317,0.8653846153846154,0.9230769230769231,0.7142857142857143,0.7857142857142857,0.0004
308,0.6082309186458588,1.8986105918884277,0.8269230769230769,0.9230769230769231,0.6428571428571429,0.6428571428571429,0.0004
309,0.5011637955904007,1.1034932136535645,0.8653846153846154,0.8846153846153846,0.7857142857142857,0.7857142857142857,0.0004
310,0.5612724274396896,0.8452480435371399,0.7884615384615384,0.9038461538461539,0.7857142857142857,0.7857142857142857,0.0004
311,0.8253136873245239,1.2051169872283936,0.8076923076923077,0.8846153846153846,0.8571428571428571,0.7857142857142857,0.0004
312,0.5939980447292328,1.73275887966156,0.8653846153846154,0.8461538461538461,0.5,0.7142857142857143,0.0004
313,0.6296414136886597,0.9924034476280212,0.8461538461538461,0.8846153846153846,0.7857142857142857,0.6428571428571429,0.0004
314,0.4876592606306076,0.5583032965660095,0.8653846153846154,0.8846153846153846,0.9285714285714286,0.8571428571428571,0.0004
315,0.6757737994194031,0.8907415270805359,0.7884615384615384,0.9230769230769231,0.7142857142857143,0.8571428571428571,0.0004
316,0.6499614715576172,1.2893415689468384,0.7692307692307693,0.9423076923076923,0.7142857142857143,0.7142857142857143,0.0004
317,0.37833765149116516,0.3639993667602539,0.9423076923076923,0.9423076923076923,0.9285714285714286,0.9285714285714286,0.0004
318,0.466432124376297,1.2014753818511963,0.8653846153846154,0.8846153846153846,0.5714285714285714,0.8571428571428571,0.0004
319,0.5260012447834015,1.0424184799194336,0.9230769230769231,0.9423076923076923,0.7857142857142857,0.8571428571428571,0.0004
320,0.8023131191730499,0.961008608341217,0.7692307692307693,0.8846153846153846,0.7857142857142857,0.7857142857142857,0.0004
321,0.546756237745285,0.7406953573226929,0.7884615384615384,0.9038461538461539,0.7142857142857143,0.7142857142857143,0.0004
322,0.6446396708488464,0.7695567607879639,0.8653846153846154,0.8653846153846154,0.9285714285714286,0.9285714285714286,0.0004
323,0.6280105113983154,0.7546038627624512,0.8653846153846154,0.8461538461538461,0.8571428571428571,0.8571428571428571,0.0004
324,0.5947020947933197,0.4548536539077759,0.7884615384615384,0.9038461538461539,1.0,0.9285714285714286,0.0004
325,0.6299955248832703,0.9386742115020752,0.8653846153846154,0.8846153846153846,0.8571428571428571,0.6428571428571429,0.0004
326,0.5508834570646286,0.8278795480728149,0.8269230769230769,0.9230769230769231,0.9285714285714286,0.6428571428571429,0.0004
327,0.6658748090267181,0.6864021420478821,0.7692307692307693,0.8846153846153846,0.9285714285714286,0.7857142857142857,0.0004
328,0.6338650286197662,1.0542224645614624,0.8653846153846154,0.8653846153846154,0.8571428571428571,0.7857142857142857,0.0004
329,0.583899050951004,1.3078804016113281,0.8846153846153846,0.9038461538461539,0.7857142857142857,0.7142857142857143,0.0004
330,0.6107751876115799,0.7262448072433472,0.8653846153846154,0.8653846153846154,0.7857142857142857,0.7857142857142857,0.0004
331,0.5565401166677475,0.6394000053405762,0.8461538461538461,0.9615384615384616,0.8571428571428571,0.8571428571428571,0.0004
332,0.5697486400604248,0.49661529064178467,0.8269230769230769,0.9423076923076923,0.8571428571428571,0.8571428571428571,0.0004
333,0.705638974905014,0.8059979677200317,0.8269230769230769,0.9038461538461539,0.8571428571428571,0.7857142857142857,0.0004
334,0.5009124279022217,0.8168957233428955,0.9038461538461539,0.9038461538461539,0.7857142857142857,0.8571428571428571,0.0004
335,0.4236074388027191,0.4684451222419739,0.8846153846153846,0.9230769230769231,0.9285714285714286,0.8571428571428571,0.0004
336,0.6723950803279877,1.1078987121582031,0.8076923076923077,0.9038461538461539,0.7857142857142857,0.6428571428571429,0.0004
337,0.5958208292722702,0.9549679756164551,0.8653846153846154,0.8269230769230769,0.8571428571428571,0.7857142857142857,0.0004
338,0.5149782001972198,0.9576578140258789,0.8846153846153846,0.8653846153846154,0.8571428571428571,0.7857142857142857,0.0004
339,0.4298281967639923,0.664368748664856,0.8846153846153846,0.9230769230769231,0.8571428571428571,0.7142857142857143,0.0004
340,0.4614497274160385,0.8111657500267029,0.8461538461538461,0.9230769230769231,0.7857142857142857,0.7857142857142857,0.0004
341,0.3926548510789871,1.0616083145141602,0.8653846153846154,0.9807692307692307,0.7142857142857143,0.8571428571428571,0.0004
342,0.36477571725845337,0.6869298219680786,0.9038461538461539,0.9807692307692307,0.7857142857142857,0.9285714285714286,0.0004
343,0.6009727120399475,0.6371240615844727,0.8461538461538461,0.9423076923076923,0.9285714285714286,0.7857142857142857,0.0004
344,0.5132644176483154,1.0116426944732666,0.8461538461538461,0.9230769230769231,0.8571428571428571,0.7857142857142857,0.0004
345,0.3463122397661209,0.7316379547119141,0.9230769230769231,0.9423076923076923,0.7857142857142857,0.8571428571428571,0.0004
346,0.5797308087348938,1.218322515487671,0.8653846153846154,0.9423076923076923,0.6428571428571429,0.9285714285714286,0.0004
347,0.5990310311317444,0.9099929332733154,0.8846153846153846,0.8846153846153846,0.7142857142857143,0.9285714285714286,0.0004
348,0.6017123758792877,1.0677249431610107,0.8653846153846154,0.9230769230769231,0.7857142857142857,0.7857142857142857,0.0004
349,0.42225052416324615,1.6136083602905273,0.9230769230769231,0.8653846153846154,0.5,0.7142857142857143,0.0004
350,0.3563068211078644,0.4394511878490448,0.9038461538461539,0.9807692307692307,0.7857142857142857,1.0,0.0004
351,0.39605650305747986,0.9555392861366272,0.9423076923076923,0.9615384615384616,0.6428571428571429,0.8571428571428571,0.0004
352,0.5600048005580902,1.190834641456604,0.7884615384615384,0.8846153846153846,0.7142857142857143,0.7857142857142857,0.0004
353,0.5165739208459854,1.1466318368911743,0.8461538461538461,0.8653846153846154,0.7857142857142857,0.6428571428571429,0.0004
354,0.5114037841558456,1.3131002187728882,0.8461538461538461,0.8846153846153846,0.5714285714285714,0.8571428571428571,0.0004
355,0.5458828508853912,0.8889845609664917,0.8461538461538461,0.9423076923076923,0.7857142857142857,0.7857142857142857,0.0004
356,0.5670155584812164,1.1226054430007935,0.8461538461538461,0.9423076923076923,0.6428571428571429,0.7857142857142857,0.0004
357,0.7183044329285622,0.45414066314697266,0.9230769230769231,0.9423076923076923,0.9285714285714286,0.8571428571428571,0.0004
358,0.5006586462259293,0.8978519439697266,0.8269230769230769,0.9807692307692307,0.7142857142857143,0.8571428571428571,0.0004
359,0.4151323735713959,1.0657625198364258,0.9230769230769231,0.9230769230769231,0.7142857142857143,0.7142857142857143,0.0004
360,0.5565139055252075,0.748456597328186,0.8269230769230769,0.9230769230769231,0.8571428571428571,0.8571428571428571,0.0004
361,0.7518602907657623,1.1254618167877197,0.8461538461538461,0.9615384615384616,0.7857142857142857,0.7142857142857143,0.0004
362,0.5327541828155518,1.0326367616653442,0.8653846153846154,0.9423076923076923,0.7857142857142857,0.7142857142857143,0.0004
363,0.5184839963912964,0.904746949672699,0.8846153846153846,0.9615384615384616,0.7857142857142857,0.8571428571428571,0.0004
364,0.5482767224311829,1.0874309539794922,0.7884615384615384,0.9423076923076923,0.7857142857142857,0.8571428571428571,0.0004
365,0.7952741980552673,0.9720762968063354,0.8076923076923077,0.8653846153846154,0.7857142857142857,0.7857142857142857,0.0004
366,0.5905816555023193,1.34586501121521,0.8461538461538461,0.9807692307692307,0.7142857142857143,0.7857142857142857,0.0004
367,0.2711140140891075,0.7369022369384766,0.9807692307692307,0.9615384615384616,0.7142857142857143,0.8571428571428571,0.0004
368,0.39530661702156067,1.0476980209350586,0.9038461538461539,0.9423076923076923,0.6428571428571429,0.8571428571428571,0.0004
369,0.6143142729997635,0.6538124084472656,0.8846153846153846,0.9423076923076923,0.8571428571428571,0.8571428571428571,0.0004
370,0.4108626991510391,0.9983327984809875,0.8653846153846154,0.9807692307692307,0.8571428571428571,0.7857142857142857,0.0004
371,0.41037070751190186,0.7380154132843018,0.8846153846153846,0.9423076923076923,0.7142857142857143,0.7857142857142857,0.0004
372,0.38492730259895325,0.863061785697937,0.9038461538461539,0.9423076923076923,0.8571428571428571,0.7142857142857143,0.0004
373,0.381532683968544,1.1728146076202393,0.9038461538461539,0.9230769230769231,0.7857142857142857,0.7857142857142857,0.0004
374,0.5887918621301651,0.7756251692771912,0.8461538461538461,0.9230769230769231,0.7857142857142857,0.8571428571428571,0.0004
375,0.43261468410491943,0.7991807460784912,0.8461538461538461,0.9230769230769231,0.7142857142857143,0.8571428571428571,0.0004
376,0.5759594440460205,0.4711759388446808,0.8461538461538461,0.9038461538461539,0.9285714285714286,0.8571428571428571,0.0004
377,0.5690157413482666,0.6566084623336792,0.8461538461538461,0.9038461538461539,0.8571428571428571,0.7857142857142857,0.0004
378,0.36455613374710083,1.2870094776153564,0.9038461538461539,0.9230769230769231,0.8571428571428571,0.7857142857142857,0.0004
379,0.46847812831401825,0.8810727596282959,0.8461538461538461,0.9230769230769231,0.8571428571428571,0.7857142857142857,0.0004
380,0.3830890953540802,0.8114200234413147,0.9615384615384616,0.9038461538461539,0.8571428571428571,0.8571428571428571,0.0004
381,0.27437110245227814,0.8825041651725769,0.9230769230769231,0.9807692307692307,0.9285714285714286,0.7857142857142857,0.0004
382,0.35175468027591705,1.5426132678985596,0.9230769230769231,0.9423076923076923,0.7142857142857143,0.7857142857142857,0.0004
383,0.428510457277298,0.7626222372055054,0.9230769230769231,0.9423076923076923,0.7857142857142857,0.7857142857142857,0.0004
384,0.38972602784633636,0.5673961043357849,0.8653846153846154,0.9230769230769231,0.9285714285714286,0.7857142857142857,0.0004
385,0.4405730217695236,0.7940880060195923,0.9423076923076923,0.8846153846153846,0.7857142857142857,0.8571428571428571,0.0004
386,0.45603565871715546,1.2163643836975098,0.9038461538461539,0.9423076923076923,0.7857142857142857,0.7142857142857143,0.0004
387,0.55872642993927,1.053347110748291,0.8846153846153846,0.9038461538461539,0.7142857142857143,0.8571428571428571,0.0004
388,0.3621775209903717,0.8023859858512878,0.9038461538461539,0.9615384615384616,0.8571428571428571,0.8571428571428571,0.0004
389,0.5890024900436401,1.7974801063537598,0.9038461538461539,0.9230769230769231,0.6428571428571429,0.7857142857142857,0.0004
390,0.4913581907749176,0.9012271165847778,0.8653846153846154,0.9423076923076923,0.7142857142857143,0.7857142857142857,0.0004
391,0.535352885723114,1.049742579460144,0.8269230769230769,0.9615384615384616,0.7857142857142857,0.8571428571428571,0.0004
392,0.2845556139945984,0.8808732032775879,0.8846153846153846,0.9807692307692307,0.8571428571428571,0.7142857142857143,0.0004
393,0.3713000565767288,0.9652618169784546,0.9230769230769231,0.9423076923076923,0.9285714285714286,0.7857142857142857,0.0004
394,0.6064963936805725,1.0146384239196777,0.8461538461538461,0.9423076923076923,0.7857142857142857,0.7142857142857143,0.0004
395,0.33185234665870667,0.9367914199829102,0.9230769230769231,0.9230769230769231,0.7857142857142857,0.7857142857142857,0.0004
396,0.32165248692035675,1.136351227760315,0.9423076923076923,0.9038461538461539,0.6428571428571429,0.7857142857142857,0.0004
397,0.40632888674736023,0.6962637901306152,0.8846153846153846,0.9807692307692307,0.9285714285714286,0.7142857142857143,0.0004
398,0.7311225831508636,0.5805850028991699,0.7692307692307693,0.9230769230769231,0.8571428571428571,0.8571428571428571,0.0004
399,0.4114407002925873,0.9488145112991333,0.8846153846153846,0.9423076923076923,0.7142857142857143,0.8571428571428571,0.0004
400,0.3805067092180252,0.529016375541687,0.9038461538461539,0.9423076923076923,0.9285714285714286,0.7857142857142857,0.0004
401,0.4063822627067566,1.1729469299316406,0.9038461538461539,0.9038461538461539,0.7142857142857143,0.9285714285714286,0.0004
402,0.6208457499742508,1.795167088508606,0.8076923076923077,0.9038461538461539,0.7142857142857143,0.7857142857142857,0.0004
403,0.5821866989135742,0.7500004768371582,0.9038461538461539,0.8846153846153846,0.6428571428571429,0.8571428571428571,0.0004
404,0.22505933046340942,1.9143400192260742,0.9615384615384616,1.0,0.7142857142857143,0.6428571428571429,0.0004
405,0.3459290638566017,1.2379965782165527,0.9038461538461539,0.9423076923076923,0.6428571428571429,0.8571428571428571,0.0004
406,0.38987812399864197,0.667928159236908,0.8846153846153846,0.9423076923076923,0.9285714285714286,0.7142857142857143,0.0004
407,0.3816527873277664,0.9052847623825073,0.8653846153846154,0.9423076923076923,0.8571428571428571,0.7857142857142857,0.0004
408,0.4585544466972351,0.8291715383529663,0.8461538461538461,0.9615384615384616,0.7142857142857143,0.8571428571428571,0.0004
409,0.3049822002649307,1.3566336631774902,0.9230769230769231,0.9423076923076923,0.7142857142857143,0.8571428571428571,0.0004
410,0.4397204965353012,0.7021856904029846,0.8846153846153846,0.9230769230769231,0.8571428571428571,0.8571428571428571,0.0004
411,0.3003147393465042,0.9104062914848328,0.9230769230769231,0.9230769230769231,0.8571428571428571,0.7857142857142857,0.0004
412,0.4047655314207077,1.3802552223205566,0.9230769230769231,0.9423076923076923,0.5714285714285714,0.7857142857142857,0.0004
413,0.452269047498703,0.4169437289237976,0.8461538461538461,0.9615384615384616,0.9285714285714286,0.8571428571428571,0.0004
414,0.36557628214359283,1.0932509899139404,0.8846153846153846,0.9615384615384616,0.8571428571428571,0.8571428571428571,0.0004
415,0.558988630771637,1.0768346786499023,0.8653846153846154,0.9230769230769231,0.9285714285714286,0.7142857142857143,0.0004
416,0.43221256136894226,1.181248664855957,0.8846153846153846,0.9230769230769231,0.8571428571428571,0.8571428571428571,0.0004
417,0.4348430186510086,0.7921299338340759,0.9230769230769231,0.8846153846153846,0.7142857142857143,0.7142857142857143,0.0004
418,0.39699532091617584,1.0599818229675293,0.8653846153846154,0.9807692307692307,0.7857142857142857,0.7857142857142857,0.0004
419,0.31294264644384384,0.5298480987548828,0.9038461538461539,0.9615384615384616,0.8571428571428571,0.8571428571428571,0.0004
420,0.403324730694294,0.7600184679031372,0.8653846153846154,0.9423076923076923,0.8571428571428571,0.8571428571428571,0.0004
421,0.48223477602005005,0.8171366453170776,0.8846153846153846,0.9230769230769231,0.8571428571428571,0.8571428571428571,0.0004
422,0.29907917976379395,1.0228540897369385,0.9038461538461539,1.0,0.6428571428571429,0.7142857142857143,0.0004
423,0.5792721062898636,0.9426918029785156,0.8653846153846154,0.9038461538461539,0.8571428571428571,0.8571428571428571,0.0004
424,0.6200486421585083,1.3264851570129395,0.8076923076923077,0.9230769230769231,0.7142857142857143,0.9285714285714286,0.0004
425,0.30435632169246674,0.8547777533531189,0.9423076923076923,0.9807692307692307,0.8571428571428571,0.8571428571428571,0.0004
426,0.5069278329610825,0.861060380935669,0.8461538461538461,0.9423076923076923,0.8571428571428571,0.7857142857142857,0.0004
427,0.44444043934345245,1.781517744064331,0.9230769230769231,0.8846153846153846,0.7142857142857143,0.5714285714285714,0.0004
428,0.5236679166555405,1.1485356092453003,0.8846153846153846,0.9038461538461539,0.7142857142857143,0.8571428571428571,0.0004
429,0.44157345592975616,1.7691709995269775,0.8653846153846154,0.9615384615384616,0.6428571428571429,0.7857142857142857,0.0004
430,0.6251442730426788,0.8546467423439026,0.8461538461538461,0.9230769230769231,0.8571428571428571,0.8571428571428571,0.0004
431,0.5952969789505005,0.9273601174354553,0.8461538461538461,0.9615384615384616,0.7857142857142857,0.7857142857142857,0.0004
432,0.5888904333114624,0.7336891889572144,0.7692307692307693,0.9423076923076923,0.9285714285714286,0.7857142857142857,0.0004
433,0.533371239900589,0.8965842723846436,0.8846153846153846,0.9615384615384616,0.7857142857142857,0.7142857142857143,0.0004
434,0.2799590528011322,0.5573782920837402,0.9423076923076923,0.9615384615384616,0.9285714285714286,0.7857142857142857,0.0004
435,0.429852694272995,0.9909034967422485,0.8461538461538461,0.9423076923076923,0.8571428571428571,0.7142857142857143,0.0004
436,0.73821160197258,0.623241662979126,0.7692307692307693,0.9615384615384616,0.8571428571428571,0.9285714285714286,0.0004
437,0.660184234380722,0.5587137937545776,0.7884615384615384,0.9038461538461539,0.7857142857142857,0.9285714285714286,0.0004
438,0.6118109226226807,0.9944424629211426,0.8269230769230769,0.9423076923076923,0.7142857142857143,0.7857142857142857,0.0004
439,0.3450130522251129,1.012075662612915,0.8653846153846154,0.9807692307692307,0.7142857142857143,0.7857142857142857,0.0004
440,0.39037908613681793,0.8421872854232788,0.8653846153846154,0.9423076923076923,0.7857142857142857,0.9285714285714286,0.0004
441,0.27676351368427277,0.8333266973495483,0.9038461538461539,0.9807692307692307,0.8571428571428571,0.7142857142857143,0.0004
442,0.5607624351978302,0.8413329124450684,0.8269230769230769,0.9423076923076923,0.7142857142857143,0.7857142857142857,0.0004
443,0.5112346410751343,0.7199199199676514,0.8846153846153846,0.9038461538461539,0.7857142857142857,0.8571428571428571,0.0004
444,0.5322603583335876,0.6789993643760681,0.8846153846153846,0.9423076923076923,0.9285714285714286,0.8571428571428571,0.0004
445,0.2768344506621361,0.6791781187057495,0.9230769230769231,0.9615384615384616,0.9285714285714286,0.8571428571428571,0.0004
446,0.46151813864707947,0.7931615710258484,0.8846153846153846,0.9423076923076923,0.7142857142857143,0.8571428571428571,0.0004
447,0.49437884986400604,1.1861951351165771,0.8461538461538461,0.9615384615384616,0.7857142857142857,0.7142857142857143,0.0004
448,0.4331628084182739,1.034792423248291,0.8846153846153846,0.9230769230769231,0.6428571428571429,0.9285714285714286,0.0004
449,0.5118571072816849,0.6870169639587402,0.8846153846153846,0.9230769230769231,0.9285714285714286,0.7142857142857143,0.0004
450,0.2625853270292282,0.5969570875167847,0.9615384615384616,0.9423076923076923,0.9285714285714286,0.7857142857142857,0.0004
451,0.48864389955997467,1.3909480571746826,0.9038461538461539,0.9038461538461539,0.7857142857142857,0.7857142857142857,0.0004
452,0.3778597563505173,1.1273677349090576,0.9038461538461539,0.9807692307692307,0.8571428571428571,0.8571428571428571,0.0004
453,0.4968512952327728,1.0112366676330566,0.8846153846153846,0.9423076923076923,0.8571428571428571,0.7142857142857143,0.0004
454,0.5294217765331268,1.2296346426010132,0.8653846153846154,0.9230769230769231,0.9285714285714286,0.6428571428571429,0.0004
455,0.43671536445617676,0.9170986413955688,0.8461538461538461,0.9615384615384616,0.8571428571428571,0.7857142857142857,0.0004
456,0.5596701800823212,0.8530163764953613,0.8269230769230769,0.9615384615384616,0.8571428571428571,0.7857142857142857,0.0004
457,0.4893281012773514,0.8696588277816772,0.8076923076923077,0.9423076923076923,0.7857142857142857,0.8571428571428571,0.0004
458,0.2561248689889908,0.4395560026168823,0.9423076923076923,0.9615384615384616,1.0,0.7857142857142857,0.0004
459,0.3844102919101715,0.9043009877204895,0.9230769230769231,0.9423076923076923,0.7857142857142857,0.8571428571428571,0.0004
460,0.40820425003767014,0.8214626908302307,0.9230769230769231,0.8846153846153846,0.7857142857142857,0.7857142857142857,0.0004
461,0.2303961217403412,0.9248085021972656,0.9615384615384616,0.9807692307692307,0.7857142857142857,0.7857142857142857,0.0004
462,0.39908455312252045,0.7689422965049744,0.9423076923076923,0.9230769230769231,0.8571428571428571,0.8571428571428571,0.0004
463,0.45006828010082245,0.9206675291061401,0.8653846153846154,0.9230769230769231,0.7857142857142857,0.7857142857142857,0.0004
464,0.38711346685886383,1.0785143375396729,0.9423076923076923,0.9423076923076923,0.7857142857142857,0.7142857142857143,0.0004
465,0.4754348397254944,0.8812142610549927,0.8846153846153846,0.9423076923076923,0.9285714285714286,0.7857142857142857,0.0004
466,0.7982712984085083,1.8065783977508545,0.7884615384615384,0.9038461538461539,0.7857142857142857,0.5,0.0004
467,0.367386594414711,1.3891996145248413,0.9038461538461539,0.9230769230769231,0.7142857142857143,0.8571428571428571,0.0004
468,0.38676808774471283,0.9386414289474487,0.8846153846153846,0.9230769230769231,0.7142857142857143,0.8571428571428571,0.0004
469,0.43613195419311523,0.5709444284439087,0.9038461538461539,0.8846153846153846,0.7142857142857143,0.9285714285714286,0.0004
470,0.48014986515045166,0.4696725010871887,0.8846153846153846,0.9230769230769231,0.9285714285714286,0.8571428571428571,0.0004
471,0.44395171105861664,0.8678509593009949,0.9230769230769231,0.8653846153846154,0.6428571428571429,0.8571428571428571,0.0004
472,0.39004334807395935,0.7551998496055603,0.9230769230769231,0.9230769230769231,0.9285714285714286,0.7142857142857143,0.0004
473,0.3461878001689911,0.6982890367507935,0.8653846153846154,0.9615384615384616,0.9285714285714286,0.7857142857142857,0.0004
474,0.4063480496406555,0.6072577238082886,0.9230769230769231,0.9038461538461539,0.9285714285714286,0.7857142857142857,0.0004
475,0.4828675389289856,0.9711964726448059,0.8846153846153846,0.9615384615384616,0.8571428571428571,0.6428571428571429,0.0004
476,0.45303821563720703,1.1211456060409546,0.8653846153846154,0.9615384615384616,0.7857142857142857,0.8571428571428571,0.0004
477,0.3578387051820755,1.0176886320114136,0.9038461538461539,0.9423076923076923,0.7857142857142857,0.7142857142857143,0.0004
478,0.4237666130065918,1.4860467910766602,0.9230769230769231,0.9230769230769231,0.6428571428571429,0.7857142857142857,0.0004
479,0.6039029061794281,0.822281002998352,0.8269230769230769,0.9423076923076923,0.9285714285714286,0.7857142857142857,0.0004
480,0.5350559204816818,0.560141384601593,0.8653846153846154,0.9423076923076923,0.9285714285714286,0.8571428571428571,0.0004
481,0.39367130398750305,1.6273314952850342,0.9038461538461539,0.9807692307692307,0.7142857142857143,0.7142857142857143,0.0004
482,0.2542012706398964,0.9351081252098083,0.9615384615384616,0.9038461538461539,0.7857142857142857,0.7142857142857143,0.0004
483,0.38936544954776764,1.6666538715362549,0.9230769230769231,0.9230769230769231,0.7142857142857143,0.7142857142857143,0.0004
484,0.4794369786977768,1.0217399597167969,0.8461538461538461,0.9038461538461539,0.8571428571428571,0.6428571428571429,0.0004
485,0.47777679562568665,0.7135127782821655,0.8846153846153846,0.9230769230769231,0.8571428571428571,0.7142857142857143,0.0004
486,0.5038611441850662,0.3793155252933502,0.8269230769230769,0.9615384615384616,0.9285714285714286,0.9285714285714286,0.0004
487,0.4075692892074585,0.767989993095398,0.9038461538461539,0.9230769230769231,0.9285714285714286,0.7857142857142857,0.0004
488,0.4176987111568451,0.8284409046173096,0.9423076923076923,0.8846153846153846,0.7857142857142857,0.9285714285714286,0.0004
489,0.48733818531036377,0.5877314209938049,0.9038461538461539,0.9038461538461539,0.9285714285714286,0.7142857142857143,0.0004
490,0.5557790398597717,0.6709152460098267,0.8846153846153846,0.9230769230769231,0.7857142857142857,0.8571428571428571,0.0004
491,0.47803153097629547,1.0421030521392822,0.8846153846153846,0.9230769230769231,0.7857142857142857,0.6428571428571429,0.0004
492,0.3635267913341522,0.9033480882644653,0.8846153846153846,0.9615384615384616,0.8571428571428571,0.7857142857142857,0.0004
493,0.3247288465499878,1.1284154653549194,0.9423076923076923,0.9423076923076923,0.7142857142857143,0.8571428571428571,0.0004
494,0.5205826759338379,0.7344609498977661,0.8076923076923077,0.9615384615384616,0.7857142857142857,0.8571428571428571,0.0004
495,0.43697232007980347,0.9106894731521606,0.8653846153846154,0.9230769230769231,0.8571428571428571,0.9285714285714286,0.0004
496,0.40515682101249695,0.9727423787117004,0.8269230769230769,0.9807692307692307,0.7142857142857143,1.0,0.0004
497,0.5219743847846985,0.9130408763885498,0.8076923076923077,0.9423076923076923,0.7857142857142857,0.7857142857142857,0.0004
498,0.2585334740579128,0.8463255167007446,0.9423076923076923,0.9615384615384616,0.8571428571428571,0.7857142857142857,0.0004
499,0.48949749767780304,1.1334055662155151,0.8461538461538461,0.9230769230769231,0.6428571428571429,0.9285714285714286,0.0004
500,0.403964638710022,1.1554511785507202,0.9038461538461539,0.9807692307692307,0.5714285714285714,0.7857142857142857,0.0004
501,0.31515949964523315,0.9729020595550537,0.9230769230769231,1.0,0.7142857142857143,0.8571428571428571,0.0004
502,0.33530277758836746,1.2926442623138428,0.9230769230769231,0.9807692307692307,0.7857142857142857,0.7857142857142857,0.0004
503,0.406337171792984,1.4199104309082031,0.9230769230769231,0.9615384615384616,0.7142857142857143,0.7142857142857143,0.0004
504,0.505342036485672,1.9089794158935547,0.9038461538461539,0.9615384615384616,0.7142857142857143,0.7857142857142857,0.0004
505,0.8311021625995636,0.8424825072288513,0.8269230769230769,0.9038461538461539,0.8571428571428571,0.7142857142857143,0.0004
506,0.3998553603887558,1.6865856647491455,0.9230769230769231,0.9230769230769231,0.7142857142857143,0.7142857142857143,0.0004
507,0.567587673664093,0.8054454922676086,0.7884615384615384,0.9423076923076923,0.8571428571428571,0.7857142857142857,0.0004
508,0.44636934995651245,1.06190824508667,0.8269230769230769,0.9230769230769231,0.8571428571428571,0.7142857142857143,0.0004
509,0.7543393522500992,0.7090235948562622,0.8846153846153846,0.8846153846153846,0.9285714285714286,0.7142857142857143,0.0004
510,0.5810740292072296,1.0062220096588135,0.8846153846153846,0.9038461538461539,0.7857142857142857,0.8571428571428571,0.0004
511,0.39262180030345917,1.0165172815322876,0.9038461538461539,0.9038461538461539,0.8571428571428571,0.8571428571428571,0.0004
512,0.565123587846756,0.7257118225097656,0.8461538461538461,0.9230769230769231,0.7857142857142857,0.9285714285714286,0.0004
513,0.3863467574119568,0.8689305782318115,0.8653846153846154,0.9230769230769231,0.7857142857142857,0.8571428571428571,0.0004
514,0.6753861904144287,0.8396496772766113,0.8461538461538461,0.9230769230769231,0.7857142857142857,0.7857142857142857,0.0004
515,0.32604163885116577,0.9463881850242615,0.8653846153846154,0.9807692307692307,0.8571428571428571,0.6428571428571429,0.0004
516,0.3005477786064148,1.4892292022705078,0.9615384615384616,0.9423076923076923,0.7142857142857143,0.7142857142857143,0.0004
517,0.5353831499814987,1.068711757659912,0.8269230769230769,0.8846153846153846,0.9285714285714286,0.7142857142857143,0.0004
518,0.5096873790025711,1.2636884450912476,0.8269230769230769,0.9423076923076923,0.8571428571428571,0.7142857142857143,0.0004
519,0.4522063136100769,1.3968490362167358,0.8461538461538461,0.9615384615384616,0.7857142857142857,0.7142857142857143,0.0004
520,0.28998687863349915,1.6099889278411865,0.9807692307692307,0.9423076923076923,0.7142857142857143,0.6428571428571429,0.0004
521,0.5494559705257416,0.9282974600791931,0.8653846153846154,0.9230769230769231,0.7857142857142857,0.8571428571428571,0.0004
522,0.43398571014404297,1.4675571918487549,0.9038461538461539,0.9423076923076923,0.6428571428571429,0.8571428571428571,0.0004
523,0.8022230863571167,0.4665849506855011,0.8269230769230769,0.9038461538461539,0.9285714285714286,0.9285714285714286,0.0004
524,0.556639164686203,0.6125232577323914,0.8269230769230769,0.8846153846153846,0.8571428571428571,0.8571428571428571,0.0004
525,0.5987107753753662,1.2182685136795044,0.7884615384615384,0.9423076923076923,0.7857142857142857,0.7142857142857143,0.0004
526,0.3683139383792877,0.8614413738250732,0.9038461538461539,0.9615384615384616,0.8571428571428571,0.7142857142857143,0.0004
527,0.4706198126077652,0.6747485399246216,0.8653846153846154,0.9615384615384616,0.8571428571428571,0.7857142857142857,0.0004
528,0.44453082978725433,1.5178070068359375,0.8653846153846154,0.9807692307692307,0.7857142857142857,0.7142857142857143,0.0004
529,0.36486437916755676,0.8159533739089966,0.9038461538461539,0.9423076923076923,0.6428571428571429,0.9285714285714286,0.0004
530,0.45748133957386017,1.3808941841125488,0.8846153846153846,0.9230769230769231,0.7142857142857143,0.8571428571428571,0.0004
531,0.3878427892923355,0.7848557233810425,0.8846153846153846,0.9423076923076923,0.8571428571428571,0.7857142857142857,0.0004
532,0.3647788017988205,0.9010646343231201,0.8653846153846154,0.9423076923076923,0.8571428571428571,0.6428571428571429,0.0004
533,0.38168764114379883,0.6243008971214294,0.9230769230769231,0.9038461538461539,0.9285714285714286,0.7142857142857143,0.0004
534,0.34061454236507416,0.5834382772445679,0.9038461538461539,0.9807692307692307,0.9285714285714286,0.7857142857142857,0.0004
535,0.40269072353839874,0.7065975666046143,0.9038461538461539,0.9615384615384616,0.8571428571428571,0.8571428571428571,0.0004
536,0.4538083076477051,0.8074555397033691,0.9038461538461539,0.9038461538461539,0.8571428571428571,0.8571428571428571,0.0004
537,0.38541020452976227,0.4050006866455078,0.9615384615384616,0.9230769230769231,1.0,0.9285714285714286,0.0004
538,0.5000180602073669,1.1189391613006592,0.8846153846153846,0.9423076923076923,0.6428571428571429,0.7857142857142857,0.0004
539,0.49824003875255585,1.2514209747314453,0.8461538461538461,0.9615384615384616,0.8571428571428571,0.6428571428571429,0.0004
540,0.5476904511451721,0.7082775831222534,0.9038461538461539,0.9230769230769231,0.7857142857142857,0.7857142857142857,0.0004
541,0.3281601071357727,1.0324907302856445,0.9423076923076923,0.9423076923076923,0.7142857142857143,1.0,0.0004
542,0.7370909154415131,0.7391506433486938,0.8461538461538461,0.9038461538461539,0.7857142857142857,0.7142857142857143,0.0004
543,0.47591084241867065,1.5828555822372437,0.8653846153846154,0.9038461538461539,0.5,0.9285714285714286,0.0004
544,0.47467002272605896,0.9683221578598022,0.8269230769230769,0.9615384615384616,0.7857142857142857,0.7142857142857143,0.0004
545,0.40189941227436066,0.9073053598403931,0.9230769230769231,0.9615384615384616,0.7857142857142857,0.8571428571428571,0.0004
546,0.5265763998031616,1.2709734439849854,0.8269230769230769,0.9230769230769231,0.7857142857142857,0.6428571428571429,0.0004
547,0.4255873113870621,1.266776204109192,0.9423076923076923,0.9230769230769231,0.5714285714285714,0.8571428571428571,0.0004
548,0.4794473946094513,0.7060242891311646,0.8461538461538461,0.9807692307692307,0.8571428571428571,0.7142857142857143,0.0004
549,0.39091090857982635,0.769436240196228,0.9038461538461539,0.9230769230769231,0.8571428571428571,0.7857142857142857,0.0004
550,0.41558487713336945,1.499595284461975,0.9230769230769231,0.9038461538461539,0.8571428571428571,0.7857142857142857,0.0004
551,0.40831631422042847,1.0726650953292847,0.8846153846153846,0.9615384615384616,0.7857142857142857,0.7857142857142857,0.0004
552,0.5900346487760544,1.5570294857025146,0.7692307692307693,0.9615384615384616,0.7142857142857143,0.7857142857142857,0.0004
553,0.33750320971012115,1.1279292106628418,0.8461538461538461,0.9807692307692307,0.8571428571428571,0.7142857142857143,0.0004
554,0.3207373023033142,0.5609680414199829,0.9038461538461539,0.9423076923076923,0.7857142857142857,0.7857142857142857,0.0004
555,0.4050683155655861,0.744900107383728,0.8461538461538461,0.9615384615384616,0.7857142857142857,0.8571428571428571,0.0004
556,0.3823702484369278,1.2042553424835205,0.8846153846153846,0.9038461538461539,0.8571428571428571,0.6428571428571429,0.0004
557,0.2767529636621475,0.9751825332641602,1.0,0.9423076923076923,0.9285714285714286,0.7142857142857143,0.0004
558,0.419388085603714,0.5625519752502441,0.9038461538461539,0.9038461538461539,0.9285714285714286,0.8571428571428571,0.0004
559,0.37271617352962494,0.8555029630661011,0.8846153846153846,0.9807692307692307,0.7142857142857143,0.8571428571428571,0.0004
560,0.38124945759773254,0.6818953156471252,0.9230769230769231,0.9423076923076923,0.7857142857142857,0.7142857142857143,0.0004
561,0.31794145703315735,0.9598262310028076,0.9038461538461539,0.9615384615384616,0.7857142857142857,0.7857142857142857,0.0004
562,0.37399226427078247,0.785879373550415,0.8653846153846154,0.9807692307692307,1.0,0.7142857142857143,0.0004
563,0.37577664852142334,1.0406039953231812,0.9230769230769231,0.9423076923076923,0.7142857142857143,0.8571428571428571,0.0004
564,0.29626044631004333,0.7549996376037598,0.9423076923076923,0.9230769230769231,0.9285714285714286,0.7857142857142857,0.0004
565,0.40829744935035706,0.6623926162719727,0.8846153846153846,0.9615384615384616,0.7857142857142857,0.9285714285714286,0.0004
566,0.3679194673895836,1.2434601783752441,0.8846153846153846,0.9423076923076923,0.7857142857142857,0.6428571428571429,0.0004
567,0.5247588455677032,0.6663724184036255,0.8846153846153846,0.9230769230769231,0.7857142857142857,0.8571428571428571,0.0004
568,0.2656664401292801,0.6027740240097046,0.9230769230769231,0.9615384615384616,0.9285714285714286,0.7857142857142857,0.0004
569,0.30233243107795715,0.6254922151565552,0.9038461538461539,0.9807692307692307,0.7142857142857143,0.9285714285714286,0.0004
570,0.514002114534378,0.6488579511642456,0.8269230769230769,0.9423076923076923,0.7857142857142857,0.7857142857142857,0.0004
571,0.4957382380962372,0.5131734609603882,0.8653846153846154,0.9423076923076923,0.8571428571428571,0.8571428571428571,0.0004
572,0.23879191279411316,0.4993654489517212,0.9423076923076923,0.9615384615384616,0.8571428571428571,0.9285714285714286,0.0004
573,0.4557501822710037,0.7396388649940491,0.9038461538461539,0.9423076923076923,0.9285714285714286,0.8571428571428571,0.0004
574,0.28476011008024216,0.8766507506370544,0.9230769230769231,1.0,0.7857142857142857,0.7857142857142857,0.0004
575,0.3030683696269989,1.266327142715454,0.9230769230769231,0.9230769230769231,0.7142857142857143,0.7857142857142857,0.0004
576,0.34849274158477783,1.1012272834777832,0.9423076923076923,0.9423076923076923,0.8571428571428571,0.7857142857142857,0.0004
577,0.37233853340148926,1.4772202968597412,0.8846153846153846,0.9423076923076923,0.7142857142857143,0.8571428571428571,0.0004
578,0.5484950840473175,0.5304473042488098,0.9230769230769231,0.9615384615384616,0.9285714285714286,0.7857142857142857,0.0004
579,0.4273461401462555,0.611680269241333,0.8461538461538461,0.9615384615384616,0.9285714285714286,0.7857142857142857,0.0004
580,0.4195457845926285,1.4347920417785645,0.9038461538461539,0.9615384615384616,0.7142857142857143,0.8571428571428571,0.0004
581,0.4198945462703705,0.927328884601593,0.8269230769230769,0.9807692307692307,0.8571428571428571,0.7857142857142857,0.0004
582,0.31648070365190506,1.1678037643432617,0.9423076923076923,0.9230769230769231,1.0,0.7142857142857143,0.0004
583,0.35660043358802795,0.9002893567085266,0.9230769230769231,0.9807692307692307,0.7142857142857143,0.9285714285714286,0.0004
584,0.2628333866596222,1.4364049434661865,0.9230769230769231,0.9615384615384616,0.8571428571428571,0.7142857142857143,0.0004
585,0.38932643085718155,0.6614881753921509,0.9038461538461539,0.9038461538461539,0.8571428571428571,0.8571428571428571,0.0004
586,0.3210015743970871,0.8575839400291443,0.9230769230769231,0.9423076923076923,0.9285714285714286,0.7142857142857143,0.0004
587,0.31980758905410767,0.8775779604911804,0.9423076923076923,0.9423076923076923,0.8571428571428571,0.8571428571428571,0.0004
588,0.4441247880458832,0.7014027833938599,0.8846153846153846,0.9230769230769231,0.9285714285714286,0.8571428571428571,0.0004
589,0.20673108100891113,0.9539047479629517,0.9807692307692307,0.9615384615384616,0.7857142857142857,0.8571428571428571,0.0004
590,0.49846693873405457,0.7636988759040833,0.9038461538461539,0.9230769230769231,0.8571428571428571,0.8571428571428571,0.0004
591,0.3491937071084976,0.8673479557037354,0.9038461538461539,0.9615384615384616,0.7142857142857143,0.9285714285714286,0.0004
592,0.37708164751529694,0.8718896508216858,0.8653846153846154,0.9423076923076923,0.8571428571428571,0.7857142857142857,0.0004
593,0.565639078617096,0.791212797164917,0.8269230769230769,0.9038461538461539,0.7142857142857143,1.0,0.0004
594,0.3846208453178406,0.5417190194129944,0.9038461538461539,0.9615384615384616,0.9285714285714286,0.9285714285714286,0.0004
595,0.3719097822904587,0.7580055594444275,0.9038461538461539,0.9230769230769231,0.8571428571428571,0.8571428571428571,0.0004
596,0.2462782859802246,0.7996331453323364,0.9230769230769231,0.9807692307692307,0.8571428571428571,0.8571428571428571,0.0004
597,0.30666543543338776,1.9741801023483276,0.9230769230769231,0.9615384615384616,0.8571428571428571,0.6428571428571429,0.0004
598,0.3601110726594925,1.387660026550293,0.9038461538461539,0.9615384615384616,0.7857142857142857,0.7857142857142857,0.0004
599,0.2895733192563057,1.3244569301605225,0.9038461538461539,0.9423076923076923,0.7857142857142857,0.8571428571428571,0.0004
600,0.5096721947193146,1.3452359437942505,0.9423076923076923,0.8461538461538461,0.7142857142857143,0.8571428571428571,0.0004
601,0.5183600783348083,0.3793460428714752,0.8076923076923077,0.9615384615384616,1.0,0.8571428571428571,0.0004
602,0.299649678170681,0.6571070551872253,0.8846153846153846,0.9807692307692307,0.9285714285714286,0.8571428571428571,0.0004
603,0.3992725759744644,0.8501439094543457,0.8653846153846154,0.9230769230769231,0.8571428571428571,0.7857142857142857,0.0004
604,0.7110683023929596,1.2486451864242554,0.7884615384615384,0.9423076923076923,0.8571428571428571,0.7142857142857143,0.0004
605,0.5112991333007812,0.8472197651863098,0.9423076923076923,0.9230769230769231,0.6428571428571429,0.8571428571428571,0.0004
606,0.5506044775247574,0.6876915097236633,0.8653846153846154,0.9423076923076923,0.8571428571428571,0.7857142857142857,0.0004
607,0.4372139275074005,0.6268386840820312,0.8846153846153846,0.9038461538461539,0.9285714285714286,0.8571428571428571,0.0004
608,0.37353143095970154,0.613649845123291,0.9230769230769231,0.9807692307692307,0.7857142857142857,0.8571428571428571,0.0004
609,0.2773210257291794,1.190149188041687,0.8461538461538461,0.9807692307692307,0.7857142857142857,0.7857142857142857,0.0004
610,0.3102278709411621,2.0319290161132812,0.9423076923076923,0.8846153846153846,0.6428571428571429,0.7142857142857143,0.0004
611,0.5143992006778717,1.7615257501602173,0.8461538461538461,0.9038461538461539,0.7142857142857143,0.7857142857142857,0.0004
612,0.5127987563610077,1.4091110229492188,0.8269230769230769,0.9423076923076923,0.7142857142857143,0.7857142857142857,0.0004
613,0.3925577998161316,0.9148411750793457,0.8653846153846154,0.9615384615384616,0.7142857142857143,0.7857142857142857,0.0004
614,0.5165522396564484,0.7601374387741089,0.8653846153846154,0.9230769230769231,0.7857142857142857,0.7857142857142857,0.0004
615,0.43392717838287354,0.8549741506576538,0.8653846153846154,0.9423076923076923,0.7857142857142857,0.7857142857142857,0.0004
616,0.3210310637950897,1.5269134044647217,0.9423076923076923,0.9423076923076923,0.7142857142857143,0.7857142857142857,0.0004
617,0.6739150285720825,0.9219759702682495,0.8653846153846154,0.9423076923076923,0.6428571428571429,0.9285714285714286,0.0004
618,0.4595307409763336,0.9383063316345215,0.8653846153846154,0.9423076923076923,0.9285714285714286,0.7142857142857143,0.0004
619,0.29043731838464737,1.084039568901062,0.9038461538461539,0.9807692307692307,0.7857142857142857,0.7857142857142857,0.0004
620,0.4930374324321747,0.7850245237350464,0.8846153846153846,0.9423076923076923,0.9285714285714286,0.7142857142857143,0.0004
621,0.36004799604415894,1.4097540378570557,0.8846153846153846,0.9807692307692307,0.7142857142857143,0.7857142857142857,0.0004
622,0.37758995592594147,1.5474814176559448,0.9423076923076923,0.9807692307692307,0.6428571428571429,0.7857142857142857,0.0004
623,0.3026188611984253,1.276727318763733,0.9038461538461539,0.9615384615384616,0.6428571428571429,0.9285714285714286,0.0004
624,0.4587726891040802,0.982756495475769,0.8653846153846154,0.9230769230769231,0.7857142857142857,0.8571428571428571,0.0004
625,0.29854869842529297,0.8712533712387085,0.9230769230769231,0.9423076923076923,0.7857142857142857,0.8571428571428571,0.0004
626,0.4181912839412689,1.3216850757598877,0.8846153846153846,0.9423076923076923,0.6428571428571429,0.8571428571428571,0.0004
627,0.38348808884620667,1.0374863147735596,0.8653846153846154,0.9807692307692307,0.8571428571428571,0.8571428571428571,0.0004
628,0.29926905035972595,1.0500110387802124,0.9423076923076923,0.9615384615384616,0.8571428571428571,0.7142857142857143,0.0004
629,0.31925369799137115,0.546241044998169,0.8846153846153846,0.9807692307692307,0.8571428571428571,0.8571428571428571,0.0004
630,0.39308178424835205,0.6537157297134399,0.8846153846153846,0.9807692307692307,0.9285714285714286,0.9285714285714286,0.0004
631,0.39049096405506134,0.6422311067581177,0.9038461538461539,0.9615384615384616,0.9285714285714286,0.8571428571428571,0.0004
632,0.4929123818874359,1.0345921516418457,0.9230769230769231,0.9230769230769231,0.7857142857142857,0.7857142857142857,0.0004
633,0.5187271535396576,0.8183373212814331,0.8846153846153846,0.9423076923076923,0.8571428571428571,0.8571428571428571,0.0004
634,0.4250509440898895,0.8725329637527466,0.8846153846153846,0.9615384615384616,0.7142857142857143,1.0,0.0004
635,0.3893652856349945,0.7072697877883911,0.8846153846153846,0.9423076923076923,0.9285714285714286,0.8571428571428571,0.0004
636,0.31917113065719604,0.7241796255111694,0.9423076923076923,0.9230769230769231,0.9285714285714286,0.7857142857142857,0.0004
637,0.3027456998825073,0.7686375379562378,0.9038461538461539,0.9807692307692307,0.8571428571428571,0.7857142857142857,0.0004
638,0.32582230865955353,0.3433314263820648,0.8846153846153846,0.9615384615384616,1.0,0.7857142857142857,0.0004
639,0.3043791502714157,1.1257702112197876,0.9038461538461539,0.9615384615384616,0.8571428571428571,0.7142857142857143,0.0004
640,0.6213138401508331,1.5021312236785889,0.8076923076923077,0.9230769230769231,0.5714285714285714,0.7857142857142857,0.0004
641,0.2767379879951477,0.8167129755020142,0.9038461538461539,0.9807692307692307,0.7142857142857143,0.8571428571428571,0.0004
642,0.2265346497297287,0.825279951095581,0.9230769230769231,0.9807692307692307,0.8571428571428571,0.9285714285714286,0.0004
643,0.28390727937221527,0.6598531007766724,0.9423076923076923,0.9615384615384616,0.9285714285714286,0.7142857142857143,0.0004
644,0.2807253301143646,0.9100813865661621,0.9230769230769231,0.9615384615384616,0.8571428571428571,0.7142857142857143,0.0004
645,0.27939141541719437,1.3798975944519043,0.9038461538461539,0.9423076923076923,0.5714285714285714,0.8571428571428571,0.0004
646,0.21611957997083664,0.8185880184173584,0.9615384615384616,0.9807692307692307,0.7857142857142857,0.7857142857142857,0.0004
647,0.4327859878540039,1.0998406410217285,0.9230769230769231,0.9615384615384616,0.7142857142857143,0.7857142857142857,0.0004
648,0.3906061351299286,0.7913662195205688,0.9423076923076923,0.9230769230769231,0.8571428571428571,0.6428571428571429,0.0004
649,0.32533805072307587,1.1574312448501587,0.9038461538461539,0.9230769230769231,0.8571428571428571,0.7857142857142857,0.0004
650,0.3517104685306549,0.9036487340927124,0.9038461538461539,0.9807692307692307,0.7857142857142857,0.7142857142857143,0.0004
651,0.40838147699832916,0.931010901927948,0.9423076923076923,0.8846153846153846,0.9285714285714286,0.8571428571428571,0.0004
652,0.286210373044014,0.9026013612747192,0.9230769230769231,0.9423076923076923,0.7142857142857143,0.7857142857142857,0.0004
653,0.21338827908039093,2.129401683807373,0.9423076923076923,1.0,0.7142857142857143,0.7142857142857143,0.0004
654,0.5369634479284286,1.045531988143921,0.8461538461538461,0.9423076923076923,0.7857142857142857,0.7857142857142857,0.0004
655,0.24898190051317215,0.5732914209365845,0.9807692307692307,0.9615384615384616,0.8571428571428571,0.7857142857142857,0.0004
656,0.4847571849822998,0.9058517813682556,0.8653846153846154,0.9807692307692307,0.7857142857142857,0.8571428571428571,0.0004
657,0.249501571059227,1.352219581604004,0.9423076923076923,0.9807692307692307,0.7857142857142857,0.6428571428571429,0.0004
658,0.2686462327837944,0.7924984693527222,0.9615384615384616,0.9615384615384616,0.9285714285714286,0.7142857142857143,0.0004
659,0.2120407074689865,1.5540201663970947,0.9615384615384616,0.9807692307692307,0.6428571428571429,0.7142857142857143,0.0004
660,0.47850318253040314,1.6474852561950684,0.9038461538461539,0.9230769230769231,0.6428571428571429,0.7857142857142857,0.0004
661,0.6035417467355728,0.6978008151054382,0.8076923076923077,0.9615384615384616,0.9285714285714286,0.7142857142857143,0.0004
662,0.33636948466300964,1.0056556463241577,0.9038461538461539,0.9230769230769231,0.8571428571428571,0.7857142857142857,0.0004
663,0.3340727686882019,1.0935121774673462,0.9038461538461539,0.9615384615384616,0.9285714285714286,0.5714285714285714,0.0004
664,0.21009189635515213,1.3011868000030518,0.9230769230769231,0.9807692307692307,0.8571428571428571,0.7142857142857143,0.0004
665,0.41985632479190826,0.9192105531692505,0.8653846153846154,0.9423076923076923,0.9285714285714286,0.7142857142857143,0.0004
666,0.47468963265419006,1.1180284023284912,0.8846153846153846,0.9615384615384616,0.7142857142857143,0.7857142857142857,0.0004
667,0.40567490458488464,1.1038753986358643,0.8846153846153846,1.0,0.7857142857142857,0.7857142857142857,0.0004
668,0.3035136014223099,0.7030250430107117,0.9038461538461539,0.9615384615384616,0.8571428571428571,0.8571428571428571,0.0004
669,0.3565749377012253,1.1872180700302124,0.9423076923076923,0.9038461538461539,0.7142857142857143,0.8571428571428571,0.0004
670,0.4858001470565796,0.6686539053916931,0.8269230769230769,0.9615384615384616,0.9285714285714286,0.7142857142857143,0.0004
671,0.44458436965942383,0.8707066774368286,0.8653846153846154,0.9230769230769231,0.7142857142857143,0.8571428571428571,0.0004
672,0.508988618850708,0.5428200364112854,0.8653846153846154,0.9423076923076923,0.8571428571428571,0.9285714285714286,0.0004
673,0.3153855949640274,0.7231239080429077,0.9615384615384616,0.9615384615384616,0.8571428571428571,0.7857142857142857,0.0004
674,0.46170641481876373,1.0651590824127197,0.9230769230769231,0.9615384615384616,0.7142857142857143,0.7142857142857143,0.0004
675,0.47437962889671326,1.0934638977050781,0.8076923076923077,0.9615384615384616,0.8571428571428571,0.7142857142857143,0.0004
676,0.5565178096294403,0.5313699841499329,0.8461538461538461,0.8653846153846154,0.9285714285714286,0.8571428571428571,0.0004
677,0.745582640171051,0.9634197354316711,0.8461538461538461,0.9038461538461539,0.7857142857142857,0.7857142857142857,0.0004
678,0.4120591878890991,0.5493532419204712,0.9038461538461539,0.9230769230769231,0.8571428571428571,0.8571428571428571,0.0004
679,0.31992144137620926,1.2287123203277588,0.9423076923076923,0.9423076923076923,0.6428571428571429,0.8571428571428571,0.0004
680,0.4219236373901367,0.771757960319519,0.8653846153846154,0.9423076923076923,0.8571428571428571,0.9285714285714286,0.0004
681,0.2752417102456093,0.7989670038223267,0.9423076923076923,0.9615384615384616,0.7857142857142857,0.7857142857142857,0.0004
682,0.7335224598646164,1.2182608842849731,0.8076923076923077,0.9615384615384616,0.7857142857142857,0.8571428571428571,0.0004
683,0.42040227353572845,1.3921589851379395,0.9038461538461539,0.9423076923076923,0.7142857142857143,0.7857142857142857,0.0004
684,0.2930998206138611,1.0286496877670288,0.9038461538461539,0.9807692307692307,0.8571428571428571,0.8571428571428571,0.0004
685,0.3630286306142807,1.068547248840332,0.9230769230769231,0.9807692307692307,0.7857142857142857,0.8571428571428571,0.0004
686,0.573745459318161,1.073176383972168,0.7884615384615384,0.9615384615384616,0.6428571428571429,0.7857142857142857,0.0004
687,0.6547635346651077,1.0364837646484375,0.8461538461538461,0.9038461538461539,0.7142857142857143,0.9285714285714286,0.0004
688,0.3523232638835907,1.3064230680465698,0.8269230769230769,1.0,0.7142857142857143,0.7142857142857143,0.0004
689,0.47771012783050537,1.0039619207382202,0.8461538461538461,0.9423076923076923,0.8571428571428571,0.8571428571428571,0.0004
690,0.2988923564553261,1.6682014465332031,0.9230769230769231,0.9423076923076923,0.7142857142857143,0.7857142857142857,0.0004
691,0.44373205304145813,0.6505743861198425,0.8653846153846154,0.9615384615384616,0.9285714285714286,0.7857142857142857,0.0004
692,0.3147558569908142,0.3677867650985718,0.9230769230769231,0.9615384615384616,1.0,0.8571428571428571,0.0004
693,0.5004488229751587,0.9806685447692871,0.8653846153846154,0.9230769230769231,0.7857142857142857,0.7857142857142857,0.0004
694,0.44119805097579956,0.4613599479198456,0.8653846153846154,1.0,0.8571428571428571,0.8571428571428571,0.0004
695,0.3941093683242798,0.555854320526123,0.9230769230769231,0.9230769230769231,0.7857142857142857,0.8571428571428571,0.0004
696,0.4323379695415497,0.5043686628341675,0.9423076923076923,0.9230769230769231,0.9285714285714286,0.8571428571428571,0.0004
697,0.5375547111034393,0.7053943276405334,0.8846153846153846,0.9423076923076923,0.9285714285714286,0.9285714285714286,0.0004
698,0.46475552022457123,0.4139363765716553,0.8653846153846154,0.9230769230769231,0.9285714285714286,0.8571428571428571,0.0004
699,0.3722084164619446,1.3152501583099365,0.9423076923076923,0.9423076923076923,0.7142857142857143,0.7142857142857143,0.0004
700,0.6449609994888306,1.0756632089614868,0.7884615384615384,0.9423076923076923,0.6428571428571429,0.8571428571428571,0.0004
701,0.39376644790172577,1.3625551462173462,0.9230769230769231,0.9423076923076923,0.7142857142857143,0.8571428571428571,0.0004
702,0.6778493821620941,0.7772728204727173,0.8653846153846154,0.8846153846153846,0.7142857142857143,0.7857142857142857,0.0004
703,0.4415881186723709,1.487494945526123,0.8269230769230769,0.9615384615384616,0.7142857142857143,0.7857142857142857,0.0004
704,0.2676168233156204,1.0087025165557861,0.9230769230769231,0.9615384615384616,0.7857142857142857,0.7857142857142857,0.0004
705,0.5034788250923157,0.7789003849029541,0.8846153846153846,0.9423076923076923,0.8571428571428571,0.7857142857142857,0.0004
706,0.539019450545311,0.7129061222076416,0.8461538461538461,0.9230769230769231,0.8571428571428571,0.7857142857142857,0.0004
707,0.39088328182697296,1.3765380382537842,0.9038461538461539,0.9423076923076923,0.5714285714285714,0.7857142857142857,0.0004
708,0.5240648239850998,1.0779657363891602,0.8269230769230769,0.9423076923076923,0.7142857142857143,0.7857142857142857,0.0004
709,0.4447590708732605,0.9394508600234985,0.8846153846153846,0.9038461538461539,0.9285714285714286,0.7142857142857143,0.0004
710,0.4259013682603836,0.8186084032058716,0.9038461538461539,0.9230769230769231,0.7857142857142857,0.8571428571428571,0.0004
711,0.4307903051376343,0.628162145614624,0.8461538461538461,0.9423076923076923,1.0,0.7857142857142857,0.0004
712,0.4482998102903366,1.756014108657837,0.8846153846153846,0.9230769230769231,0.5,0.8571428571428571,0.0004
713,0.48708873987197876,0.9302701950073242,0.8461538461538461,0.9230769230769231,0.7142857142857143,0.7857142857142857,0.0004
714,0.3514331877231598,1.3018558025360107,0.9230769230769231,0.9423076923076923,0.7142857142857143,0.6428571428571429,0.0004
715,0.40844668447971344,0.9352465271949768,0.8846153846153846,0.9230769230769231,0.8571428571428571,0.8571428571428571,0.0004
716,0.36842624843120575,0.7098830342292786,0.9038461538461539,0.9807692307692307,0.9285714285714286,0.7142857142857143,0.0004
717,0.3006274551153183,1.2925684452056885,0.9423076923076923,0.9230769230769231,0.7857142857142857,0.7857142857142857,0.0004
718,0.36730727553367615,0.7288078665733337,0.9230769230769231,0.8846153846153846,0.7857142857142857,0.8571428571428571,0.0004
719,0.37697000801563263,1.1099028587341309,0.9230769230769231,0.9230769230769231,0.8571428571428571,0.7142857142857143,0.0004
720,0.41830378770828247,0.905260443687439,0.9038461538461539,0.9423076923076923,0.8571428571428571,0.9285714285714286,0.0004
721,0.32015863060951233,1.2707998752593994,0.9038461538461539,0.9807692307692307,0.7142857142857143,0.7857142857142857,0.0004
722,0.34934110939502716,1.1608139276504517,0.9038461538461539,0.9807692307692307,0.6428571428571429,0.7857142857142857,0.0004
723,0.4253351241350174,1.361950159072876,0.9038461538461539,0.9230769230769231,0.7142857142857143,0.7857142857142857,0.0004
724,0.30044472217559814,1.5147396326065063,0.9038461538461539,0.9615384615384616,0.6428571428571429,0.6428571428571429,0.0004
725,0.35872596502304077,1.2673708200454712,0.9230769230769231,0.9423076923076923,0.6428571428571429,0.8571428571428571,0.0004
726,0.3660934343934059,1.5060369968414307,0.8846153846153846,0.9423076923076923,0.7857142857142857,0.7857142857142857,0.0004
727,0.3958948403596878,0.7669105529785156,0.9230769230769231,0.9423076923076923,0.7857142857142857,0.9285714285714286,0.0004
728,0.5488551706075668,1.1323226690292358,0.8846153846153846,0.9038461538461539,0.8571428571428571,0.7142857142857143,0.0004
729,0.25485772639513016,1.1826838254928589,0.9423076923076923,0.9807692307692307,0.8571428571428571,0.6428571428571429,0.0004
730,0.4874604046344757,1.287761926651001,0.8269230769230769,0.8846153846153846,0.5714285714285714,0.9285714285714286,0.0004
731,0.3500351905822754,0.917291522026062,0.9230769230769231,0.9423076923076923,0.7857142857142857,0.8571428571428571,0.0004
732,0.34062689542770386,1.5479117631912231,0.8846153846153846,0.9615384615384616,0.6428571428571429,0.8571428571428571,0.0004
733,0.25666017830371857,1.101996898651123,0.9230769230769231,0.9615384615384616,0.8571428571428571,0.8571428571428571,0.0004
734,0.5899501144886017,0.8116340637207031,0.8461538461538461,0.9038461538461539,0.7857142857142857,0.8571428571428571,0.0004
735,0.32765649259090424,1.3031330108642578,0.9423076923076923,0.9615384615384616,0.7857142857142857,0.7857142857142857,0.0004
736,0.462694987654686,1.5933531522750854,0.9038461538461539,0.9230769230769231,0.7857142857142857,0.6428571428571429,0.0004
737,0.23095640540122986,1.3541933298110962,0.9615384615384616,0.9615384615384616,0.7857142857142857,0.7142857142857143,0.0004
738,0.36919306218624115,0.654529333114624,0.8269230769230769,0.9807692307692307,0.9285714285714286,0.7857142857142857,0.0004
739,0.27887389063835144,0.7633413672447205,0.9038461538461539,1.0,0.8571428571428571,0.7857142857142857,0.0004
740,0.3632430285215378,0.6394116878509521,0.8846153846153846,1.0,0.8571428571428571,0.8571428571428571,0.0004
741,0.31757545471191406,1.0898654460906982,0.9038461538461539,0.9230769230769231,0.6428571428571429,0.7857142857142857,0.0004
742,0.19020967558026314,1.058068871498108,0.9423076923076923,0.9807692307692307,0.7142857142857143,0.7142857142857143,0.0004
743,0.2680578827857971,0.929633617401123,0.9230769230769231,1.0,0.7142857142857143,0.7857142857142857,0.0004
744,0.43627698719501495,0.9840066432952881,0.9230769230769231,0.9038461538461539,0.7857142857142857,0.8571428571428571,0.0004
745,0.4134552776813507,0.9969193339347839,0.9038461538461539,0.9615384615384616,0.7142857142857143,0.7142857142857143,0.0004
746,0.37526652216911316,1.6171939373016357,0.9230769230769231,0.9423076923076923,0.6428571428571429,0.7142857142857143,0.0004
747,0.2979111820459366,1.3096712827682495,0.9423076923076923,0.9615384615384616,0.9285714285714286,0.7142857142857143,0.0004
748,0.42555704712867737,0.9363518953323364,0.8653846153846154,0.9807692307692307,0.8571428571428571,0.7142857142857143,0.0004
749,0.3360934406518936,0.9464541673660278,0.9038461538461539,0.9615384615384616,0.7857142857142857,0.9285714285714286,0.0004
750,0.33887751400470734,1.1653295755386353,0.9423076923076923,0.9423076923076923,0.7857142857142857,0.7142857142857143,0.0004
751,0.4147622287273407,1.0772238969802856,0.8653846153846154,0.9615384615384616,0.8571428571428571,0.7142857142857143,0.0004
752,0.31260573863983154,1.555617094039917,0.9230769230769231,0.9423076923076923,0.7857142857142857,0.7142857142857143,0.0004
753,0.30098509788513184,0.9785176515579224,0.9615384615384616,0.9038461538461539,0.8571428571428571,0.7142857142857143,0.0004
754,0.40489569306373596,1.310279369354248,0.8846153846153846,0.9423076923076923,0.7857142857142857,0.7857142857142857,0.0004
755,0.28424619883298874,0.9584558606147766,0.8846153846153846,0.9807692307692307,0.9285714285714286,0.7142857142857143,0.0004
756,0.604402482509613,1.1017003059387207,0.7692307692307693,0.9423076923076923,0.7857142857142857,0.7857142857142857,0.0004
757,0.24978023767471313,0.997015118598938,0.9807692307692307,0.9423076923076923,0.8571428571428571,0.7857142857142857,0.0004
758,0.42712658643722534,0.8795750141143799,0.9038461538461539,0.9807692307692307,0.7857142857142857,0.7142857142857143,0.0004
759,0.5311785340309143,0.9101442694664001,0.9038461538461539,0.9230769230769231,0.9285714285714286,0.7857142857142857,0.0004
760,0.4229383319616318,0.6800995469093323,0.9038461538461539,0.9423076923076923,0.8571428571428571,0.7857142857142857,0.0004
761,0.20327068865299225,0.801405668258667,0.9615384615384616,0.9807692307692307,0.9285714285714286,0.7142857142857143,0.0004
762,0.3674592971801758,1.8221988677978516,0.9423076923076923,0.9615384615384616,0.5714285714285714,0.7857142857142857,0.0004
763,0.4117761254310608,0.5760351419448853,0.9038461538461539,0.9615384615384616,1.0,0.7857142857142857,0.0004
764,0.5026146769523621,0.7812166213989258,0.8461538461538461,0.8846153846153846,0.8571428571428571,0.8571428571428571,0.0004
765,0.22749045491218567,1.0987471342086792,0.9230769230769231,0.9615384615384616,0.7857142857142857,0.7857142857142857,0.0004
766,0.3843776732683182,0.9101135730743408,0.9038461538461539,0.9615384615384616,0.8571428571428571,0.8571428571428571,0.0004
767,0.5750033259391785,0.8527703285217285,0.8269230769230769,0.9423076923076923,0.8571428571428571,0.9285714285714286,0.0004
768,0.3043292760848999,0.8991246223449707,0.9230769230769231,0.9423076923076923,0.7857142857142857,0.7857142857142857,0.0004
769,0.2545442767441273,1.2158801555633545,0.9230769230769231,1.0,0.7142857142857143,0.8571428571428571,0.0004
770,0.3325304836034775,1.435270071029663,0.9615384615384616,0.9615384615384616,0.6428571428571429,0.7857142857142857,0.0004
771,0.19548864662647247,1.2540806531906128,0.9230769230769231,1.0,0.7857142857142857,0.8571428571428571,0.0004
772,0.4004121273756027,0.4516698718070984,0.9038461538461539,0.9423076923076923,0.8571428571428571,0.9285714285714286,0.0004
773,0.36279602348804474,0.975358247756958,0.9038461538461539,0.9423076923076923,0.7857142857142857,0.7857142857142857,0.0004
774,0.499643936753273,0.42663174867630005,0.8846153846153846,0.9230769230769231,1.0,0.7857142857142857,0.0004
775,0.23958751559257507,0.5621307492256165,0.9423076923076923,0.9807692307692307,0.8571428571428571,0.8571428571428571,0.0004
776,0.4636344313621521,1.8008294105529785,0.8846153846153846,0.9230769230769231,0.7142857142857143,0.7857142857142857,0.0004
777,0.4131578058004379,0.4889433979988098,0.9038461538461539,0.9615384615384616,0.7857142857142857,0.9285714285714286,0.0004
778,0.3569881170988083,0.8985216617584229,0.9038461538461539,0.9615384615384616,0.8571428571428571,0.7142857142857143,0.0004
779,0.7639364153146744,0.8003754615783691,0.8653846153846154,0.9230769230769231,0.8571428571428571,0.7857142857142857,0.0004
780,0.2707940340042114,1.5597825050354004,0.9230769230769231,0.9615384615384616,0.6428571428571429,0.7857142857142857,0.0004
781,0.26969973742961884,0.7536912560462952,0.9038461538461539,0.9615384615384616,0.7142857142857143,0.8571428571428571,0.0004
782,0.5260819792747498,0.8411297798156738,0.8846153846153846,0.9423076923076923,0.8571428571428571,0.7142857142857143,0.0004
783,0.4312238544225693,0.719649076461792,0.9230769230769231,0.9230769230769231,0.8571428571428571,0.6428571428571429,0.0004
784,0.40611420571804047,1.0485906600952148,0.8461538461538461,0.9807692307692307,0.7857142857142857,0.7857142857142857,0.0004
785,0.35648246109485626,0.8073979616165161,0.8846153846153846,0.9423076923076923,0.8571428571428571,0.9285714285714286,0.0004
786,0.2812800109386444,1.449615478515625,0.9230769230769231,0.9615384615384616,0.7857142857142857,0.7142857142857143,0.0004
787,0.2756475657224655,0.562165379524231,0.9230769230769231,0.9615384615384616,0.9285714285714286,0.7857142857142857,0.0004
788,0.533046618103981,0.742636501789093,0.8461538461538461,0.9230769230769231,0.8571428571428571,0.7857142857142857,0.0004
789,0.3078339174389839,0.7664934396743774,0.9423076923076923,0.9230769230769231,0.8571428571428571,0.9285714285714286,0.0004
790,0.2863789498806,1.2773678302764893,0.9423076923076923,1.0,0.7857142857142857,0.7857142857142857,0.0004
791,0.41439156234264374,1.0177006721496582,0.8461538461538461,0.9615384615384616,0.7857142857142857,0.8571428571428571,0.0004
792,0.37477317452430725,1.090610384941101,0.8846153846153846,0.9230769230769231,0.8571428571428571,0.9285714285714286,0.0004
793,0.32008906453847885,1.066878080368042,0.9230769230769231,0.9615384615384616,0.7857142857142857,0.8571428571428571,0.0004
794,0.3741569072008133,1.102768063545227,0.9230769230769231,0.9423076923076923,0.7142857142857143,0.7857142857142857,0.0004
795,0.4778248220682144,0.8223963975906372,0.8461538461538461,0.9423076923076923,0.8571428571428571,0.8571428571428571,0.0004
796,0.5252705812454224,0.6822867393493652,0.8461538461538461,0.9423076923076923,0.8571428571428571,0.9285714285714286,0.0004
797,0.38539254665374756,0.9313968420028687,0.9038461538461539,0.9423076923076923,0.7857142857142857,0.7857142857142857,0.0004
798,0.3114549368619919,0.8640168905258179,0.9038461538461539,0.9615384615384616,0.8571428571428571,0.8571428571428571,0.0004
799,0.48102471232414246,0.8276097774505615,0.8269230769230769,0.9423076923076923,0.9285714285714286,0.7857142857142857,0.0004
800,0.3391612023115158,1.3084585666656494,0.8846153846153846,0.9615384615384616,0.7142857142857143,0.8571428571428571,0.0004
801,0.3752085268497467,1.0537011623382568,0.8846153846153846,0.9615384615384616,0.7857142857142857,0.7142857142857143,0.0004
802,0.39009372889995575,0.9856367111206055,0.9230769230769231,0.9230769230769231,0.7857142857142857,0.7142857142857143,0.0004
803,0.33719363808631897,1.064361333847046,0.9038461538461539,0.9423076923076923,0.9285714285714286,0.6428571428571429,0.0004
804,0.31514233350753784,1.396122932434082,0.9615384615384616,0.9615384615384616,0.6428571428571429,0.8571428571428571,0.0004
805,0.2566843032836914,0.5234694480895996,0.9423076923076923,1.0,0.8571428571428571,0.9285714285714286,0.0004
806,0.21684567630290985,0.9412341117858887,0.9423076923076923,0.9807692307692307,0.7857142857142857,0.8571428571428571,0.0004
807,0.22006811201572418,0.9581366777420044,1.0,0.9230769230769231,0.9285714285714286,0.6428571428571429,0.0004
808,0.3176659047603607,1.2620866298675537,0.8461538461538461,0.9807692307692307,0.6428571428571429,0.9285714285714286,0.0004
809,0.2962253838777542,0.9968099594116211,0.9423076923076923,0.9230769230769231,0.7142857142857143,0.7857142857142857,0.0004
810,0.4057041257619858,1.1650373935699463,0.8653846153846154,0.9423076923076923,0.7857142857142857,0.7142857142857143,0.0004
811,0.30303433537483215,0.999226450920105,0.9230769230769231,0.9230769230769231,0.7142857142857143,0.8571428571428571,0.0004
812,0.24876940250396729,1.2043795585632324,0.9230769230769231,0.9615384615384616,0.8571428571428571,0.7142857142857143,0.0004
813,0.3550899177789688,1.1142864227294922,0.8846153846153846,0.9807692307692307,0.7857142857142857,0.7857142857142857,0.0004
814,0.31160254776477814,1.653254508972168,0.9423076923076923,0.9423076923076923,0.7857142857142857,0.7142857142857143,0.0004
815,0.27014387398958206,0.5262138843536377,0.9615384615384616,0.9615384615384616,0.9285714285714286,0.7857142857142857,0.0004
816,0.2856881245970726,0.7258114814758301,0.9230769230769231,0.9423076923076923,0.8571428571428571,0.8571428571428571,0.0004
817,0.3079543635249138,0.6954665184020996,0.9423076923076923,0.9230769230769231,0.9285714285714286,0.7857142857142857,0.0004
818,0.3957308828830719,1.0952509641647339,0.8846153846153846,0.9615384615384616,0.7142857142857143,0.7857142857142857,0.0004
819,0.48529721796512604,0.8951327204704285,0.9423076923076923,0.9230769230769231,0.9285714285714286,0.7857142857142857,0.0004
820,0.24209679663181305,2.6904873847961426,0.9423076923076923,0.9230769230769231,0.6428571428571429,0.6428571428571429,0.0004
821,0.308772936463356,1.4821544885635376,0.8846153846153846,0.9423076923076923,0.7857142857142857,0.7857142857142857,0.0004
822,0.3546810895204544,1.267191767692566,0.8653846153846154,0.9807692307692307,0.8571428571428571,0.7857142857142857,0.0004
823,0.2890441566705704,1.2331675291061401,0.9230769230769231,0.9615384615384616,0.6428571428571429,0.7857142857142857,0.0004
824,0.35277844220399857,0.8888596296310425,0.9038461538461539,0.9230769230769231,0.8571428571428571,0.8571428571428571,0.0004
825,0.24433811753988266,0.8661773204803467,0.9423076923076923,0.9615384615384616,0.7142857142857143,0.9285714285714286,0.0004
826,0.4578474164009094,0.6852096319198608,0.9038461538461539,0.9423076923076923,0.9285714285714286,0.8571428571428571,0.0004
827,0.5802766382694244,0.5894327163696289,0.8846153846153846,0.9423076923076923,0.9285714285714286,0.7857142857142857,0.0004
828,0.4488409757614136,1.0871870517730713,0.8653846153846154,0.9615384615384616,0.7857142857142857,0.7857142857142857,0.0004
829,0.21735666692256927,0.8854736685752869,0.9615384615384616,0.9230769230769231,0.7857142857142857,0.8571428571428571,0.0004
830,0.5288861691951752,1.8330838680267334,0.8653846153846154,0.9230769230769231,0.7142857142857143,0.8571428571428571,0.0004
831,0.4404461681842804,1.2593302726745605,0.8846153846153846,0.9615384615384616,0.8571428571428571,0.7142857142857143,0.0004
832,0.4407290518283844,0.5210663676261902,0.8653846153846154,0.9038461538461539,1.0,0.7142857142857143,0.0004
833,0.613493338227272,0.9617069959640503,0.8269230769230769,0.9615384615384616,0.8571428571428571,0.7857142857142857,0.0004
834,0.550646498799324,0.8175046443939209,0.8269230769230769,0.9807692307692307,0.7857142857142857,0.7857142857142857,0.0004
835,0.3574048727750778,1.3344483375549316,0.8461538461538461,0.9615384615384616,0.6428571428571429,0.7142857142857143,0.0004
836,0.3269746005535126,1.0821733474731445,0.9230769230769231,0.9807692307692307,0.7142857142857143,0.8571428571428571,0.0004
837,0.5410214960575104,1.5292837619781494,0.8653846153846154,0.8846153846153846,0.7142857142857143,0.7142857142857143,0.0004
838,0.3932955712080002,1.0467853546142578,0.9038461538461539,0.9615384615384616,0.7142857142857143,0.7142857142857143,0.0004
839,0.37228425592184067,0.6357406973838806,0.9615384615384616,0.9230769230769231,0.8571428571428571,0.8571428571428571,0.0004
840,0.4574849158525467,1.3279609680175781,0.8653846153846154,0.9615384615384616,0.7142857142857143,0.7142857142857143,0.0004
841,0.5046011358499527,1.0934128761291504,0.8653846153846154,0.9423076923076923,0.9285714285714286,0.7142857142857143,0.0004
842,0.2968899756669998,1.1679425239562988,0.9230769230769231,0.9615384615384616,0.6428571428571429,0.7142857142857143,0.0004
843,0.3849562108516693,1.1788729429244995,0.9423076923076923,0.9230769230769231,0.7142857142857143,0.7857142857142857,0.0004
844,0.4407516270875931,1.297615885734558,0.9230769230769231,0.9423076923076923,0.7857142857142857,0.7857142857142857,0.0004
845,0.29468926787376404,1.5599009990692139,0.9423076923076923,0.9423076923076923,0.6428571428571429,0.7857142857142857,0.0004
846,0.4221828728914261,1.5615662336349487,0.9230769230769231,0.9423076923076923,0.7857142857142857,0.7142857142857143,0.0004
847,0.3149338513612747,1.148895025253296,0.9230769230769231,0.9615384615384616,0.7142857142857143,0.7142857142857143,0.0004
848,0.39300116896629333,0.9793297052383423,0.9230769230769231,0.9615384615384616,0.7857142857142857,0.7857142857142857,0.0004
849,0.3443922698497772,0.8634703159332275,0.8653846153846154,0.9038461538461539,0.7142857142857143,0.8571428571428571,0.0004
850,0.335581511259079,0.7494533061981201,0.9230769230769231,0.9423076923076923,0.9285714285714286,0.7142857142857143,0.0004
851,0.3002895936369896,1.0272777080535889,0.9423076923076923,0.9423076923076923,0.5714285714285714,0.8571428571428571,0.0004
852,0.5180830210447311,1.0130172967910767,0.8653846153846154,0.9423076923076923,0.5714285714285714,0.7857142857142857,0.0004
853,0.6445934176445007,0.8029966354370117,0.8846153846153846,0.8846153846153846,0.8571428571428571,0.7142857142857143,0.0004
854,0.38681256771087646,0.9720914363861084,0.9230769230769231,0.9807692307692307,0.9285714285714286,0.7142857142857143,0.0004
855,0.3111908435821533,1.4567813873291016,0.9423076923076923,0.9423076923076923,0.7857142857142857,0.7142857142857143,0.0004
856,0.49650047719478607,1.4453308582305908,0.8846153846153846,0.9615384615384616,0.8571428571428571,0.7142857142857143,0.0004
857,0.3910481482744217,0.7023229598999023,0.9038461538461539,0.9230769230769231,0.9285714285714286,0.8571428571428571,0.0004
858,0.27022816985845566,0.894814133644104,0.9230769230769231,0.9807692307692307,0.7142857142857143,0.9285714285714286,0.0004
859,0.34009282290935516,1.171435832977295,0.9038461538461539,0.9615384615384616,0.6428571428571429,0.7857142857142857,0.0004
860,0.43770818412303925,0.9676295518875122,0.8846153846153846,0.9807692307692307,0.8571428571428571,0.8571428571428571,0.0004
861,0.39997972548007965,0.7859885096549988,0.9230769230769231,0.9230769230769231,0.8571428571428571,0.7142857142857143,0.0004
862,0.17568446695804596,1.0720691680908203,0.9423076923076923,0.9807692307692307,0.7142857142857143,0.8571428571428571,0.0004
863,0.2264176458120346,0.8164026737213135,0.9423076923076923,0.9807692307692307,0.7142857142857143,0.8571428571428571,0.0004
864,0.44711700081825256,0.7614535689353943,0.9230769230769231,0.9423076923076923,0.7857142857142857,0.9285714285714286,0.0004
865,0.33210793137550354,0.7018802762031555,0.9423076923076923,0.9230769230769231,0.8571428571428571,0.7857142857142857,0.0004
866,0.22579897940158844,0.6304416060447693,0.9423076923076923,1.0,0.8571428571428571,0.7857142857142857,0.0004
867,0.402781717479229,0.7125545144081116,0.8461538461538461,0.9615384615384616,0.7857142857142857,0.8571428571428571,0.0004
868,0.3993593156337738,0.7236251831054688,0.8846153846153846,0.9230769230769231,0.7142857142857143,0.7857142857142857,0.0004
869,0.3601503372192383,0.616864800453186,0.9230769230769231,0.9615384615384616,0.8571428571428571,0.9285714285714286,0.0004
870,0.23656661063432693,1.0647906064987183,0.9615384615384616,0.9615384615384616,0.7857142857142857,0.7857142857142857,0.0004
871,0.4105549156665802,1.241492748260498,0.8653846153846154,0.9423076923076923,0.7142857142857143,0.7857142857142857,0.0004
872,0.33235713839530945,1.3811482191085815,0.9038461538461539,0.9615384615384616,0.7142857142857143,0.8571428571428571,0.0004
873,0.30935831367969513,0.4213573932647705,0.9038461538461539,0.9615384615384616,0.9285714285714286,0.8571428571428571,0.0004
874,0.43276429176330566,0.9509802460670471,0.9038461538461539,0.9230769230769231,0.8571428571428571,0.7857142857142857,0.0004
875,0.13746213540434837,1.3552933931350708,0.9807692307692307,0.9807692307692307,0.7857142857142857,0.7857142857142857,0.0004
876,0.31482669711112976,1.1570072174072266,0.9038461538461539,0.9807692307692307,0.9285714285714286,0.7142857142857143,0.0004
877,0.32149553298950195,0.9680202603340149,0.9038461538461539,0.9423076923076923,0.7857142857142857,0.8571428571428571,0.0004
878,0.2898811548948288,0.9595044255256653,0.9038461538461539,0.9615384615384616,0.8571428571428571,0.7857142857142857,0.0004
879,0.3644274175167084,1.1183127164840698,0.8846153846153846,0.9423076923076923,0.7857142857142857,0.8571428571428571,0.0004
880,0.2750011757016182,0.7345143556594849,0.9230769230769231,0.9615384615384616,0.9285714285714286,0.7857142857142857,0.0004
881,0.28272847831249237,1.0958974361419678,0.9230769230769231,0.9807692307692307,0.7142857142857143,0.7142857142857143,0.0004
882,0.27967967092990875,1.3228399753570557,0.9423076923076923,0.9615384615384616,0.8571428571428571,0.6428571428571429,0.0004
883,0.49669304490089417,0.5723015069961548,0.8653846153846154,0.9423076923076923,0.9285714285714286,0.7857142857142857,0.0004
884,0.5684564411640167,1.9292770624160767,0.9038461538461539,0.9230769230769231,0.5714285714285714,0.7857142857142857,0.0004
885,0.33592936396598816,0.8316543698310852,0.8653846153846154,0.9615384615384616,0.7142857142857143,0.7142857142857143,0.0004
886,0.39029712975025177,1.3378843069076538,0.9038461538461539,0.9423076923076923,0.6428571428571429,0.7857142857142857,0.0004
887,0.2485625222325325,0.5679019689559937,0.9615384615384616,0.9615384615384616,1.0,0.7857142857142857,0.0004
888,0.25520335137844086,0.722233772277832,0.9423076923076923,0.9615384615384616,0.8571428571428571,0.7142857142857143,0.0004
889,0.36691421270370483,1.8719419240951538,0.9230769230769231,0.9230769230769231,0.7142857142857143,0.5,0.0004
890,0.4822330176830292,0.7359410524368286,0.8846153846153846,0.9230769230769231,0.8571428571428571,0.7142857142857143,0.0004
891,0.4240768700838089,0.969845175743103,0.9038461538461539,0.9423076923076923,0.7857142857142857,0.8571428571428571,0.0004
892,0.3202531337738037,0.9142118096351624,0.9423076923076923,1.0,0.9285714285714286,0.7142857142857143,0.0004
893,0.5174650400876999,0.9477629661560059,0.8269230769230769,0.9615384615384616,0.8571428571428571,0.7857142857142857,0.0004
894,0.43782348930835724,0.6577309370040894,0.9423076923076923,0.8653846153846154,0.8571428571428571,0.8571428571428571,0.0004
895,0.45166970789432526,1.3853600025177002,0.8653846153846154,0.9807692307692307,0.7857142857142857,0.7142857142857143,0.0004
896,0.2996148467063904,0.5385686755180359,0.9230769230769231,0.9615384615384616,0.8571428571428571,0.9285714285714286,0.0004
897,0.26740458607673645,1.4728422164916992,0.9423076923076923,0.9423076923076923,0.7142857142857143,0.7142857142857143,0.0004
898,0.44828061759471893,0.851276159286499,0.9423076923076923,0.9615384615384616,0.8571428571428571,0.7857142857142857,0.0004
899,0.62010458111763,0.760172963142395,0.8269230769230769,0.9423076923076923,0.9285714285714286,0.7142857142857143,0.0004
900,0.5076880678534508,0.7626112103462219,0.8846153846153846,0.9230769230769231,0.7142857142857143,0.9285714285714286,0.0004
901,0.473683625459671,1.6038035154342651,0.9038461538461539,0.9230769230769231,0.7142857142857143,0.7142857142857143,0.0004
902,0.49670523405075073,0.6749716401100159,0.8846153846153846,0.9615384615384616,0.9285714285714286,0.7857142857142857,0.0004
903,0.48372937738895416,0.5476805567741394,0.8653846153846154,0.9423076923076923,0.7857142857142857,0.9285714285714286,0.0004
904,0.1987779662013054,0.7309282422065735,0.9423076923076923,1.0,0.9285714285714286,0.7857142857142857,0.0004
905,0.43993544578552246,0.6231276988983154,0.8076923076923077,0.9423076923076923,0.9285714285714286,0.8571428571428571,0.0004
906,0.4079029858112335,0.9312598705291748,0.8653846153846154,0.9423076923076923,0.7857142857142857,0.8571428571428571,0.0004
907,0.30715831369161606,0.468835711479187,0.8846153846153846,0.9423076923076923,0.8571428571428571,0.7857142857142857,0.0004
908,0.3539930731058121,1.084376335144043,0.9230769230769231,0.9423076923076923,0.7857142857142857,0.7857142857142857,0.0004
909,0.2884560823440552,1.240201711654663,0.9038461538461539,0.9615384615384616,0.7142857142857143,0.8571428571428571,0.0004
910,0.3223470151424408,0.6088892221450806,0.9230769230769231,0.9615384615384616,0.8571428571428571,0.9285714285714286,0.0004
911,0.3436337634921074,0.5126116871833801,0.9230769230769231,0.9615384615384616,0.8571428571428571,0.7857142857142857,0.0004
912,0.2142585590481758,1.1648484468460083,0.9230769230769231,1.0,0.8571428571428571,0.7142857142857143,0.0004
913,0.29778343439102173,1.0317015647888184,0.9615384615384616,0.9615384615384616,0.7857142857142857,0.7857142857142857,0.0004
914,0.2727114334702492,1.3001104593276978,0.8846153846153846,1.0,0.7857142857142857,0.7142857142857143,0.0004
915,0.33638109266757965,0.7987494468688965,0.8846153846153846,0.9615384615384616,0.7142857142857143,0.8571428571428571,0.0004
916,0.24753868579864502,1.7392477989196777,0.9230769230769231,1.0,0.7142857142857143,0.7142857142857143,0.0004
917,0.482406809926033,1.119908094406128,0.8653846153846154,0.9807692307692307,0.7857142857142857,0.9285714285714286,0.0004
918,0.29186326265335083,0.8513973951339722,0.9230769230769231,0.9807692307692307,0.8571428571428571,0.7142857142857143,0.0004
919,0.2212512195110321,1.963371992111206,0.9423076923076923,0.9615384615384616,0.7142857142857143,0.7142857142857143,0.0004
920,0.273062601685524,1.27776300907135,0.9615384615384616,0.9423076923076923,0.7142857142857143,0.7857142857142857,0.0004
921,0.29889920353889465,0.9923734664916992,0.9230769230769231,0.9615384615384616,0.8571428571428571,0.7857142857142857,0.0004
922,0.238591730594635,1.6151331663131714,0.9423076923076923,1.0,0.7142857142857143,0.7857142857142857,0.0004
923,0.30646368116140366,0.6227390766143799,0.9038461538461539,0.9807692307692307,0.7857142857142857,0.7857142857142857,0.0004
924,0.3165930062532425,1.433044195175171,0.9423076923076923,0.9615384615384616,0.7142857142857143,0.7857142857142857,0.0004
925,0.5606253743171692,0.6396117210388184,0.8653846153846154,0.9423076923076923,0.8571428571428571,0.7857142857142857,0.0004
926,0.3384987562894821,0.6911479234695435,0.9230769230769231,0.9615384615384616,0.9285714285714286,0.7857142857142857,0.0004
927,0.25905564427375793,0.3870682120323181,0.9615384615384616,0.9615384615384616,0.8571428571428571,1.0,0.0004
928,0.4034695327281952,0.7985979318618774,0.8653846153846154,0.9615384615384616,0.8571428571428571,0.7857142857142857,0.0004
929,0.2875165790319443,1.0730758905410767,0.9038461538461539,0.9807692307692307,0.7857142857142857,0.7857142857142857,0.0004
930,0.26668792217969894,0.6295096278190613,0.9230769230769231,0.9615384615384616,0.8571428571428571,0.7857142857142857,0.0004
931,0.2641022503376007,1.0197956562042236,0.9038461538461539,0.9807692307692307,0.7857142857142857,0.7857142857142857,0.0004
932,0.2511863112449646,1.0462534427642822,0.8846153846153846,1.0,0.7142857142857143,0.8571428571428571,0.0004
933,0.2938453257083893,1.020929217338562,0.9230769230769231,0.9423076923076923,0.7142857142857143,0.7857142857142857,0.0004
934,0.2714233249425888,1.6853060722351074,0.9423076923076923,1.0,0.8571428571428571,0.7142857142857143,0.0004
935,0.3161056786775589,0.8559236526489258,0.8846153846153846,0.9807692307692307,0.8571428571428571,0.7857142857142857,0.0004
936,0.4852025806903839,1.3913400173187256,0.9230769230769231,0.9807692307692307,0.7142857142857143,0.8571428571428571,0.0004
937,0.4174512103199959,1.0095915794372559,0.8653846153846154,0.9615384615384616,0.8571428571428571,0.8571428571428571,0.0004
938,0.31890198588371277,1.40388822555542,0.9038461538461539,1.0,0.7857142857142857,0.7857142857142857,0.0004
939,0.1566387042403221,0.7949259877204895,0.9807692307692307,1.0,0.9285714285714286,0.7142857142857143,0.0004
940,0.5014326646924019,0.7808557748794556,0.9038461538461539,0.9423076923076923,0.8571428571428571,0.8571428571428571,0.0004
941,0.37755025923252106,1.4727141857147217,0.8846153846153846,0.9615384615384616,0.9285714285714286,0.6428571428571429,0.0004
942,0.2848988473415375,1.0646051168441772,0.9615384615384616,0.9615384615384616,0.7857142857142857,0.7857142857142857,0.0004
943,0.36620762944221497,0.9064980745315552,0.8653846153846154,0.9423076923076923,0.9285714285714286,0.7857142857142857,0.0004
944,0.35981838405132294,1.35275137424469,0.9230769230769231,0.9423076923076923,0.8571428571428571,0.7857142857142857,0.0004
945,0.24499362707138062,1.2433515787124634,0.9615384615384616,0.9423076923076923,0.8571428571428571,0.7142857142857143,0.0004
946,0.3225421756505966,1.0939724445343018,0.8846153846153846,0.9807692307692307,0.7142857142857143,0.7857142857142857,0.0004
947,0.25352081656455994,1.2870960235595703,0.9230769230769231,0.9807692307692307,0.7857142857142857,0.7142857142857143,0.0004
948,0.29909174144268036,0.694085955619812,0.9423076923076923,0.9423076923076923,0.7857142857142857,0.8571428571428571,0.0004
949,0.3682520315051079,1.2750816345214844,0.8653846153846154,0.9423076923076923,0.8571428571428571,0.7142857142857143,0.0004
950,0.12420400232076645,1.4795039892196655,1.0,1.0,0.6428571428571429,0.8571428571428571,0.0004
951,0.23149742186069489,1.5028759241104126,0.9615384615384616,0.9615384615384616,0.8571428571428571,0.6428571428571429,0.0004
952,0.3294687122106552,0.9307742118835449,0.8653846153846154,0.9807692307692307,0.7857142857142857,0.7857142857142857,0.0004
953,0.4080861955881119,1.6821050643920898,0.8846153846153846,0.9423076923076923,0.6428571428571429,0.7142857142857143,0.0004
954,0.4429352432489395,1.3630871772766113,0.8461538461538461,0.9615384615384616,0.9285714285714286,0.6428571428571429,0.0004
955,0.45762480795383453,0.8193415999412537,0.9038461538461539,0.9423076923076923,0.9285714285714286,0.7857142857142857,0.0004
956,0.18476244807243347,0.8793002367019653,0.9423076923076923,0.9807692307692307,0.7857142857142857,0.9285714285714286,0.0004
957,0.25206781178712845,0.871981143951416,0.9038461538461539,1.0,0.8571428571428571,0.7142857142857143,0.0004
958,0.40401796996593475,0.8850551843643188,0.8846153846153846,0.9807692307692307,0.8571428571428571,0.7857142857142857,0.0004
959,0.5921041071414948,1.5374221801757812,0.9038461538461539,0.9038461538461539,0.7142857142857143,0.7142857142857143,0.0004
960,0.21012240648269653,0.4999186098575592,0.9423076923076923,0.9807692307692307,0.7857142857142857,0.9285714285714286,0.0004
961,0.44959646463394165,1.9079118967056274,0.8846153846153846,0.9423076923076923,0.7142857142857143,0.6428571428571429,0.0004
962,0.33346618711948395,0.8295624256134033,0.9615384615384616,0.9230769230769231,0.9285714285714286,0.7142857142857143,0.0004
963,0.25672904402017593,1.1909761428833008,0.9038461538461539,0.9807692307692307,0.6428571428571429,0.8571428571428571,0.0004
964,0.4320088177919388,1.8731297254562378,0.8461538461538461,0.9807692307692307,0.7142857142857143,0.8571428571428571,0.0004
965,0.3705749213695526,1.4593119621276855,0.8846153846153846,0.9807692307692307,0.7142857142857143,0.7857142857142857,0.0004
966,0.3592359349131584,1.0861996412277222,0.8653846153846154,0.9615384615384616,0.7857142857142857,0.7142857142857143,0.0004
967,0.2722519412636757,0.6402827501296997,0.9423076923076923,0.9807692307692307,0.9285714285714286,0.8571428571428571,0.0004
968,0.4814547598361969,1.5420465469360352,0.8076923076923077,0.9615384615384616,0.6428571428571429,0.7857142857142857,0.0004
969,0.7043174505233765,0.5303332209587097,0.8461538461538461,0.8846153846153846,0.9285714285714286,0.7142857142857143,0.0004
