epoch,train_loss,val_loss,train_acc_action,train_acc_status,val_acc_action,val_acc_status,learning_rate
1,1.8064212799072266,1.7948596477508545,0.3076923076923077,0.17307692307692307,0.42857142857142855,0.14285714285714285,0.0004
2,1.7973061800003052,1.7866218090057373,0.3076923076923077,0.17307692307692307,0.42857142857142855,0.8571428571428571,0.0004
3,1.788629412651062,1.7780430316925049,0.3076923076923077,0.8269230769230769,0.42857142857142855,0.8571428571428571,0.0004
4,1.781855821609497,1.7690554857254028,0.3076923076923077,0.8269230769230769,0.42857142857142855,0.8571428571428571,0.0004
5,1.7723832726478577,1.7584271430969238,0.3076923076923077,0.8269230769230769,0.42857142857142855,0.8571428571428571,0.0004
6,1.76386159658432,1.7431033849716187,0.3076923076923077,0.8269230769230769,0.42857142857142855,0.8571428571428571,0.0004
7,1.7447534203529358,1.7216181755065918,0.3076923076923077,0.8269230769230769,0.42857142857142855,0.8571428571428571,0.0004
8,1.7235348224639893,1.6865694522857666,0.3076923076923077,0.8269230769230769,0.42857142857142855,0.8571428571428571,0.0004
9,1.6758950352668762,1.6309252977371216,0.3076923076923077,0.8269230769230769,0.42857142857142855,0.8571428571428571,0.0004
10,1.6375316381454468,1.5671885013580322,0.38461538461538464,0.8269230769230769,0.21428571428571427,0.8571428571428571,0.0004
11,1.5555108189582825,1.5345778465270996,0.36538461538461536,0.8269230769230769,0.21428571428571427,0.8571428571428571,0.0004
12,1.5688756108283997,1.5381429195404053,0.36538461538461536,0.8269230769230769,0.21428571428571427,0.8571428571428571,0.0004
13,1.5966172218322754,1.5480904579162598,0.36538461538461536,0.8269230769230769,0.21428571428571427,0.8571428571428571,0.0004
14,1.5617380142211914,1.549162745475769,0.36538461538461536,0.8269230769230769,0.21428571428571427,0.8571428571428571,0.0004
15,1.5863251686096191,1.5486559867858887,0.36538461538461536,0.8269230769230769,0.21428571428571427,0.8571428571428571,0.0004
16,1.5793725848197937,1.5407651662826538,0.36538461538461536,0.8269230769230769,0.21428571428571427,0.8571428571428571,0.0004
17,1.5390499234199524,1.5345346927642822,0.36538461538461536,0.8269230769230769,0.21428571428571427,0.8571428571428571,0.0004
18,1.5261239409446716,1.5343620777130127,0.36538461538461536,0.8269230769230769,0.21428571428571427,0.8571428571428571,0.0004
19,1.573529064655304,1.5351061820983887,0.36538461538461536,0.8269230769230769,0.21428571428571427,0.8571428571428571,0.0004
20,1.5881483554840088,1.5360260009765625,0.36538461538461536,0.8269230769230769,0.21428571428571427,0.8571428571428571,0.0004
21,1.5678768754005432,1.5354464054107666,0.36538461538461536,0.8269230769230769,0.21428571428571427,0.8571428571428571,0.0004
22,1.5655872225761414,1.5344454050064087,0.36538461538461536,0.8269230769230769,0.21428571428571427,0.8571428571428571,0.0004
23,1.5483965873718262,1.5340275764465332,0.36538461538461536,0.8269230769230769,0.21428571428571427,0.8571428571428571,0.0004
24,1.5244823694229126,1.535724401473999,0.36538461538461536,0.8269230769230769,0.21428571428571427,0.8571428571428571,0.0004
25,1.5818326473236084,1.5359431505203247,0.36538461538461536,0.8269230769230769,0.21428571428571427,0.8571428571428571,0.0004
26,1.5482425689697266,1.5347288846969604,0.36538461538461536,0.8269230769230769,0.21428571428571427,0.8571428571428571,0.0004
27,1.5838369727134705,1.5368685722351074,0.36538461538461536,0.8269230769230769,0.21428571428571427,0.8571428571428571,0.0004
28,1.5255399346351624,1.536928415298462,0.36538461538461536,0.8269230769230769,0.21428571428571427,0.8571428571428571,0.0004
29,1.5797458291053772,1.5368194580078125,0.36538461538461536,0.8269230769230769,0.21428571428571427,0.8571428571428571,0.0004
30,1.5648407936096191,1.5372380018234253,0.36538461538461536,0.8269230769230769,0.21428571428571427,0.8571428571428571,0.0004
31,1.5560593605041504,1.5386549234390259,0.36538461538461536,0.8269230769230769,0.21428571428571427,0.8571428571428571,0.0004
32,1.5519136786460876,1.5379159450531006,0.36538461538461536,0.8269230769230769,0.21428571428571427,0.8571428571428571,0.0004
33,1.5606945753097534,1.5364301204681396,0.36538461538461536,0.8269230769230769,0.21428571428571427,0.8571428571428571,0.0004
34,1.5526540279388428,1.5380253791809082,0.36538461538461536,0.8269230769230769,0.21428571428571427,0.8571428571428571,0.0004
35,1.5776626467704773,1.5389766693115234,0.36538461538461536,0.8269230769230769,0.21428571428571427,0.8571428571428571,0.0004
36,1.5812862515449524,1.5403460264205933,0.36538461538461536,0.8269230769230769,0.21428571428571427,0.8571428571428571,0.0004
37,1.564144790172577,1.5405718088150024,0.36538461538461536,0.8269230769230769,0.21428571428571427,0.8571428571428571,0.0004
38,1.5331090688705444,1.540416955947876,0.36538461538461536,0.8269230769230769,0.21428571428571427,0.8571428571428571,0.0004
39,1.5441973805427551,1.5418928861618042,0.36538461538461536,0.8269230769230769,0.21428571428571427,0.8571428571428571,0.0004
40,1.5477505922317505,1.540164828300476,0.36538461538461536,0.8269230769230769,0.21428571428571427,0.8571428571428571,0.0004
41,1.5303858518600464,1.538691759109497,0.36538461538461536,0.8269230769230769,0.21428571428571427,0.8571428571428571,0.0004
42,1.5672703981399536,1.5393422842025757,0.36538461538461536,0.8269230769230769,0.21428571428571427,0.8571428571428571,0.0004
43,1.5359665155410767,1.5391323566436768,0.36538461538461536,0.8269230769230769,0.21428571428571427,0.8571428571428571,0.0004
44,1.5824946165084839,1.538405418395996,0.36538461538461536,0.8269230769230769,0.21428571428571427,0.8571428571428571,0.0004
45,1.5678378343582153,1.5371789932250977,0.36538461538461536,0.8269230769230769,0.21428571428571427,0.8571428571428571,0.0004
46,1.5395488739013672,1.5354721546173096,0.36538461538461536,0.8269230769230769,0.21428571428571427,0.8571428571428571,0.0004
47,1.5506721138954163,1.532066822052002,0.36538461538461536,0.8269230769230769,0.21428571428571427,0.8571428571428571,0.0004
48,1.5475323796272278,1.528411865234375,0.36538461538461536,0.8269230769230769,0.21428571428571427,0.8571428571428571,0.0004
49,1.5366187691688538,1.5273189544677734,0.36538461538461536,0.8269230769230769,0.21428571428571427,0.8571428571428571,0.0004
50,1.5824884176254272,1.5256476402282715,0.36538461538461536,0.8269230769230769,0.21428571428571427,0.8571428571428571,0.0004
51,1.533487856388092,1.5246548652648926,0.36538461538461536,0.8269230769230769,0.21428571428571427,0.8571428571428571,0.0004
52,1.5203347206115723,1.5248076915740967,0.36538461538461536,0.8269230769230769,0.21428571428571427,0.8571428571428571,0.0004
53,1.5484994053840637,1.5243051052093506,0.36538461538461536,0.8269230769230769,0.21428571428571427,0.8571428571428571,0.0004
54,1.548257291316986,1.52549409866333,0.36538461538461536,0.8269230769230769,0.21428571428571427,0.8571428571428571,0.0004
55,1.579622209072113,1.5282580852508545,0.36538461538461536,0.8269230769230769,0.21428571428571427,0.8571428571428571,0.0004
56,1.552768349647522,1.532470941543579,0.36538461538461536,0.8269230769230769,0.21428571428571427,0.8571428571428571,0.0004
57,1.5679685473442078,1.5357179641723633,0.36538461538461536,0.8269230769230769,0.21428571428571427,0.8571428571428571,0.0004
58,1.4973539113998413,1.5372971296310425,0.36538461538461536,0.8269230769230769,0.21428571428571427,0.8571428571428571,0.0004
59,1.5936106443405151,1.5408613681793213,0.36538461538461536,0.8269230769230769,0.21428571428571427,0.8571428571428571,0.0004
60,1.5490980744361877,1.5447230339050293,0.36538461538461536,0.8269230769230769,0.21428571428571427,0.8571428571428571,0.0004
61,1.5468730330467224,1.5476497411727905,0.36538461538461536,0.8269230769230769,0.21428571428571427,0.8571428571428571,0.0004
62,1.6007795929908752,1.5506466627120972,0.36538461538461536,0.8269230769230769,0.21428571428571427,0.8571428571428571,0.0004
63,1.5499542355537415,1.5511850118637085,0.36538461538461536,0.8269230769230769,0.21428571428571427,0.8571428571428571,0.0004
64,1.551514446735382,1.5509426593780518,0.36538461538461536,0.8269230769230769,0.21428571428571427,0.8571428571428571,0.0004
65,1.5512928366661072,1.5494762659072876,0.36538461538461536,0.8269230769230769,0.21428571428571427,0.8571428571428571,0.0004
66,1.544496238231659,1.5466783046722412,0.36538461538461536,0.8269230769230769,0.21428571428571427,0.8571428571428571,0.0004
67,1.5512149333953857,1.5454609394073486,0.36538461538461536,0.8269230769230769,0.21428571428571427,0.8571428571428571,0.0004
68,1.5509021878242493,1.543697714805603,0.36538461538461536,0.8269230769230769,0.21428571428571427,0.8571428571428571,0.0004
69,1.539829134941101,1.5417228937149048,0.36538461538461536,0.8269230769230769,0.21428571428571427,0.8571428571428571,0.0004
70,1.5660400390625,1.5384446382522583,0.36538461538461536,0.8269230769230769,0.21428571428571427,0.8571428571428571,0.0004
71,1.518610656261444,1.5349373817443848,0.36538461538461536,0.8269230769230769,0.21428571428571427,0.8571428571428571,0.0004
72,1.5921183824539185,1.532412052154541,0.36538461538461536,0.8269230769230769,0.21428571428571427,0.8571428571428571,0.0004
73,1.5664032697677612,1.531351089477539,0.36538461538461536,0.8269230769230769,0.21428571428571427,0.8571428571428571,0.0004
74,1.56365966796875,1.5297918319702148,0.36538461538461536,0.8269230769230769,0.21428571428571427,0.8571428571428571,0.0004
75,1.5656609535217285,1.5294349193572998,0.36538461538461536,0.8269230769230769,0.21428571428571427,0.8571428571428571,0.0004
76,1.5515835881233215,1.5291168689727783,0.36538461538461536,0.8269230769230769,0.21428571428571427,0.8571428571428571,0.0004
77,1.5369913578033447,1.528550386428833,0.36538461538461536,0.8269230769230769,0.21428571428571427,0.8571428571428571,0.0004
78,1.5492063760757446,1.5276659727096558,0.36538461538461536,0.8269230769230769,0.21428571428571427,0.8571428571428571,0.0004
79,1.5953550934791565,1.5276877880096436,0.36538461538461536,0.8269230769230769,0.21428571428571427,0.8571428571428571,0.0004
80,1.5516120195388794,1.5281435251235962,0.36538461538461536,0.8269230769230769,0.21428571428571427,0.8571428571428571,0.0004
81,1.580366849899292,1.5282292366027832,0.36538461538461536,0.8269230769230769,0.21428571428571427,0.8571428571428571,0.0004
82,1.535011649131775,1.5284274816513062,0.36538461538461536,0.8269230769230769,0.21428571428571427,0.8571428571428571,0.0004
83,1.54953932762146,1.5290082693099976,0.36538461538461536,0.8269230769230769,0.21428571428571427,0.8571428571428571,0.0004
84,1.5789058208465576,1.5301698446273804,0.36538461538461536,0.8269230769230769,0.21428571428571427,0.8571428571428571,0.0004
85,1.5767436623573303,1.5316208600997925,0.36538461538461536,0.8269230769230769,0.21428571428571427,0.8571428571428571,0.0004
86,1.581923246383667,1.5344831943511963,0.36538461538461536,0.8269230769230769,0.21428571428571427,0.8571428571428571,0.0004
87,1.5655195713043213,1.536397933959961,0.36538461538461536,0.8269230769230769,0.21428571428571427,0.8571428571428571,0.0004
88,1.5497275590896606,1.5377507209777832,0.36538461538461536,0.8269230769230769,0.21428571428571427,0.8571428571428571,0.0004
89,1.5964597463607788,1.5389676094055176,0.36538461538461536,0.8269230769230769,0.21428571428571427,0.8571428571428571,0.0004
90,1.5505825877189636,1.5390660762786865,0.36538461538461536,0.8269230769230769,0.21428571428571427,0.8571428571428571,0.0004
91,1.5629304647445679,1.5385926961898804,0.36538461538461536,0.8269230769230769,0.21428571428571427,0.8571428571428571,0.0004
92,1.5791634321212769,1.5386840105056763,0.36538461538461536,0.8269230769230769,0.21428571428571427,0.8571428571428571,0.0004
93,1.5820623636245728,1.5387277603149414,0.36538461538461536,0.8269230769230769,0.21428571428571427,0.8571428571428571,0.0004
94,1.5525832176208496,1.5379235744476318,0.36538461538461536,0.8269230769230769,0.21428571428571427,0.8571428571428571,0.0004
95,1.5378042459487915,1.5363448858261108,0.36538461538461536,0.8269230769230769,0.21428571428571427,0.8571428571428571,0.0004
96,1.5375415682792664,1.534608006477356,0.36538461538461536,0.8269230769230769,0.21428571428571427,0.8571428571428571,0.0004
97,1.53507661819458,1.5326998233795166,0.36538461538461536,0.8269230769230769,0.21428571428571427,0.8571428571428571,0.0004
98,1.5933721661567688,1.53160560131073,0.36538461538461536,0.8269230769230769,0.21428571428571427,0.8571428571428571,0.0004
99,1.5924248695373535,1.530961275100708,0.36538461538461536,0.8269230769230769,0.21428571428571427,0.8571428571428571,0.0004
100,1.5688220858573914,1.5317978858947754,0.36538461538461536,0.8269230769230769,0.21428571428571427,0.8571428571428571,0.0004
101,1.5806663036346436,1.5315438508987427,0.36538461538461536,0.8269230769230769,0.21428571428571427,0.8571428571428571,0.0004
102,1.5534575581550598,1.5312219858169556,0.36538461538461536,0.8269230769230769,0.21428571428571427,0.8571428571428571,0.0004
103,1.5494723320007324,1.5298054218292236,0.36538461538461536,0.8269230769230769,0.21428571428571427,0.8571428571428571,0.0004
104,1.5629327893257141,1.528861403465271,0.36538461538461536,0.8269230769230769,0.21428571428571427,0.8571428571428571,0.0004
105,1.5358192920684814,1.5294992923736572,0.36538461538461536,0.8269230769230769,0.21428571428571427,0.8571428571428571,0.0004
106,1.5781212449073792,1.5301413536071777,0.36538461538461536,0.8269230769230769,0.21428571428571427,0.8571428571428571,0.0004
107,1.5473478436470032,1.5315167903900146,0.36538461538461536,0.8269230769230769,0.21428571428571427,0.8571428571428571,0.0004
108,1.5768315196037292,1.533989667892456,0.36538461538461536,0.8269230769230769,0.21428571428571427,0.8571428571428571,0.0004
109,1.5479941368103027,1.5371297597885132,0.36538461538461536,0.8269230769230769,0.21428571428571427,0.8571428571428571,0.0004
110,1.5423855781555176,1.5410242080688477,0.36538461538461536,0.8269230769230769,0.21428571428571427,0.8571428571428571,0.0004
111,1.5452467799186707,1.5418245792388916,0.36538461538461536,0.8269230769230769,0.21428571428571427,0.8571428571428571,0.0004
112,1.5507819652557373,1.5436571836471558,0.36538461538461536,0.8269230769230769,0.21428571428571427,0.8571428571428571,0.0004
113,1.5201352834701538,1.5445473194122314,0.36538461538461536,0.8269230769230769,0.21428571428571427,0.8571428571428571,0.0004
114,1.532734751701355,1.5445584058761597,0.36538461538461536,0.8269230769230769,0.21428571428571427,0.8571428571428571,0.0004
115,1.5499742031097412,1.544777274131775,0.36538461538461536,0.8269230769230769,0.21428571428571427,0.8571428571428571,0.0004
116,1.5826309323310852,1.5444457530975342,0.36538461538461536,0.8269230769230769,0.21428571428571427,0.8571428571428571,0.0004
117,1.563241958618164,1.5428032875061035,0.36538461538461536,0.8269230769230769,0.21428571428571427,0.8571428571428571,0.0004
118,1.5513818264007568,1.5414927005767822,0.36538461538461536,0.8269230769230769,0.21428571428571427,0.8571428571428571,0.0004
119,1.5376337766647339,1.5397257804870605,0.36538461538461536,0.8269230769230769,0.21428571428571427,0.8571428571428571,0.0004
120,1.5674930810928345,1.536890983581543,0.36538461538461536,0.8269230769230769,0.21428571428571427,0.8571428571428571,0.0004
121,1.5648167729377747,1.5333759784698486,0.36538461538461536,0.8269230769230769,0.21428571428571427,0.8571428571428571,0.0004
122,1.583903431892395,1.5309035778045654,0.36538461538461536,0.8269230769230769,0.21428571428571427,0.8571428571428571,0.0004
123,1.5209957957267761,1.5277478694915771,0.36538461538461536,0.8269230769230769,0.21428571428571427,0.8571428571428571,0.0004
124,1.563430666923523,1.5248368978500366,0.36538461538461536,0.8269230769230769,0.21428571428571427,0.8571428571428571,0.0004
125,1.5356653332710266,1.5238875150680542,0.36538461538461536,0.8269230769230769,0.21428571428571427,0.8571428571428571,0.0004
126,1.582314670085907,1.5237852334976196,0.36538461538461536,0.8269230769230769,0.21428571428571427,0.8571428571428571,0.0004
127,1.5213978290557861,1.5233612060546875,0.36538461538461536,0.8269230769230769,0.21428571428571427,0.8571428571428571,0.0004
128,1.5648478269577026,1.5230388641357422,0.36538461538461536,0.8269230769230769,0.21428571428571427,0.8571428571428571,0.0004
129,1.5223726034164429,1.5235941410064697,0.36538461538461536,0.8269230769230769,0.21428571428571427,0.8571428571428571,0.0004
130,1.5486225485801697,1.5242053270339966,0.36538461538461536,0.8269230769230769,0.21428571428571427,0.8571428571428571,0.0004
131,1.5641510486602783,1.5261813402175903,0.36538461538461536,0.8269230769230769,0.21428571428571427,0.8571428571428571,0.0004
132,1.5339829325675964,1.5287684202194214,0.36538461538461536,0.8269230769230769,0.21428571428571427,0.8571428571428571,0.0004
133,1.5511064529418945,1.5319944620132446,0.36538461538461536,0.8269230769230769,0.21428571428571427,0.8571428571428571,0.0004
134,1.5484210848808289,1.5344728231430054,0.36538461538461536,0.8269230769230769,0.21428571428571427,0.8571428571428571,0.0004
135,1.5570939779281616,1.5379267930984497,0.36538461538461536,0.8269230769230769,0.21428571428571427,0.8571428571428571,0.0004
136,1.5771204233169556,1.5385050773620605,0.36538461538461536,0.8269230769230769,0.21428571428571427,0.8571428571428571,0.0004
137,1.5341691374778748,1.5397508144378662,0.36538461538461536,0.8269230769230769,0.21428571428571427,0.8571428571428571,0.0004
138,1.5632362365722656,1.5407037734985352,0.36538461538461536,0.8269230769230769,0.21428571428571427,0.8571428571428571,0.0004
139,1.538841187953949,1.5419936180114746,0.36538461538461536,0.8269230769230769,0.21428571428571427,0.8571428571428571,0.0004
140,1.552112340927124,1.541669249534607,0.36538461538461536,0.8269230769230769,0.21428571428571427,0.8571428571428571,0.0004
141,1.5506959557533264,1.5403043031692505,0.36538461538461536,0.8269230769230769,0.21428571428571427,0.8571428571428571,0.0004
142,1.5442939400672913,1.5380783081054688,0.36538461538461536,0.8269230769230769,0.21428571428571427,0.8571428571428571,0.0004
143,1.549369990825653,1.5379137992858887,0.36538461538461536,0.8269230769230769,0.21428571428571427,0.8571428571428571,0.0004
144,1.584249198436737,1.5378446578979492,0.36538461538461536,0.8269230769230769,0.21428571428571427,0.8571428571428571,0.0004
145,1.5511453747749329,1.5364395380020142,0.36538461538461536,0.8269230769230769,0.21428571428571427,0.8571428571428571,0.0004
146,1.5345100164413452,1.5345139503479004,0.36538461538461536,0.8269230769230769,0.21428571428571427,0.8571428571428571,0.0004
147,1.5969443321228027,1.5328956842422485,0.36538461538461536,0.8269230769230769,0.21428571428571427,0.8571428571428571,0.0004
148,1.5506325960159302,1.531003475189209,0.36538461538461536,0.8269230769230769,0.21428571428571427,0.8571428571428571,0.0004
149,1.5327189564704895,1.5290330648422241,0.36538461538461536,0.8269230769230769,0.21428571428571427,0.8571428571428571,0.0004
150,1.549528956413269,1.5285999774932861,0.36538461538461536,0.8269230769230769,0.21428571428571427,0.8571428571428571,0.0004
151,1.54656982421875,1.5285029411315918,0.36538461538461536,0.8269230769230769,0.21428571428571427,0.8571428571428571,0.0004
152,1.5473217368125916,1.530240774154663,0.36538461538461536,0.8269230769230769,0.21428571428571427,0.8571428571428571,0.0004
153,1.5375584363937378,1.533320665359497,0.36538461538461536,0.8269230769230769,0.21428571428571427,0.8571428571428571,0.0004
154,1.5361434817314148,1.5355478525161743,0.36538461538461536,0.8269230769230769,0.21428571428571427,0.8571428571428571,0.0004
155,1.5187199711799622,1.5367283821105957,0.36538461538461536,0.8269230769230769,0.21428571428571427,0.8571428571428571,0.0004
156,1.5489693880081177,1.5380827188491821,0.36538461538461536,0.8269230769230769,0.21428571428571427,0.8571428571428571,0.0004
157,1.5491401553153992,1.5391560792922974,0.36538461538461536,0.8269230769230769,0.21428571428571427,0.8571428571428571,0.0004
158,1.55459326505661,1.5403472185134888,0.36538461538461536,0.8269230769230769,0.21428571428571427,0.8571428571428571,0.0004
159,1.5634891986846924,1.539583683013916,0.36538461538461536,0.8269230769230769,0.21428571428571427,0.8571428571428571,0.0004
160,1.5634179711341858,1.5390543937683105,0.36538461538461536,0.8269230769230769,0.21428571428571427,0.8571428571428571,0.0004
161,1.56559157371521,1.538956880569458,0.36538461538461536,0.8269230769230769,0.21428571428571427,0.8571428571428571,0.0004
162,1.5663100481033325,1.5385310649871826,0.36538461538461536,0.8269230769230769,0.21428571428571427,0.8571428571428571,0.0004
163,1.561743974685669,1.5372796058654785,0.36538461538461536,0.8269230769230769,0.21428571428571427,0.8571428571428571,0.0004
164,1.5826964378356934,1.5373049974441528,0.36538461538461536,0.8269230769230769,0.21428571428571427,0.8571428571428571,0.0004
165,1.5660515427589417,1.5364784002304077,0.36538461538461536,0.8269230769230769,0.21428571428571427,0.8571428571428571,0.0004
166,1.5480070114135742,1.5349445343017578,0.36538461538461536,0.8269230769230769,0.21428571428571427,0.8571428571428571,0.0004
167,1.5632917881011963,1.5343724489212036,0.36538461538461536,0.8269230769230769,0.21428571428571427,0.8571428571428571,0.0004
168,1.5643640756607056,1.5342116355895996,0.36538461538461536,0.8269230769230769,0.21428571428571427,0.8571428571428571,0.0004
169,1.563728153705597,1.5347588062286377,0.36538461538461536,0.8269230769230769,0.21428571428571427,0.8571428571428571,0.0004
170,1.5485498309135437,1.5353014469146729,0.36538461538461536,0.8269230769230769,0.21428571428571427,0.8571428571428571,0.0004
171,1.5638329982757568,1.5365331172943115,0.36538461538461536,0.8269230769230769,0.21428571428571427,0.8571428571428571,0.0004
172,1.5483616590499878,1.5375597476959229,0.36538461538461536,0.8269230769230769,0.21428571428571427,0.8571428571428571,0.0004
173,1.5384130477905273,1.5390840768814087,0.36538461538461536,0.8269230769230769,0.21428571428571427,0.8571428571428571,0.0004
174,1.521205186843872,1.540144681930542,0.36538461538461536,0.8269230769230769,0.21428571428571427,0.8571428571428571,0.0004
175,1.5508374571800232,1.5417604446411133,0.36538461538461536,0.8269230769230769,0.21428571428571427,0.8571428571428571,0.0004
176,1.5942175388336182,1.5428630113601685,0.36538461538461536,0.8269230769230769,0.21428571428571427,0.8571428571428571,0.0004
177,1.5285254120826721,1.5431175231933594,0.36538461538461536,0.8269230769230769,0.21428571428571427,0.8571428571428571,0.0004
178,1.5528005361557007,1.545273780822754,0.36538461538461536,0.8269230769230769,0.21428571428571427,0.8571428571428571,0.0004
179,1.548934519290924,1.5458241701126099,0.36538461538461536,0.8269230769230769,0.21428571428571427,0.8571428571428571,0.0004
180,1.5471934080123901,1.5459303855895996,0.36538461538461536,0.8269230769230769,0.21428571428571427,0.8571428571428571,0.0004
181,1.534608781337738,1.5461010932922363,0.36538461538461536,0.8269230769230769,0.21428571428571427,0.8571428571428571,0.0004
182,1.583837628364563,1.546066403388977,0.36538461538461536,0.8269230769230769,0.21428571428571427,0.8571428571428571,0.0004
183,1.5457561016082764,1.5440309047698975,0.36538461538461536,0.8269230769230769,0.21428571428571427,0.8571428571428571,0.0004
184,1.581327497959137,1.5431245565414429,0.36538461538461536,0.8269230769230769,0.21428571428571427,0.8571428571428571,0.0004
185,1.5367986559867859,1.541689395904541,0.36538461538461536,0.8269230769230769,0.21428571428571427,0.8571428571428571,0.0004
186,1.6133988499641418,1.5392117500305176,0.36538461538461536,0.8269230769230769,0.21428571428571427,0.8571428571428571,0.0004
187,1.5317059755325317,1.5363185405731201,0.36538461538461536,0.8269230769230769,0.21428571428571427,0.8571428571428571,0.0004
188,1.5673052072525024,1.5348024368286133,0.36538461538461536,0.8269230769230769,0.21428571428571427,0.8571428571428571,0.0004
189,1.5629050135612488,1.532428503036499,0.36538461538461536,0.8269230769230769,0.21428571428571427,0.8571428571428571,0.0004
190,1.5504983067512512,1.5316087007522583,0.36538461538461536,0.8269230769230769,0.21428571428571427,0.8571428571428571,0.0004
191,1.5786077976226807,1.5306668281555176,0.36538461538461536,0.8269230769230769,0.21428571428571427,0.8571428571428571,0.0004
192,1.5794930458068848,1.530542016029358,0.36538461538461536,0.8269230769230769,0.21428571428571427,0.8571428571428571,0.0004
193,1.5648181438446045,1.5310437679290771,0.36538461538461536,0.8269230769230769,0.21428571428571427,0.8571428571428571,0.0004
194,1.5760071873664856,1.5310883522033691,0.36538461538461536,0.8269230769230769,0.21428571428571427,0.8571428571428571,0.0004
195,1.5603780150413513,1.5326110124588013,0.36538461538461536,0.8269230769230769,0.21428571428571427,0.8571428571428571,0.0004
196,1.5687314867973328,1.5361697673797607,0.36538461538461536,0.8269230769230769,0.21428571428571427,0.8571428571428571,0.0004
197,1.5687054991722107,1.538198709487915,0.36538461538461536,0.8269230769230769,0.21428571428571427,0.8571428571428571,0.0004
198,1.578580617904663,1.5385780334472656,0.36538461538461536,0.8269230769230769,0.21428571428571427,0.8571428571428571,0.0004
199,1.5623031854629517,1.5385613441467285,0.36538461538461536,0.8269230769230769,0.21428571428571427,0.8571428571428571,0.0004
200,1.5523638725280762,1.5389360189437866,0.36538461538461536,0.8269230769230769,0.21428571428571427,0.8571428571428571,0.0004
201,1.5746707320213318,1.5383566617965698,0.36538461538461536,0.8269230769230769,0.21428571428571427,0.8571428571428571,0.0004
202,1.5513184666633606,1.5388890504837036,0.36538461538461536,0.8269230769230769,0.21428571428571427,0.8571428571428571,0.0004
203,1.5534123182296753,1.5391970872879028,0.36538461538461536,0.8269230769230769,0.21428571428571427,0.8571428571428571,0.0004
204,1.5513123869895935,1.5385197401046753,0.36538461538461536,0.8269230769230769,0.21428571428571427,0.8571428571428571,0.0004
205,1.5671533346176147,1.5379283428192139,0.36538461538461536,0.8269230769230769,0.21428571428571427,0.8571428571428571,0.0004
206,1.5340046882629395,1.5367364883422852,0.36538461538461536,0.8269230769230769,0.21428571428571427,0.8571428571428571,0.0004
207,1.5653706789016724,1.5370311737060547,0.36538461538461536,0.8269230769230769,0.21428571428571427,0.8571428571428571,0.0004
208,1.5822997689247131,1.537157654762268,0.36538461538461536,0.8269230769230769,0.21428571428571427,0.8571428571428571,0.0004
209,1.5475353002548218,1.5360627174377441,0.36538461538461536,0.8269230769230769,0.21428571428571427,0.8571428571428571,0.0004
210,1.5621562004089355,1.5357435941696167,0.36538461538461536,0.8269230769230769,0.21428571428571427,0.8571428571428571,0.0004
211,1.563872754573822,1.5367435216903687,0.36538461538461536,0.8269230769230769,0.21428571428571427,0.8571428571428571,0.0004
212,1.563328742980957,1.537768840789795,0.36538461538461536,0.8269230769230769,0.21428571428571427,0.8571428571428571,0.0004
213,1.545494556427002,1.5385993719100952,0.36538461538461536,0.8269230769230769,0.21428571428571427,0.8571428571428571,0.0004
214,1.532517910003662,1.5402922630310059,0.36538461538461536,0.8269230769230769,0.21428571428571427,0.8571428571428571,0.0004
215,1.544978380203247,1.5419522523880005,0.36538461538461536,0.8269230769230769,0.21428571428571427,0.8571428571428571,0.0004
216,1.5342175364494324,1.5445904731750488,0.36538461538461536,0.8269230769230769,0.21428571428571427,0.8571428571428571,0.0004
217,1.5694528818130493,1.5468485355377197,0.36538461538461536,0.8269230769230769,0.21428571428571427,0.8571428571428571,0.0004
218,1.5450510382652283,1.5466089248657227,0.36538461538461536,0.8269230769230769,0.21428571428571427,0.8571428571428571,0.0004
219,1.5536722540855408,1.5471656322479248,0.36538461538461536,0.8269230769230769,0.21428571428571427,0.8571428571428571,0.0004
220,1.564317226409912,1.5458842515945435,0.36538461538461536,0.8269230769230769,0.21428571428571427,0.8571428571428571,0.0004
221,1.5835530161857605,1.54448664188385,0.36538461538461536,0.8269230769230769,0.21428571428571427,0.8571428571428571,0.0004
222,1.5202854871749878,1.5419548749923706,0.36538461538461536,0.8269230769230769,0.21428571428571427,0.8571428571428571,0.0004
223,1.6024396419525146,1.5393333435058594,0.36538461538461536,0.8269230769230769,0.21428571428571427,0.8571428571428571,0.0004
224,1.5341238379478455,1.534946084022522,0.36538461538461536,0.8269230769230769,0.21428571428571427,0.8571428571428571,0.0004
225,1.5608966946601868,1.530661940574646,0.36538461538461536,0.8269230769230769,0.21428571428571427,0.8571428571428571,0.0004
226,1.5665642619132996,1.529199242591858,0.36538461538461536,0.8269230769230769,0.21428571428571427,0.8571428571428571,0.0004
227,1.5826255679130554,1.5278499126434326,0.36538461538461536,0.8269230769230769,0.21428571428571427,0.8571428571428571,0.0004
228,1.532242476940155,1.5255987644195557,0.36538461538461536,0.8269230769230769,0.21428571428571427,0.8571428571428571,0.0004
229,1.565946340560913,1.5261651277542114,0.36538461538461536,0.8269230769230769,0.21428571428571427,0.8571428571428571,0.0004
230,1.5659480690956116,1.5262469053268433,0.36538461538461536,0.8269230769230769,0.21428571428571427,0.8571428571428571,0.0004
231,1.5796027183532715,1.5264428853988647,0.36538461538461536,0.8269230769230769,0.21428571428571427,0.8571428571428571,0.0004
232,1.550087332725525,1.5272996425628662,0.36538461538461536,0.8269230769230769,0.21428571428571427,0.8571428571428571,0.0004
233,1.578523874282837,1.5280327796936035,0.36538461538461536,0.8269230769230769,0.21428571428571427,0.8571428571428571,0.0004
234,1.562770426273346,1.5296900272369385,0.36538461538461536,0.8269230769230769,0.21428571428571427,0.8571428571428571,0.0004
235,1.535550594329834,1.531785011291504,0.36538461538461536,0.8269230769230769,0.21428571428571427,0.8571428571428571,0.0004
236,1.5378469228744507,1.5341289043426514,0.36538461538461536,0.8269230769230769,0.21428571428571427,0.8571428571428571,0.0004
237,1.534338355064392,1.5355865955352783,0.36538461538461536,0.8269230769230769,0.21428571428571427,0.8571428571428571,0.0004
238,1.5492399334907532,1.53725266456604,0.36538461538461536,0.8269230769230769,0.21428571428571427,0.8571428571428571,0.0004
239,1.5254548788070679,1.5389078855514526,0.36538461538461536,0.8269230769230769,0.21428571428571427,0.8571428571428571,0.0004
240,1.5657075643539429,1.5394154787063599,0.36538461538461536,0.8269230769230769,0.21428571428571427,0.8571428571428571,0.0004
241,1.578610897064209,1.539717197418213,0.36538461538461536,0.8269230769230769,0.21428571428571427,0.8571428571428571,0.0004
242,1.5690903663635254,1.5388177633285522,0.36538461538461536,0.8269230769230769,0.21428571428571427,0.8571428571428571,0.0004
243,1.5698075890541077,1.5378185510635376,0.36538461538461536,0.8269230769230769,0.21428571428571427,0.8571428571428571,0.0004
244,1.5804033875465393,1.5350650548934937,0.36538461538461536,0.8269230769230769,0.21428571428571427,0.8571428571428571,0.0004
245,1.5646647810935974,1.5325243473052979,0.36538461538461536,0.8269230769230769,0.21428571428571427,0.8571428571428571,0.0004
246,1.5636627078056335,1.5303254127502441,0.36538461538461536,0.8269230769230769,0.21428571428571427,0.8571428571428571,0.0004
247,1.5655268430709839,1.5287590026855469,0.36538461538461536,0.8269230769230769,0.21428571428571427,0.8571428571428571,0.0004
248,1.5624220371246338,1.5271931886672974,0.36538461538461536,0.8269230769230769,0.21428571428571427,0.8571428571428571,0.0004
249,1.5493580102920532,1.5267374515533447,0.36538461538461536,0.8269230769230769,0.21428571428571427,0.8571428571428571,0.0004
250,1.5500431060791016,1.5274503231048584,0.36538461538461536,0.8269230769230769,0.21428571428571427,0.8571428571428571,0.0004
251,1.5335837006568909,1.5275318622589111,0.36538461538461536,0.8269230769230769,0.21428571428571427,0.8571428571428571,0.0004
252,1.549358606338501,1.5292643308639526,0.36538461538461536,0.8269230769230769,0.21428571428571427,0.8571428571428571,0.0004
253,1.5229175090789795,1.5321762561798096,0.36538461538461536,0.8269230769230769,0.21428571428571427,0.8571428571428571,0.0004
254,1.5406270623207092,1.5334277153015137,0.36538461538461536,0.8269230769230769,0.21428571428571427,0.8571428571428571,0.0004
255,1.5632518529891968,1.5335441827774048,0.36538461538461536,0.8269230769230769,0.21428571428571427,0.8571428571428571,0.0004
256,1.5676138401031494,1.5348820686340332,0.36538461538461536,0.8269230769230769,0.21428571428571427,0.8571428571428571,0.0004
257,1.5618952512741089,1.532395362854004,0.36538461538461536,0.8269230769230769,0.21428571428571427,0.8571428571428571,0.0004
258,1.5782291889190674,1.5324844121932983,0.36538461538461536,0.8269230769230769,0.21428571428571427,0.8571428571428571,0.0004
259,1.579507052898407,1.5333504676818848,0.36538461538461536,0.8269230769230769,0.21428571428571427,0.8571428571428571,0.0004
260,1.595727801322937,1.5358238220214844,0.36538461538461536,0.8269230769230769,0.21428571428571427,0.8571428571428571,0.0004
261,1.5804546475410461,1.5352942943572998,0.36538461538461536,0.8269230769230769,0.21428571428571427,0.8571428571428571,0.0004
262,1.5637794733047485,1.5346460342407227,0.36538461538461536,0.8269230769230769,0.21428571428571427,0.8571428571428571,0.0004
263,1.5211294293403625,1.5344274044036865,0.36538461538461536,0.8269230769230769,0.21428571428571427,0.8571428571428571,0.0004
264,1.5663412809371948,1.534769058227539,0.36538461538461536,0.8269230769230769,0.21428571428571427,0.8571428571428571,0.0004
265,1.5059945583343506,1.532645344734192,0.36538461538461536,0.8269230769230769,0.21428571428571427,0.8571428571428571,0.0004
266,1.5599043369293213,1.5316438674926758,0.36538461538461536,0.8269230769230769,0.21428571428571427,0.8571428571428571,0.0004
267,1.5612111687660217,1.5323179960250854,0.36538461538461536,0.8269230769230769,0.21428571428571427,0.8571428571428571,0.0004
268,1.5685555934906006,1.5333619117736816,0.36538461538461536,0.8269230769230769,0.21428571428571427,0.8571428571428571,0.0004
269,1.577783226966858,1.533012866973877,0.36538461538461536,0.8269230769230769,0.21428571428571427,0.8571428571428571,0.0004
270,1.5481749176979065,1.5341517925262451,0.36538461538461536,0.8269230769230769,0.21428571428571427,0.8571428571428571,0.0004
271,1.5443870425224304,1.5312124490737915,0.36538461538461536,0.8269230769230769,0.21428571428571427,0.8571428571428571,0.0004
272,1.5636879801750183,1.537276029586792,0.36538461538461536,0.8269230769230769,0.21428571428571427,0.8571428571428571,0.0004
273,1.531761109828949,1.5350747108459473,0.36538461538461536,0.8269230769230769,0.21428571428571427,0.8571428571428571,0.0004
274,1.5597301721572876,1.5346747636795044,0.36538461538461536,0.8269230769230769,0.21428571428571427,0.8571428571428571,0.0004
275,1.5699084401130676,1.5343666076660156,0.36538461538461536,0.8269230769230769,0.21428571428571427,0.8571428571428571,0.0004
276,1.5398808121681213,1.535629153251648,0.36538461538461536,0.8269230769230769,0.21428571428571427,0.8571428571428571,0.0004
277,1.544601023197174,1.5354708433151245,0.36538461538461536,0.8269230769230769,0.21428571428571427,0.8571428571428571,0.0004
278,1.5812748670578003,1.5363759994506836,0.36538461538461536,0.8269230769230769,0.21428571428571427,0.8571428571428571,0.0004
279,1.548276424407959,1.5382111072540283,0.36538461538461536,0.8269230769230769,0.21428571428571427,0.8571428571428571,0.0004
280,1.521361231803894,1.5394389629364014,0.36538461538461536,0.8269230769230769,0.21428571428571427,0.8571428571428571,0.0004
281,1.591233253479004,1.5421559810638428,0.36538461538461536,0.8269230769230769,0.21428571428571427,0.8571428571428571,0.0004
282,1.5758132338523865,1.5362725257873535,0.36538461538461536,0.8269230769230769,0.21428571428571427,0.8571428571428571,0.0004
283,1.5569549798965454,1.5393545627593994,0.36538461538461536,0.8269230769230769,0.21428571428571427,0.8571428571428571,0.0004
284,1.5829470753669739,1.5360214710235596,0.36538461538461536,0.8269230769230769,0.21428571428571427,0.8571428571428571,0.0004
285,1.5595408082008362,1.5389541387557983,0.36538461538461536,0.8269230769230769,0.21428571428571427,0.8571428571428571,0.0004
286,1.5858937501907349,1.5304442644119263,0.36538461538461536,0.8269230769230769,0.21428571428571427,0.8571428571428571,0.0004
287,1.5340438485145569,1.5430736541748047,0.36538461538461536,0.8269230769230769,0.21428571428571427,0.8571428571428571,0.0004
288,1.534009039402008,1.5420602560043335,0.36538461538461536,0.8269230769230769,0.21428571428571427,0.8571428571428571,0.0004
289,1.5032662153244019,1.5528202056884766,0.36538461538461536,0.8269230769230769,0.14285714285714285,0.8571428571428571,0.0004
290,1.509651780128479,1.530699610710144,0.40384615384615385,0.8269230769230769,0.21428571428571427,0.8571428571428571,0.0004
291,1.5928398966789246,1.5311578512191772,0.36538461538461536,0.8269230769230769,0.21428571428571427,0.8571428571428571,0.0004
292,1.546958088874817,1.5354351997375488,0.36538461538461536,0.8269230769230769,0.21428571428571427,0.8571428571428571,0.0004
293,1.5337604880332947,1.5346167087554932,0.36538461538461536,0.8269230769230769,0.21428571428571427,0.8571428571428571,0.0004
294,1.5519529581069946,1.5343801975250244,0.36538461538461536,0.8269230769230769,0.21428571428571427,0.8571428571428571,0.0004
295,1.597072720527649,1.5346726179122925,0.36538461538461536,0.8269230769230769,0.21428571428571427,0.8571428571428571,0.0004
296,1.5957958102226257,1.5326316356658936,0.36538461538461536,0.8269230769230769,0.21428571428571427,0.8571428571428571,0.0004
297,1.5290515422821045,1.533489465713501,0.36538461538461536,0.8269230769230769,0.21428571428571427,0.8571428571428571,0.0004
298,1.5308207273483276,1.5377973318099976,0.36538461538461536,0.8269230769230769,0.21428571428571427,0.8571428571428571,0.0004
299,1.5636337399482727,1.5434770584106445,0.36538461538461536,0.8269230769230769,0.21428571428571427,0.8571428571428571,0.0004
300,1.5551488995552063,1.5457346439361572,0.36538461538461536,0.8269230769230769,0.21428571428571427,0.8571428571428571,0.0004
301,1.558473527431488,1.5462349653244019,0.36538461538461536,0.8269230769230769,0.21428571428571427,0.8571428571428571,0.0004
302,1.5521599650382996,1.5410019159317017,0.36538461538461536,0.8269230769230769,0.21428571428571427,0.8571428571428571,0.0004
303,1.5835434198379517,1.5379188060760498,0.36538461538461536,0.8269230769230769,0.21428571428571427,0.8571428571428571,0.0004
304,1.5484978556632996,1.5316076278686523,0.36538461538461536,0.8269230769230769,0.21428571428571427,0.8571428571428571,0.0004
305,1.5496633052825928,1.528062105178833,0.36538461538461536,0.8269230769230769,0.21428571428571427,0.8571428571428571,0.0004
306,1.5648798942565918,1.5262418985366821,0.36538461538461536,0.8269230769230769,0.21428571428571427,0.8571428571428571,0.0004
307,1.5648789405822754,1.523442268371582,0.36538461538461536,0.8269230769230769,0.21428571428571427,0.8571428571428571,0.0004
308,1.5675609111785889,1.5233296155929565,0.36538461538461536,0.8269230769230769,0.21428571428571427,0.8571428571428571,0.0004
309,1.5341590642929077,1.5230320692062378,0.36538461538461536,0.8269230769230769,0.21428571428571427,0.8571428571428571,0.0004
310,1.5198838710784912,1.5225993394851685,0.36538461538461536,0.8269230769230769,0.21428571428571427,0.8571428571428571,0.0004
311,1.5618466138839722,1.521375298500061,0.36538461538461536,0.8269230769230769,0.21428571428571427,0.8571428571428571,0.0004
312,1.530701994895935,1.5245740413665771,0.36538461538461536,0.8269230769230769,0.21428571428571427,0.8571428571428571,0.0004
313,1.5618406534194946,1.5290735960006714,0.36538461538461536,0.8269230769230769,0.21428571428571427,0.8571428571428571,0.0004
314,1.5798479318618774,1.5390245914459229,0.36538461538461536,0.8269230769230769,0.21428571428571427,0.8571428571428571,0.0004
315,1.5458730459213257,1.5403083562850952,0.36538461538461536,0.8269230769230769,0.21428571428571427,0.8571428571428571,0.0004
316,1.5330507159233093,1.5453252792358398,0.36538461538461536,0.8269230769230769,0.21428571428571427,0.8571428571428571,0.0004
317,1.5765008330345154,1.548210859298706,0.36538461538461536,0.8269230769230769,0.21428571428571427,0.8571428571428571,0.0004
318,1.5556384921073914,1.5505681037902832,0.36538461538461536,0.8269230769230769,0.21428571428571427,0.8571428571428571,0.0004
319,1.5515854358673096,1.5507707595825195,0.36538461538461536,0.8269230769230769,0.21428571428571427,0.8571428571428571,0.0004
320,1.5375932455062866,1.547670602798462,0.36538461538461536,0.8269230769230769,0.21428571428571427,0.8571428571428571,0.0004
321,1.5805175304412842,1.5434043407440186,0.36538461538461536,0.8269230769230769,0.21428571428571427,0.8571428571428571,0.0004
322,1.5480836033821106,1.5382952690124512,0.36538461538461536,0.8269230769230769,0.21428571428571427,0.8571428571428571,0.0004
323,1.54939603805542,1.5362982749938965,0.36538461538461536,0.8269230769230769,0.21428571428571427,0.8571428571428571,0.0004
324,1.549348771572113,1.5288455486297607,0.36538461538461536,0.8269230769230769,0.21428571428571427,0.8571428571428571,0.0004
325,1.5760329961776733,1.5274810791015625,0.36538461538461536,0.8269230769230769,0.21428571428571427,0.8571428571428571,0.0004
326,1.542906403541565,1.52177095413208,0.36538461538461536,0.8269230769230769,0.21428571428571427,0.8571428571428571,0.0004
327,1.519571304321289,1.5135637521743774,0.36538461538461536,0.8269230769230769,0.21428571428571427,0.8571428571428571,0.0004
328,1.5416170954704285,1.5148186683654785,0.36538461538461536,0.8269230769230769,0.21428571428571427,0.8571428571428571,0.0004
329,1.5614517331123352,1.5138471126556396,0.36538461538461536,0.8269230769230769,0.2857142857142857,0.8571428571428571,0.0004
330,1.5652165412902832,1.5114045143127441,0.38461538461538464,0.8269230769230769,0.14285714285714285,0.8571428571428571,0.0004
331,1.5327693819999695,1.5099661350250244,0.36538461538461536,0.8269230769230769,0.14285714285714285,0.8571428571428571,0.0004
332,1.5739076733589172,1.5287361145019531,0.4423076923076923,0.8269230769230769,0.21428571428571427,0.8571428571428571,0.0004
333,1.535735845565796,1.5240199565887451,0.46153846153846156,0.8269230769230769,0.35714285714285715,0.8571428571428571,0.0004
334,1.545893907546997,1.5203189849853516,0.34615384615384615,0.8269230769230769,0.35714285714285715,0.8571428571428571,0.0004
335,1.5467320084571838,1.5205392837524414,0.38461538461538464,0.8269230769230769,0.21428571428571427,0.8571428571428571,0.0004
336,1.498293697834015,1.5316803455352783,0.36538461538461536,0.8269230769230769,0.21428571428571427,0.8571428571428571,0.0004
337,1.554965078830719,1.5298268795013428,0.36538461538461536,0.8269230769230769,0.21428571428571427,0.8571428571428571,0.0004
338,1.529443621635437,1.5337032079696655,0.36538461538461536,0.8269230769230769,0.21428571428571427,0.8571428571428571,0.0004
339,1.5227298736572266,1.529085636138916,0.36538461538461536,0.8269230769230769,0.21428571428571427,0.8571428571428571,0.0004
340,1.5118281841278076,1.5428931713104248,0.36538461538461536,0.8269230769230769,0.21428571428571427,0.8571428571428571,0.0004
341,1.547135353088379,1.5656137466430664,0.36538461538461536,0.8269230769230769,0.21428571428571427,0.8571428571428571,0.0004
342,1.5331573486328125,1.5382267236709595,0.36538461538461536,0.8269230769230769,0.21428571428571427,0.8571428571428571,0.0004
343,1.5662649273872375,1.5813795328140259,0.36538461538461536,0.8269230769230769,0.21428571428571427,0.8571428571428571,0.0004
344,1.5173598527908325,1.5357768535614014,0.36538461538461536,0.8269230769230769,0.21428571428571427,0.8571428571428571,0.0004
345,1.5111996531486511,1.5867520570755005,0.34615384615384615,0.8269230769230769,0.21428571428571427,0.8571428571428571,0.0004
346,1.5156971216201782,1.5496587753295898,0.46153846153846156,0.8269230769230769,0.21428571428571427,0.8571428571428571,0.0004
347,1.5301991701126099,1.5277235507965088,0.46153846153846156,0.8269230769230769,0.21428571428571427,0.8571428571428571,0.0004
348,1.51443749666214,1.5250275135040283,0.36538461538461536,0.8269230769230769,0.21428571428571427,0.8571428571428571,0.0004
349,1.5663398504257202,1.524571180343628,0.36538461538461536,0.8269230769230769,0.21428571428571427,0.8571428571428571,0.0004
350,1.5311896800994873,1.5193439722061157,0.36538461538461536,0.8269230769230769,0.21428571428571427,0.8571428571428571,0.0004
351,1.5503126978874207,1.5217609405517578,0.36538461538461536,0.8269230769230769,0.21428571428571427,0.8571428571428571,0.0004
352,1.5429088473320007,1.524409532546997,0.36538461538461536,0.8269230769230769,0.21428571428571427,0.8571428571428571,0.0004
353,1.575294017791748,1.5348137617111206,0.36538461538461536,0.8269230769230769,0.21428571428571427,0.8571428571428571,0.0004
354,1.5495889782905579,1.5472997426986694,0.4230769230769231,0.8269230769230769,0.35714285714285715,0.8571428571428571,0.0004
355,1.5452712178230286,1.5384597778320312,0.36538461538461536,0.8269230769230769,0.35714285714285715,0.8571428571428571,0.0004
356,1.559267520904541,1.5391359329223633,0.38461538461538464,0.8269230769230769,0.21428571428571427,0.8571428571428571,0.0004
357,1.54200679063797,1.5341248512268066,0.36538461538461536,0.8269230769230769,0.21428571428571427,0.8571428571428571,0.0004
358,1.5263441801071167,1.5314466953277588,0.36538461538461536,0.8269230769230769,0.21428571428571427,0.8571428571428571,0.0004
359,1.5710896253585815,1.5268328189849854,0.36538461538461536,0.8269230769230769,0.21428571428571427,0.8571428571428571,0.0004
360,1.5402587056159973,1.5285086631774902,0.36538461538461536,0.8269230769230769,0.21428571428571427,0.8571428571428571,0.0004
361,1.5319624543190002,1.5375570058822632,0.36538461538461536,0.8269230769230769,0.21428571428571427,0.8571428571428571,0.0004
362,1.520972728729248,1.5250599384307861,0.36538461538461536,0.8269230769230769,0.21428571428571427,0.8571428571428571,0.0004
363,1.5848810076713562,1.5131529569625854,0.36538461538461536,0.8269230769230769,0.21428571428571427,0.8571428571428571,0.0004
364,1.529037058353424,1.5933185815811157,0.46153846153846156,0.8269230769230769,0.21428571428571427,0.8571428571428571,0.0004
365,1.4927575588226318,1.5285660028457642,0.4230769230769231,0.8269230769230769,0.21428571428571427,0.8571428571428571,0.0004
366,1.4997649192810059,1.5270791053771973,0.4230769230769231,0.8269230769230769,0.21428571428571427,0.8571428571428571,0.0004
367,1.5398016571998596,1.518854022026062,0.40384615384615385,0.8269230769230769,0.2857142857142857,0.8571428571428571,0.0004
368,1.5057452321052551,1.5601081848144531,0.36538461538461536,0.8269230769230769,0.35714285714285715,0.8571428571428571,0.0004
369,1.5681355595588684,1.5693639516830444,0.34615384615384615,0.8269230769230769,0.35714285714285715,0.8571428571428571,0.0004
370,1.522007703781128,1.5141061544418335,0.4230769230769231,0.8269230769230769,0.21428571428571427,0.8571428571428571,0.0004
371,1.5646608471870422,1.5320926904678345,0.36538461538461536,0.8269230769230769,0.21428571428571427,0.8571428571428571,0.0004
372,1.5015749335289001,1.4865312576293945,0.36538461538461536,0.8269230769230769,0.21428571428571427,0.8571428571428571,0.0004
373,1.523788034915924,1.5673638582229614,0.4230769230769231,0.8269230769230769,0.21428571428571427,0.8571428571428571,0.0004
374,1.5261590480804443,1.530644178390503,0.40384615384615385,0.8269230769230769,0.2857142857142857,0.8571428571428571,0.0004
375,1.5014032125473022,1.5359554290771484,0.4423076923076923,0.8269230769230769,0.21428571428571427,0.8571428571428571,0.0004
376,1.553127408027649,1.5468194484710693,0.36538461538461536,0.8269230769230769,0.21428571428571427,0.8571428571428571,0.0004
377,1.5096213221549988,1.5215336084365845,0.36538461538461536,0.8269230769230769,0.21428571428571427,0.8571428571428571,0.0004
378,1.5089765787124634,1.5208933353424072,0.38461538461538464,0.8269230769230769,0.2857142857142857,0.8571428571428571,0.0004
379,1.4891904592514038,1.4937002658843994,0.40384615384615385,0.8269230769230769,0.35714285714285715,0.8571428571428571,0.0004
380,1.4352850317955017,1.5957834720611572,0.40384615384615385,0.8269230769230769,0.21428571428571427,0.8571428571428571,0.0004
381,1.6371133923530579,1.6032456159591675,0.38461538461538464,0.8269230769230769,0.21428571428571427,0.8571428571428571,0.0004
382,1.4364023208618164,1.6527284383773804,0.40384615384615385,0.8269230769230769,0.35714285714285715,0.8571428571428571,0.0004
383,1.5965296626091003,1.6680012941360474,0.3269230769230769,0.8269230769230769,0.35714285714285715,0.8571428571428571,0.0004
384,1.5629867911338806,1.5424628257751465,0.36538461538461536,0.8269230769230769,0.42857142857142855,0.8571428571428571,0.0004
385,1.5090423226356506,1.5269376039505005,0.3269230769230769,0.8269230769230769,0.21428571428571427,0.8571428571428571,0.0004
386,1.4879708886146545,1.502479910850525,0.2692307692307692,0.8269230769230769,0.2857142857142857,0.8571428571428571,0.0004
387,1.450708270072937,1.5650578737258911,0.40384615384615385,0.8269230769230769,0.35714285714285715,0.8571428571428571,0.0004
388,1.4792197346687317,1.5545506477355957,0.40384615384615385,0.8269230769230769,0.2857142857142857,0.8571428571428571,0.0004
389,1.443820595741272,1.5429723262786865,0.4230769230769231,0.8269230769230769,0.35714285714285715,0.8571428571428571,0.0004
390,1.5465234518051147,1.5177557468414307,0.34615384615384615,0.8269230769230769,0.35714285714285715,0.8571428571428571,0.0004
391,1.4820363521575928,1.4066559076309204,0.38461538461538464,0.8269230769230769,0.2857142857142857,0.8571428571428571,0.0004
392,1.4223465323448181,1.5004966259002686,0.46153846153846156,0.8269230769230769,0.2857142857142857,0.8571428571428571,0.0004
393,1.376871645450592,1.7010737657546997,0.5,0.8269230769230769,0.21428571428571427,0.8571428571428571,0.0004
394,1.5964611172676086,1.5913633108139038,0.36538461538461536,0.8269230769230769,0.21428571428571427,0.8571428571428571,0.0004
395,1.6370596289634705,1.5662347078323364,0.36538461538461536,0.8269230769230769,0.21428571428571427,0.8571428571428571,0.0004
396,1.5547678470611572,1.558059811592102,0.36538461538461536,0.8269230769230769,0.21428571428571427,0.8571428571428571,0.0004
397,1.5394461154937744,1.5356996059417725,0.36538461538461536,0.8269230769230769,0.21428571428571427,0.8571428571428571,0.0004
398,1.5269066095352173,1.5738673210144043,0.38461538461538464,0.8269230769230769,0.35714285714285715,0.8571428571428571,0.0004
399,1.5654923915863037,1.564652919769287,0.34615384615384615,0.8269230769230769,0.35714285714285715,0.8571428571428571,0.0004
400,1.5433757305145264,1.5264743566513062,0.3076923076923077,0.8269230769230769,0.42857142857142855,0.8571428571428571,0.0004
401,1.515978217124939,1.527392029762268,0.36538461538461536,0.8269230769230769,0.35714285714285715,0.8571428571428571,0.0004
402,1.4937414526939392,1.4837133884429932,0.36538461538461536,0.8269230769230769,0.35714285714285715,0.8571428571428571,0.0004
403,1.5063672065734863,1.5180308818817139,0.36538461538461536,0.8269230769230769,0.2857142857142857,0.8571428571428571,0.0004
404,1.5476609468460083,1.5156580209732056,0.36538461538461536,0.8269230769230769,0.2857142857142857,0.8571428571428571,0.0004
405,1.5231964588165283,1.5112359523773193,0.4423076923076923,0.8269230769230769,0.2857142857142857,0.8571428571428571,0.0004
406,1.4725385308265686,1.5088664293289185,0.46153846153846156,0.8269230769230769,0.21428571428571427,0.8571428571428571,0.0004
407,1.4782660603523254,1.4886611700057983,0.4423076923076923,0.8269230769230769,0.2857142857142857,0.8571428571428571,0.0004
408,1.4572957754135132,1.5498297214508057,0.38461538461538464,0.8269230769230769,0.21428571428571427,0.8571428571428571,0.0004
409,1.4524779319763184,1.5709331035614014,0.4423076923076923,0.8269230769230769,0.21428571428571427,0.8571428571428571,0.0004
410,1.404679775238037,1.4391026496887207,0.4230769230769231,0.8269230769230769,0.21428571428571427,0.8571428571428571,0.0004
411,1.3810515403747559,1.5136749744415283,0.4423076923076923,0.8269230769230769,0.35714285714285715,0.8571428571428571,0.0004
412,1.4115367531776428,1.778982400894165,0.4807692307692308,0.8269230769230769,0.21428571428571427,0.8571428571428571,0.0004
413,1.4604381322860718,1.5408986806869507,0.4423076923076923,0.8269230769230769,0.2857142857142857,0.8571428571428571,0.0004
414,1.403426170349121,1.4470173120498657,0.46153846153846156,0.8269230769230769,0.2857142857142857,0.8571428571428571,0.0004
415,1.5856519937515259,1.5757148265838623,0.38461538461538464,0.8269230769230769,0.21428571428571427,0.8571428571428571,0.0004
416,1.6306815147399902,1.5787324905395508,0.36538461538461536,0.8269230769230769,0.21428571428571427,0.8571428571428571,0.0004
417,1.5251551270484924,1.5987969636917114,0.38461538461538464,0.8269230769230769,0.21428571428571427,0.8571428571428571,0.0004
418,1.5263403058052063,1.7463446855545044,0.40384615384615385,0.8461538461538461,0.35714285714285715,0.5714285714285714,0.0004
419,1.583759069442749,1.5982505083084106,0.34615384615384615,0.8653846153846154,0.42857142857142855,0.8571428571428571,0.0004
420,1.5494418740272522,1.5610761642456055,0.38461538461538464,0.8461538461538461,0.35714285714285715,0.8571428571428571,0.0004
421,1.4839636087417603,1.548866868019104,0.36538461538461536,0.8269230769230769,0.2857142857142857,0.8571428571428571,0.0004
422,1.489420473575592,1.5682082176208496,0.40384615384615385,0.8269230769230769,0.21428571428571427,0.8571428571428571,0.0004
423,1.4559674859046936,1.5356470346450806,0.40384615384615385,0.8269230769230769,0.21428571428571427,0.8571428571428571,0.0004
424,1.4932329654693604,1.5376741886138916,0.36538461538461536,0.8269230769230769,0.21428571428571427,0.8571428571428571,0.0004
425,1.457204282283783,1.5416264533996582,0.36538461538461536,0.8269230769230769,0.21428571428571427,0.8571428571428571,0.0004
426,1.454471230506897,1.544171929359436,0.38461538461538464,0.8269230769230769,0.21428571428571427,0.8571428571428571,0.0004
427,1.4277045130729675,1.5182076692581177,0.5,0.8269230769230769,0.14285714285714285,0.8571428571428571,0.0004
428,1.3994098901748657,1.6161770820617676,0.40384615384615385,0.8269230769230769,0.21428571428571427,0.8571428571428571,0.0004
429,1.4132235646247864,1.6375343799591064,0.4423076923076923,0.8269230769230769,0.2857142857142857,0.8571428571428571,0.0004
430,1.4814236760139465,1.5438117980957031,0.4807692307692308,0.8269230769230769,0.21428571428571427,0.8571428571428571,0.0004
431,1.3815107345581055,1.5182390213012695,0.46153846153846156,0.8269230769230769,0.21428571428571427,0.8571428571428571,0.0004
432,1.4213311672210693,1.4917973279953003,0.4230769230769231,0.8269230769230769,0.2857142857142857,0.8571428571428571,0.0004
433,1.4033230543136597,1.7297176122665405,0.5,0.8269230769230769,0.21428571428571427,0.8571428571428571,0.0004
434,1.4184303879737854,1.6059293746948242,0.4230769230769231,0.8269230769230769,0.21428571428571427,0.8571428571428571,0.0004
435,1.4597505331039429,1.631669044494629,0.4423076923076923,0.8269230769230769,0.21428571428571427,0.8571428571428571,0.0004
436,1.599654495716095,1.595024585723877,0.36538461538461536,0.8269230769230769,0.21428571428571427,0.8571428571428571,0.0004
437,1.6242515444755554,1.5387868881225586,0.36538461538461536,0.8269230769230769,0.21428571428571427,0.8571428571428571,0.0004
438,1.5220580697059631,1.498636245727539,0.38461538461538464,0.8269230769230769,0.2857142857142857,0.8571428571428571,0.0004
439,1.3098467588424683,1.5453153848648071,0.46153846153846156,0.8269230769230769,0.35714285714285715,0.8571428571428571,0.0004
440,1.3937406539916992,1.750792145729065,0.4423076923076923,0.8461538461538461,0.21428571428571427,0.7142857142857143,0.0004
441,1.4552221894264221,1.609121561050415,0.38461538461538464,0.8653846153846154,0.21428571428571427,0.7857142857142857,0.0004
442,1.3586106300354004,1.663735032081604,0.4807692307692308,0.9038461538461539,0.21428571428571427,0.7857142857142857,0.0004
443,1.3367094993591309,1.5412226915359497,0.4230769230769231,0.8846153846153846,0.21428571428571427,0.8571428571428571,0.0004
444,1.4537708163261414,1.5507917404174805,0.4807692307692308,0.8269230769230769,0.21428571428571427,0.8571428571428571,0.0004
445,1.458678424358368,1.6289880275726318,0.40384615384615385,0.8269230769230769,0.2857142857142857,0.7857142857142857,0.0004
446,1.3716116547584534,1.4475655555725098,0.40384615384615385,0.8653846153846154,0.2857142857142857,0.8571428571428571,0.0004
447,1.3512789011001587,1.7210749387741089,0.4230769230769231,0.9423076923076923,0.21428571428571427,0.8571428571428571,0.0004
448,1.4534890055656433,1.6555404663085938,0.38461538461538464,0.9038461538461539,0.21428571428571427,0.8571428571428571,0.0004
449,1.429888367652893,1.5584214925765991,0.40384615384615385,0.8269230769230769,0.21428571428571427,0.8571428571428571,0.0004
450,1.5733042359352112,1.5743637084960938,0.38461538461538464,0.8269230769230769,0.21428571428571427,0.8571428571428571,0.0004
451,1.4417415857315063,1.6058988571166992,0.4230769230769231,0.8461538461538461,0.21428571428571427,0.8571428571428571,0.0004
452,1.4099571108818054,1.564139485359192,0.40384615384615385,0.8461538461538461,0.21428571428571427,0.8571428571428571,0.0004
453,1.3292846083641052,1.5688066482543945,0.40384615384615385,0.9230769230769231,0.21428571428571427,0.7857142857142857,0.0004
454,1.335847795009613,1.6263420581817627,0.4423076923076923,0.8846153846153846,0.21428571428571427,0.8571428571428571,0.0004
455,1.3548777103424072,1.6880569458007812,0.4230769230769231,0.8653846153846154,0.14285714285714285,0.8571428571428571,0.0004
456,1.3338260054588318,1.8169612884521484,0.40384615384615385,0.9038461538461539,0.14285714285714285,0.6428571428571429,0.0004
457,1.3630717396736145,1.5593631267547607,0.4230769230769231,0.8846153846153846,0.2857142857142857,0.7857142857142857,0.0004
458,1.3491888046264648,1.6337053775787354,0.38461538461538464,0.8269230769230769,0.14285714285714285,0.8571428571428571,0.0004
459,1.2240562438964844,1.694422721862793,0.46153846153846156,0.9230769230769231,0.21428571428571427,0.7857142857142857,0.0004
460,1.1970447301864624,1.5145758390426636,0.46153846153846156,0.9615384615384616,0.21428571428571427,0.8571428571428571,0.0004
461,1.3558480143547058,1.7981535196304321,0.40384615384615385,0.8269230769230769,0.2857142857142857,0.5714285714285714,0.0004
462,1.6230332255363464,1.387622594833374,0.40384615384615385,0.6153846153846154,0.42857142857142855,0.7142857142857143,0.0004
463,1.7105857133865356,1.8432378768920898,0.40384615384615385,0.5,0.42857142857142855,0.5714285714285714,0.0004
464,1.6318537592887878,1.4521890878677368,0.40384615384615385,0.5384615384615384,0.35714285714285715,0.6428571428571429,0.0004
465,1.7067745923995972,1.466086745262146,0.36538461538461536,0.5192307692307693,0.42857142857142855,0.6428571428571429,0.0004
466,1.7026679515838623,1.3864202499389648,0.38461538461538464,0.5384615384615384,0.35714285714285715,0.7857142857142857,0.0004
467,1.5036694407463074,1.4473683834075928,0.38461538461538464,0.75,0.21428571428571427,0.8571428571428571,0.0004
468,1.3431893587112427,1.670426607131958,0.4423076923076923,0.8461538461538461,0.2857142857142857,0.8571428571428571,0.0004
469,1.382171630859375,1.5064711570739746,0.4807692307692308,0.8269230769230769,0.21428571428571427,0.8571428571428571,0.0004
470,1.4471147656440735,1.6128349304199219,0.38461538461538464,0.8269230769230769,0.21428571428571427,0.8571428571428571,0.0004
471,1.3810328841209412,1.5106379985809326,0.40384615384615385,0.8269230769230769,0.2857142857142857,0.8571428571428571,0.0004
472,1.402840793132782,1.6099698543548584,0.4423076923076923,0.8269230769230769,0.2857142857142857,0.8571428571428571,0.0004
473,1.39364492893219,1.6176868677139282,0.46153846153846156,0.8269230769230769,0.35714285714285715,0.8571428571428571,0.0004
474,1.4720082879066467,1.5813708305358887,0.40384615384615385,0.8269230769230769,0.35714285714285715,0.8571428571428571,0.0004
475,1.487545132637024,1.5742311477661133,0.40384615384615385,0.8269230769230769,0.35714285714285715,0.8571428571428571,0.0004
476,1.5153620839118958,1.4207571744918823,0.38461538461538464,0.8269230769230769,0.42857142857142855,0.8571428571428571,0.0004
477,1.482253074645996,1.523026466369629,0.4230769230769231,0.8269230769230769,0.35714285714285715,0.8571428571428571,0.0004
478,1.4185893535614014,1.4852924346923828,0.4423076923076923,0.8269230769230769,0.5,0.8571428571428571,0.0004
479,1.4492533206939697,1.5451140403747559,0.38461538461538464,0.8269230769230769,0.2857142857142857,0.8571428571428571,0.0004
480,1.5170021057128906,1.4965732097625732,0.4807692307692308,0.8269230769230769,0.42857142857142855,0.8571428571428571,0.0004
481,1.449690341949463,1.5033608675003052,0.4807692307692308,0.8269230769230769,0.35714285714285715,0.8571428571428571,0.0004
482,1.431441307067871,1.6301515102386475,0.46153846153846156,0.8269230769230769,0.14285714285714285,0.8571428571428571,0.0004
483,1.4589699506759644,1.5134670734405518,0.38461538461538464,0.8269230769230769,0.2857142857142857,0.8571428571428571,0.0004
484,1.430503487586975,1.5007696151733398,0.46153846153846156,0.8269230769230769,0.35714285714285715,0.8571428571428571,0.0004
485,1.3761000037193298,1.489792823791504,0.5,0.8269230769230769,0.35714285714285715,0.8571428571428571,0.0004
486,1.3910558819770813,1.4000778198242188,0.40384615384615385,0.8269230769230769,0.5714285714285714,0.8571428571428571,0.0004
487,1.365662932395935,1.4233647584915161,0.46153846153846156,0.8269230769230769,0.35714285714285715,0.8571428571428571,0.0004
488,1.4228274822235107,1.5302984714508057,0.36538461538461536,0.8269230769230769,0.2857142857142857,0.8571428571428571,0.0004
489,1.367549479007721,1.3433034420013428,0.4423076923076923,0.8269230769230769,0.2857142857142857,0.8571428571428571,0.0004
490,1.4725750088691711,1.4834179878234863,0.34615384615384615,0.8269230769230769,0.35714285714285715,0.8571428571428571,0.0004
491,1.440670371055603,1.6584476232528687,0.4230769230769231,0.8269230769230769,0.35714285714285715,0.8571428571428571,0.0004
492,1.474033236503601,1.6835707426071167,0.36538461538461536,0.8269230769230769,0.14285714285714285,0.8571428571428571,0.0004
493,1.3241596221923828,1.4818589687347412,0.4807692307692308,0.8269230769230769,0.2857142857142857,0.8571428571428571,0.0004
494,1.3965953588485718,1.5248730182647705,0.4230769230769231,0.8269230769230769,0.42857142857142855,0.8571428571428571,0.0004
495,1.3929012417793274,1.5540385246276855,0.38461538461538464,0.8269230769230769,0.2857142857142857,0.8571428571428571,0.0004
496,1.4573233127593994,1.5365608930587769,0.38461538461538464,0.8269230769230769,0.35714285714285715,0.8571428571428571,0.0004
497,1.2950008511543274,1.4785690307617188,0.4807692307692308,0.8269230769230769,0.35714285714285715,0.8571428571428571,0.0004
498,1.334614098072052,1.525444507598877,0.5,0.8269230769230769,0.2857142857142857,0.8571428571428571,0.0004
499,1.333038568496704,1.5147749185562134,0.46153846153846156,0.8269230769230769,0.2857142857142857,0.8571428571428571,0.0004
500,1.2992944121360779,1.6229344606399536,0.4807692307692308,0.8269230769230769,0.21428571428571427,0.8571428571428571,0.0004
501,1.275635540485382,1.7295951843261719,0.46153846153846156,0.8269230769230769,0.14285714285714285,0.8571428571428571,0.0004
502,1.2864060997962952,1.5225872993469238,0.4807692307692308,0.8269230769230769,0.21428571428571427,0.8571428571428571,0.0004
503,1.2781208157539368,1.7235159873962402,0.46153846153846156,0.8653846153846154,0.21428571428571427,0.7857142857142857,0.0004
504,1.2140733003616333,1.4747869968414307,0.4807692307692308,0.8461538461538461,0.21428571428571427,0.9285714285714286,0.0004
505,1.2840224504470825,1.489130973815918,0.4423076923076923,0.8846153846153846,0.2857142857142857,0.9285714285714286,0.0004
506,1.2651801109313965,1.6592732667922974,0.4423076923076923,0.8846153846153846,0.21428571428571427,0.7142857142857143,0.0004
507,1.3075461387634277,1.7253656387329102,0.4230769230769231,0.8076923076923077,0.14285714285714285,0.6428571428571429,0.0004
508,1.3952353596687317,1.7483787536621094,0.38461538461538464,0.8461538461538461,0.21428571428571427,0.6428571428571429,0.0004
509,1.4390955567359924,1.4753226041793823,0.38461538461538464,0.7692307692307693,0.21428571428571427,0.8571428571428571,0.0004
510,1.3610448837280273,1.5550986528396606,0.40384615384615385,0.7692307692307693,0.21428571428571427,0.7857142857142857,0.0004
511,1.5019168853759766,1.8889458179473877,0.40384615384615385,0.75,0.21428571428571427,0.6428571428571429,0.0004
512,1.5093982815742493,1.7162935733795166,0.34615384615384615,0.8076923076923077,0.21428571428571427,0.7142857142857143,0.0004
513,1.365025818347931,1.6942310333251953,0.4230769230769231,0.8269230769230769,0.21428571428571427,0.8571428571428571,0.0004
514,1.3449044227600098,1.9065992832183838,0.40384615384615385,0.8076923076923077,0.14285714285714285,0.7857142857142857,0.0004
515,1.2828233242034912,1.4287705421447754,0.4230769230769231,0.8461538461538461,0.2857142857142857,0.8571428571428571,0.0004
516,1.2275816202163696,1.5677640438079834,0.4807692307692308,0.8653846153846154,0.2857142857142857,0.9285714285714286,0.0004
517,1.4081913232803345,1.7672507762908936,0.4230769230769231,0.8269230769230769,0.21428571428571427,0.8571428571428571,0.0004
518,1.3947542309761047,1.9379019737243652,0.4230769230769231,0.8461538461538461,0.21428571428571427,0.7857142857142857,0.0004
519,1.3741129636764526,1.4183251857757568,0.5,0.8269230769230769,0.2857142857142857,0.9285714285714286,0.0004
520,1.3212859630584717,1.7464590072631836,0.4423076923076923,0.8653846153846154,0.21428571428571427,0.7857142857142857,0.0004
521,1.409693956375122,1.4586821794509888,0.4230769230769231,0.8653846153846154,0.21428571428571427,0.8571428571428571,0.0004
522,1.237663984298706,1.800957202911377,0.46153846153846156,0.9423076923076923,0.21428571428571427,0.7857142857142857,0.0004
523,1.3696576952934265,1.6751556396484375,0.4230769230769231,0.9423076923076923,0.21428571428571427,0.8571428571428571,0.0004
524,1.5882263779640198,1.6891820430755615,0.40384615384615385,0.8461538461538461,0.21428571428571427,0.8571428571428571,0.0004
525,1.5521050691604614,1.6758480072021484,0.40384615384615385,0.8269230769230769,0.21428571428571427,0.8571428571428571,0.0004
526,1.619925618171692,1.604778528213501,0.40384615384615385,0.8269230769230769,0.21428571428571427,0.8571428571428571,0.0004
527,1.5339806079864502,1.6769486665725708,0.38461538461538464,0.8269230769230769,0.14285714285714285,0.8571428571428571,0.0004
528,1.5427194833755493,1.5903874635696411,0.5,0.8269230769230769,0.21428571428571427,0.8571428571428571,0.0004
529,1.493105173110962,1.5874351263046265,0.4230769230769231,0.8269230769230769,0.2857142857142857,0.8571428571428571,0.0004
530,1.488020658493042,1.6724437475204468,0.38461538461538464,0.8269230769230769,0.14285714285714285,0.8571428571428571,0.0004
531,1.4336518049240112,1.508695125579834,0.4423076923076923,0.8269230769230769,0.21428571428571427,0.8571428571428571,0.0004
532,1.4811732769012451,1.5213390588760376,0.34615384615384615,0.8269230769230769,0.21428571428571427,0.8571428571428571,0.0004
533,1.3880641460418701,1.4818239212036133,0.4230769230769231,0.8269230769230769,0.2857142857142857,0.8571428571428571,0.0004
534,1.374211311340332,1.5190190076828003,0.4423076923076923,0.8269230769230769,0.21428571428571427,0.8571428571428571,0.0004
535,1.4447903037071228,1.541762351989746,0.40384615384615385,0.8269230769230769,0.21428571428571427,0.8571428571428571,0.0004
536,1.4767447113990784,1.5338279008865356,0.4423076923076923,0.8269230769230769,0.21428571428571427,0.8571428571428571,0.0004
537,1.4984592199325562,1.5475655794143677,0.4807692307692308,0.8269230769230769,0.2857142857142857,0.8571428571428571,0.0004
538,1.5200684666633606,1.5421953201293945,0.38461538461538464,0.8269230769230769,0.2857142857142857,0.8571428571428571,0.0004
539,1.5030810832977295,1.5372260808944702,0.4423076923076923,0.8269230769230769,0.2857142857142857,0.8571428571428571,0.0004
540,1.480331540107727,1.5881202220916748,0.4423076923076923,0.8269230769230769,0.21428571428571427,0.8571428571428571,0.0004
541,1.4593505859375,1.573758840560913,0.4230769230769231,0.8269230769230769,0.21428571428571427,0.8571428571428571,0.0004
542,1.4962058067321777,1.5452011823654175,0.40384615384615385,0.8269230769230769,0.21428571428571427,0.8571428571428571,0.0004
543,1.5047364234924316,1.510756254196167,0.36538461538461536,0.8269230769230769,0.21428571428571427,0.8571428571428571,0.0004
544,1.5207749605178833,1.5799528360366821,0.36538461538461536,0.8269230769230769,0.21428571428571427,0.8571428571428571,0.0004
545,1.4774051308631897,1.4773160219192505,0.4230769230769231,0.8269230769230769,0.2857142857142857,0.8571428571428571,0.0004
546,1.553777039051056,1.5285935401916504,0.4230769230769231,0.8269230769230769,0.14285714285714285,0.8571428571428571,0.0004
547,1.4731308221817017,1.5204966068267822,0.4230769230769231,0.8269230769230769,0.21428571428571427,0.8571428571428571,0.0004
548,1.4852784276008606,1.5071113109588623,0.40384615384615385,0.8269230769230769,0.21428571428571427,0.8571428571428571,0.0004
549,1.4162030220031738,1.5386526584625244,0.4423076923076923,0.8269230769230769,0.2857142857142857,0.8571428571428571,0.0004
550,1.4573830962181091,1.590038537979126,0.4230769230769231,0.8269230769230769,0.21428571428571427,0.8571428571428571,0.0004
551,1.3880361318588257,1.4629027843475342,0.4423076923076923,0.8269230769230769,0.21428571428571427,0.8571428571428571,0.0004
552,1.4157885313034058,1.5359232425689697,0.4230769230769231,0.8269230769230769,0.2857142857142857,0.8571428571428571,0.0004
553,1.3770902752876282,1.522125244140625,0.4230769230769231,0.8269230769230769,0.35714285714285715,0.8571428571428571,0.0004
554,1.5063309073448181,1.513232707977295,0.36538461538461536,0.8269230769230769,0.2857142857142857,0.8571428571428571,0.0004
555,1.3827621340751648,1.6632881164550781,0.4230769230769231,0.8269230769230769,0.2857142857142857,0.7857142857142857,0.0004
556,1.4594946503639221,1.6311506032943726,0.4423076923076923,0.8269230769230769,0.35714285714285715,0.8571428571428571,0.0004
557,1.4785491228103638,1.6569063663482666,0.34615384615384615,0.7884615384615384,0.2857142857142857,0.8571428571428571,0.0004
558,1.3570032119750977,1.5517261028289795,0.4423076923076923,0.8269230769230769,0.21428571428571427,0.8571428571428571,0.0004
559,1.5607449412345886,1.596297025680542,0.3269230769230769,0.8269230769230769,0.2857142857142857,0.8571428571428571,0.0004
560,1.5228426456451416,1.5477054119110107,0.28846153846153844,0.8269230769230769,0.21428571428571427,0.8571428571428571,0.0004
561,1.51034015417099,1.4692314863204956,0.38461538461538464,0.8269230769230769,0.21428571428571427,0.8571428571428571,0.0004
562,1.3546040654182434,1.8165960311889648,0.46153846153846156,0.8653846153846154,0.14285714285714285,0.6428571428571429,0.0004
563,1.468828797340393,1.549109697341919,0.4230769230769231,0.8461538461538461,0.42857142857142855,0.8571428571428571,0.0004
564,1.4102676510810852,1.626535415649414,0.4423076923076923,0.9038461538461539,0.21428571428571427,0.8571428571428571,0.0004
565,1.3700621128082275,1.5181152820587158,0.4230769230769231,0.8653846153846154,0.14285714285714285,0.8571428571428571,0.0004
566,1.387923777103424,1.4811278581619263,0.46153846153846156,0.8269230769230769,0.2857142857142857,0.8571428571428571,0.0004
567,1.4231542944908142,1.6019530296325684,0.46153846153846156,0.8269230769230769,0.14285714285714285,0.8571428571428571,0.0004
568,1.3776273727416992,1.515031099319458,0.4423076923076923,0.8269230769230769,0.2857142857142857,0.8571428571428571,0.0004
569,1.3734372854232788,1.6502139568328857,0.4423076923076923,0.8269230769230769,0.2857142857142857,0.8571428571428571,0.0004
570,1.3820460438728333,1.603043794631958,0.38461538461538464,0.8269230769230769,0.35714285714285715,0.8571428571428571,0.0004
571,1.3217365741729736,1.5242729187011719,0.4423076923076923,0.9038461538461539,0.2857142857142857,0.8571428571428571,0.0004
572,1.428528368473053,1.6693038940429688,0.38461538461538464,0.8461538461538461,0.21428571428571427,0.7857142857142857,0.0004
573,1.350942850112915,1.435017704963684,0.40384615384615385,0.8461538461538461,0.21428571428571427,0.8571428571428571,0.0004
574,1.2907434105873108,1.6290522813796997,0.46153846153846156,0.8653846153846154,0.2857142857142857,0.8571428571428571,0.0004
575,1.2798340320587158,1.530062198638916,0.46153846153846156,0.8269230769230769,0.21428571428571427,0.9285714285714286,0.0004
576,1.289452314376831,1.6220510005950928,0.4807692307692308,0.8269230769230769,0.2857142857142857,0.7857142857142857,0.0004
577,1.2890570163726807,1.4892611503601074,0.46153846153846156,0.8653846153846154,0.2857142857142857,0.8571428571428571,0.0004
578,1.3075472116470337,1.8161733150482178,0.38461538461538464,0.8269230769230769,0.21428571428571427,0.7142857142857143,0.0004
579,1.3254680037498474,2.1556079387664795,0.46153846153846156,0.8461538461538461,0.14285714285714285,0.5,0.0004
580,1.4425628185272217,1.8389689922332764,0.38461538461538464,0.8461538461538461,0.14285714285714285,0.7142857142857143,0.0004
581,1.3466528058052063,1.8302050828933716,0.40384615384615385,0.8076923076923077,0.14285714285714285,0.8571428571428571,0.0004
582,1.3431307077407837,1.5710439682006836,0.4423076923076923,0.8846153846153846,0.21428571428571427,0.9285714285714286,0.0004
583,1.2946163415908813,2.108684778213501,0.40384615384615385,0.8846153846153846,0.14285714285714285,0.6428571428571429,0.0004
584,1.4497939348220825,1.7610349655151367,0.4230769230769231,0.8269230769230769,0.21428571428571427,0.7142857142857143,0.0004
585,1.3920655846595764,2.19875431060791,0.4807692307692308,0.8076923076923077,0.14285714285714285,0.5714285714285714,0.0004
586,1.2724388241767883,1.6832125186920166,0.4423076923076923,0.8653846153846154,0.2857142857142857,0.7142857142857143,0.0004
587,1.3495466113090515,1.6137832403182983,0.4230769230769231,0.8461538461538461,0.2857142857142857,0.8571428571428571,0.0004
588,1.326925814151764,2.016984224319458,0.4423076923076923,0.8461538461538461,0.21428571428571427,0.6428571428571429,0.0004
589,1.3109137415885925,1.8780229091644287,0.4230769230769231,0.8461538461538461,0.14285714285714285,0.6428571428571429,0.0004
590,1.3902298212051392,2.1021947860717773,0.4423076923076923,0.7692307692307693,0.07142857142857142,0.6428571428571429,0.0004
591,1.3233543634414673,1.7851821184158325,0.4423076923076923,0.8269230769230769,0.21428571428571427,0.7142857142857143,0.0004
592,1.2843913435935974,1.5416319370269775,0.4423076923076923,0.9230769230769231,0.2857142857142857,0.9285714285714286,0.0004
593,1.3977068066596985,1.7363969087600708,0.40384615384615385,0.8653846153846154,0.2857142857142857,0.7142857142857143,0.0004
594,1.3800968527793884,1.853185772895813,0.4423076923076923,0.8653846153846154,0.14285714285714285,0.7857142857142857,0.0004
595,1.3120827078819275,1.7168350219726562,0.46153846153846156,0.8653846153846154,0.2857142857142857,0.7857142857142857,0.0004
596,1.251170575618744,1.6215384006500244,0.4230769230769231,0.9423076923076923,0.21428571428571427,0.7857142857142857,0.0004
597,1.4258299469947815,1.74660062789917,0.46153846153846156,0.8269230769230769,0.21428571428571427,0.7142857142857143,0.0004
598,1.3504774570465088,1.795846700668335,0.46153846153846156,0.9038461538461539,0.21428571428571427,0.7142857142857143,0.0004
599,1.2832372188568115,1.9363259077072144,0.4230769230769231,0.9038461538461539,0.21428571428571427,0.7857142857142857,0.0004
600,1.348622441291809,1.7360410690307617,0.4423076923076923,0.8461538461538461,0.14285714285714285,0.8571428571428571,0.0004
601,1.353455126285553,1.8989107608795166,0.4423076923076923,0.8269230769230769,0.14285714285714285,0.7857142857142857,0.0004
602,1.3679966926574707,1.6922069787979126,0.40384615384615385,0.8653846153846154,0.21428571428571427,0.8571428571428571,0.0004
603,1.3580312728881836,1.7482904195785522,0.4423076923076923,0.8846153846153846,0.21428571428571427,0.7142857142857143,0.0004
604,1.3936198949813843,1.9860763549804688,0.4423076923076923,0.8461538461538461,0.21428571428571427,0.5714285714285714,0.0004
605,1.2583285570144653,1.5447602272033691,0.4423076923076923,0.9038461538461539,0.2857142857142857,0.8571428571428571,0.0004
606,1.2655967473983765,1.8224254846572876,0.4230769230769231,0.8846153846153846,0.14285714285714285,0.7142857142857143,0.0004
607,1.2322838306427002,1.6811449527740479,0.40384615384615385,0.8653846153846154,0.21428571428571427,0.8571428571428571,0.0004
608,1.363475739955902,1.624965786933899,0.38461538461538464,0.8846153846153846,0.21428571428571427,0.8571428571428571,0.0004
609,1.2856644988059998,1.5653029680252075,0.4230769230769231,0.9038461538461539,0.21428571428571427,0.8571428571428571,0.0004
610,1.3019801378250122,1.647629737854004,0.46153846153846156,0.8461538461538461,0.14285714285714285,0.8571428571428571,0.0004
611,1.444242775440216,1.7270164489746094,0.40384615384615385,0.8269230769230769,0.21428571428571427,0.7857142857142857,0.0004
612,1.295563519001007,1.848586082458496,0.46153846153846156,0.8653846153846154,0.21428571428571427,0.7857142857142857,0.0004
613,1.3107800483703613,1.5647330284118652,0.46153846153846156,0.8461538461538461,0.21428571428571427,0.8571428571428571,0.0004
614,1.3123523592948914,1.7549850940704346,0.4230769230769231,0.8461538461538461,0.14285714285714285,0.7142857142857143,0.0004
615,1.4071887135505676,1.867864966392517,0.4423076923076923,0.8076923076923077,0.21428571428571427,0.6428571428571429,0.0004
616,1.3312194347381592,1.9918358325958252,0.4423076923076923,0.8653846153846154,0.21428571428571427,0.6428571428571429,0.0004
617,1.3842081427574158,1.4296374320983887,0.40384615384615385,0.8846153846153846,0.2857142857142857,0.9285714285714286,0.0004
618,1.2454342246055603,1.5115327835083008,0.4423076923076923,0.9423076923076923,0.35714285714285715,0.9285714285714286,0.0004
619,1.3554608225822449,1.7691984176635742,0.5,0.8653846153846154,0.42857142857142855,0.8571428571428571,0.0004
620,1.420789361000061,1.7562646865844727,0.36538461538461536,0.8653846153846154,0.35714285714285715,0.8571428571428571,0.0004
621,1.1505698561668396,1.641813039779663,0.40384615384615385,0.9423076923076923,0.42857142857142855,0.8571428571428571,0.0004
622,1.2590451836585999,1.5675243139266968,0.4423076923076923,0.9038461538461539,0.2857142857142857,0.8571428571428571,0.0004
623,1.2287314534187317,1.9858566522598267,0.46153846153846156,0.9038461538461539,0.14285714285714285,0.7142857142857143,0.0004
624,1.2464993000030518,1.8684072494506836,0.4230769230769231,0.9230769230769231,0.21428571428571427,0.7142857142857143,0.0004
625,1.2827751636505127,1.9287631511688232,0.4807692307692308,0.8461538461538461,0.2857142857142857,0.7857142857142857,0.0004
626,1.2690224647521973,1.6671600341796875,0.4807692307692308,0.8461538461538461,0.2857142857142857,0.7857142857142857,0.0004
627,1.2343091368675232,1.8854870796203613,0.4807692307692308,0.8846153846153846,0.21428571428571427,0.6428571428571429,0.0004
628,1.2076612710952759,1.9676203727722168,0.4423076923076923,0.9230769230769231,0.21428571428571427,0.7142857142857143,0.0004
629,1.1743600368499756,2.1265969276428223,0.5,0.9230769230769231,0.14285714285714285,0.6428571428571429,0.0004
630,1.4262657165527344,1.837160348892212,0.4230769230769231,0.8846153846153846,0.21428571428571427,0.8571428571428571,0.0004
631,1.292210876941681,1.8914437294006348,0.4807692307692308,0.8846153846153846,0.21428571428571427,0.7857142857142857,0.0004
632,1.5496452450752258,1.521785020828247,0.46153846153846156,0.8269230769230769,0.2857142857142857,0.9285714285714286,0.0004
633,1.1465781927108765,1.6543763875961304,0.5,0.9423076923076923,0.2857142857142857,0.7857142857142857,0.0004
634,1.3280912637710571,2.1034514904022217,0.46153846153846156,0.8846153846153846,0.14285714285714285,0.6428571428571429,0.0004
635,1.203066110610962,1.7006241083145142,0.5,0.9230769230769231,0.35714285714285715,0.7857142857142857,0.0004
636,1.2791805863380432,1.7672758102416992,0.46153846153846156,0.8461538461538461,0.21428571428571427,0.7857142857142857,0.0004
637,1.3658103346824646,1.895559310913086,0.36538461538461536,0.8269230769230769,0.2857142857142857,0.7142857142857143,0.0004
638,1.2447082996368408,2.0459442138671875,0.4807692307692308,0.8846153846153846,0.2857142857142857,0.7142857142857143,0.0004
639,1.335462749004364,1.599937915802002,0.34615384615384615,0.8269230769230769,0.2857142857142857,0.8571428571428571,0.0004
640,1.3254263997077942,1.6718770265579224,0.4230769230769231,0.8461538461538461,0.21428571428571427,0.7857142857142857,0.0004
641,1.1843622326850891,1.8374491930007935,0.38461538461538464,0.9038461538461539,0.2857142857142857,0.8571428571428571,0.0004
642,1.2184420228004456,1.8463232517242432,0.46153846153846156,0.9230769230769231,0.21428571428571427,0.7142857142857143,0.0004
643,1.2711591124534607,1.4731831550598145,0.4423076923076923,0.8653846153846154,0.2857142857142857,0.7857142857142857,0.0004
644,1.4835218787193298,1.9178705215454102,0.4230769230769231,0.75,0.35714285714285715,0.5,0.0004
645,1.6565472483634949,2.179375171661377,0.4230769230769231,0.5961538461538461,0.35714285714285715,0.2857142857142857,0.0004
646,1.9594285488128662,2.232541084289551,0.36538461538461536,0.36538461538461536,0.2857142857142857,0.21428571428571427,0.0004
647,2.020274519920349,2.241720199584961,0.36538461538461536,0.36538461538461536,0.35714285714285715,0.14285714285714285,0.0004
648,2.0328197479248047,2.21335768699646,0.3076923076923077,0.3076923076923077,0.35714285714285715,0.14285714285714285,0.0004
649,2.008910059928894,2.0705487728118896,0.3269230769230769,0.2692307692307692,0.35714285714285715,0.2857142857142857,0.0004
650,1.9822503924369812,1.901179552078247,0.34615384615384615,0.25,0.42857142857142855,0.42857142857142855,0.0004
651,1.9642687439918518,1.875088095664978,0.34615384615384615,0.2692307692307692,0.42857142857142855,0.35714285714285715,0.0004
652,1.8841941356658936,1.9007362127304077,0.3076923076923077,0.3076923076923077,0.35714285714285715,0.35714285714285715,0.0004
653,1.794883370399475,1.9093594551086426,0.34615384615384615,0.34615384615384615,0.35714285714285715,0.5,0.0004
654,1.7810938358306885,1.8934340476989746,0.36538461538461536,0.46153846153846156,0.2857142857142857,0.42857142857142855,0.0004
655,1.8065621256828308,1.6457183361053467,0.34615384615384615,0.38461538461538464,0.5,0.7857142857142857,0.0004
656,1.698405385017395,1.7389525175094604,0.38461538461538464,0.7115384615384616,0.42857142857142855,0.7142857142857143,0.0004
657,1.6230046153068542,1.59335196018219,0.40384615384615385,0.8076923076923077,0.21428571428571427,0.7142857142857143,0.0004
658,1.5923055410385132,1.6495758295059204,0.40384615384615385,0.8461538461538461,0.14285714285714285,0.8571428571428571,0.0004
659,1.4840434789657593,1.7112176418304443,0.4423076923076923,0.8269230769230769,0.14285714285714285,0.8571428571428571,0.0004
660,1.5670469403266907,1.5556955337524414,0.4230769230769231,0.8269230769230769,0.21428571428571427,0.8571428571428571,0.0004
661,1.498163878917694,1.5063891410827637,0.5,0.8269230769230769,0.2857142857142857,0.8571428571428571,0.0004
662,1.41220223903656,1.6249969005584717,0.46153846153846156,0.8269230769230769,0.21428571428571427,0.8571428571428571,0.0004
663,1.439046323299408,1.5864522457122803,0.36538461538461536,0.8269230769230769,0.21428571428571427,0.8571428571428571,0.0004
664,1.3993583917617798,1.5924376249313354,0.36538461538461536,0.8269230769230769,0.21428571428571427,0.8571428571428571,0.0004
665,1.442965567111969,1.5187492370605469,0.36538461538461536,0.8269230769230769,0.21428571428571427,0.8571428571428571,0.0004
666,1.421733558177948,1.5762169361114502,0.36538461538461536,0.8269230769230769,0.21428571428571427,0.8571428571428571,0.0004
667,1.4888836145401,1.592400312423706,0.38461538461538464,0.8269230769230769,0.2857142857142857,0.8571428571428571,0.0004
668,1.4876419305801392,1.5237433910369873,0.34615384615384615,0.8269230769230769,0.2857142857142857,0.8571428571428571,0.0004
669,1.3907952904701233,1.6198080778121948,0.4423076923076923,0.8269230769230769,0.14285714285714285,0.8571428571428571,0.0004
670,1.4012929201126099,1.6572332382202148,0.40384615384615385,0.8269230769230769,0.2857142857142857,0.8571428571428571,0.0004
671,1.3881497383117676,1.5147196054458618,0.3269230769230769,0.8269230769230769,0.2857142857142857,0.8571428571428571,0.0004
672,1.3977578282356262,1.798419713973999,0.4230769230769231,0.8269230769230769,0.21428571428571427,0.8571428571428571,0.0004
673,1.4130377173423767,1.7299540042877197,0.28846153846153844,0.8269230769230769,0.21428571428571427,0.8571428571428571,0.0004
674,1.3804028034210205,1.706730842590332,0.46153846153846156,0.8269230769230769,0.14285714285714285,0.8571428571428571,0.0004
675,1.381221354007721,1.6509876251220703,0.38461538461538464,0.8269230769230769,0.35714285714285715,0.8571428571428571,0.0004
676,1.3455509543418884,1.481492519378662,0.40384615384615385,0.8269230769230769,0.5,0.8571428571428571,0.0004
677,1.3417384028434753,1.6547901630401611,0.36538461538461536,0.8269230769230769,0.42857142857142855,0.8571428571428571,0.0004
678,1.4276986718177795,1.733769416809082,0.38461538461538464,0.8269230769230769,0.21428571428571427,0.8571428571428571,0.0004
679,1.3031179308891296,1.6263676881790161,0.46153846153846156,0.8269230769230769,0.2857142857142857,0.8571428571428571,0.0004
680,1.312424123287201,1.536149501800537,0.38461538461538464,0.8269230769230769,0.21428571428571427,0.8571428571428571,0.0004
681,1.4429465532302856,1.8404054641723633,0.34615384615384615,0.8269230769230769,0.35714285714285715,0.8571428571428571,0.0004
682,1.2895803451538086,1.6569445133209229,0.4230769230769231,0.8269230769230769,0.2857142857142857,0.8571428571428571,0.0004
683,1.3893702626228333,1.7555763721466064,0.4230769230769231,0.8269230769230769,0.2857142857142857,0.8571428571428571,0.0004
684,1.3101081848144531,1.438558578491211,0.4807692307692308,0.8269230769230769,0.5,0.8571428571428571,0.0004
685,1.2440106868743896,1.4394381046295166,0.46153846153846156,0.8269230769230769,0.42857142857142855,0.8571428571428571,0.0004
686,1.2511436939239502,1.3521398305892944,0.4423076923076923,0.8269230769230769,0.5,0.8571428571428571,0.0004
687,1.2771447896957397,1.4524106979370117,0.4807692307692308,0.8269230769230769,0.35714285714285715,0.8571428571428571,0.0004
688,1.2828812003135681,1.6145520210266113,0.4423076923076923,0.8269230769230769,0.21428571428571427,0.8571428571428571,0.0004
689,1.288265585899353,1.492052435874939,0.4230769230769231,0.8269230769230769,0.21428571428571427,0.8571428571428571,0.0004
690,1.2822723388671875,1.6814370155334473,0.5,0.8269230769230769,0.21428571428571427,0.8571428571428571,0.0004
691,1.3384796380996704,1.5964908599853516,0.4423076923076923,0.8269230769230769,0.2857142857142857,0.8571428571428571,0.0004
692,1.331080436706543,1.6975915431976318,0.46153846153846156,0.8269230769230769,0.21428571428571427,0.8571428571428571,0.0004
693,1.3212327361106873,1.6627197265625,0.46153846153846156,0.8269230769230769,0.21428571428571427,0.8571428571428571,0.0004
694,1.3208719491958618,1.4813337326049805,0.4230769230769231,0.8269230769230769,0.2857142857142857,0.8571428571428571,0.0004
695,1.2973055243492126,1.7003766298294067,0.4423076923076923,0.8269230769230769,0.21428571428571427,0.8571428571428571,0.0004
696,1.2820844054222107,1.7300039529800415,0.46153846153846156,0.8269230769230769,0.21428571428571427,0.8571428571428571,0.0004
697,1.3488616347312927,1.6097471714019775,0.4230769230769231,0.8269230769230769,0.21428571428571427,0.8571428571428571,0.0004
698,1.3055291771888733,1.6203901767730713,0.4230769230769231,0.8269230769230769,0.21428571428571427,0.8571428571428571,0.0004
699,1.335277259349823,1.6936132907867432,0.46153846153846156,0.8269230769230769,0.21428571428571427,0.8571428571428571,0.0004
700,1.3503894209861755,1.5944738388061523,0.40384615384615385,0.8269230769230769,0.21428571428571427,0.8571428571428571,0.0004
701,1.4213414788246155,1.792000651359558,0.4230769230769231,0.8269230769230769,0.21428571428571427,0.8571428571428571,0.0004
702,1.2653374075889587,1.6990472078323364,0.4230769230769231,0.8269230769230769,0.2857142857142857,0.8571428571428571,0.0004
703,1.3049213886260986,1.6682722568511963,0.46153846153846156,0.8269230769230769,0.2857142857142857,0.8571428571428571,0.0004
704,1.2873104810714722,1.6822984218597412,0.46153846153846156,0.8269230769230769,0.2857142857142857,0.8571428571428571,0.0004
705,1.256907343864441,2.1369059085845947,0.4230769230769231,0.8269230769230769,0.14285714285714285,0.8571428571428571,0.0004
706,1.4021027088165283,1.8267496824264526,0.40384615384615385,0.8269230769230769,0.35714285714285715,0.8571428571428571,0.0004
707,1.3799803853034973,1.8612041473388672,0.5192307692307693,0.8269230769230769,0.2857142857142857,0.8571428571428571,0.0004
708,1.3692446947097778,1.5708591938018799,0.46153846153846156,0.8269230769230769,0.35714285714285715,0.8571428571428571,0.0004
709,1.3297299146652222,1.865565538406372,0.46153846153846156,0.8269230769230769,0.2857142857142857,0.8571428571428571,0.0004
710,1.2115634083747864,1.62423574924469,0.4423076923076923,0.8269230769230769,0.35714285714285715,0.7857142857142857,0.0004
711,1.2526405453681946,1.747290849685669,0.5,0.9230769230769231,0.14285714285714285,0.8571428571428571,0.0004
712,1.1903525590896606,1.4424176216125488,0.46153846153846156,0.9807692307692307,0.35714285714285715,0.9285714285714286,0.0004
713,1.3950066566467285,1.6675963401794434,0.46153846153846156,0.9038461538461539,0.35714285714285715,0.7857142857142857,0.0004
714,1.2126827836036682,1.6011216640472412,0.5384615384615384,0.9423076923076923,0.2857142857142857,0.8571428571428571,0.0004
715,1.3428901433944702,1.8945326805114746,0.4423076923076923,0.8653846153846154,0.14285714285714285,0.7857142857142857,0.0004
716,1.4108783602714539,1.7695398330688477,0.4230769230769231,0.8653846153846154,0.21428571428571427,0.7857142857142857,0.0004
717,1.3900724053382874,1.511061191558838,0.40384615384615385,0.9038461538461539,0.2857142857142857,0.8571428571428571,0.0004
718,1.3065233826637268,1.6313848495483398,0.4807692307692308,0.9423076923076923,0.21428571428571427,0.8571428571428571,0.0004
719,1.3089846968650818,1.5588696002960205,0.46153846153846156,0.9423076923076923,0.21428571428571427,0.8571428571428571,0.0004
720,1.4051902294158936,1.731083869934082,0.4230769230769231,0.8653846153846154,0.21428571428571427,0.8571428571428571,0.0004
721,1.348833441734314,1.6718168258666992,0.46153846153846156,0.8846153846153846,0.21428571428571427,0.8571428571428571,0.0004
722,1.437409520149231,1.6180282831192017,0.4230769230769231,0.8653846153846154,0.21428571428571427,0.8571428571428571,0.0004
723,1.575697422027588,1.6094341278076172,0.40384615384615385,0.8461538461538461,0.21428571428571427,0.8571428571428571,0.0004
724,1.4340490698814392,1.7441067695617676,0.46153846153846156,0.8653846153846154,0.2857142857142857,0.8571428571428571,0.0004
725,1.5238279700279236,1.6822432279586792,0.3269230769230769,0.8461538461538461,0.2857142857142857,0.8571428571428571,0.0004
726,1.3251216411590576,1.5527424812316895,0.4230769230769231,0.8846153846153846,0.2857142857142857,0.8571428571428571,0.0004
727,1.3172134757041931,1.5756117105484009,0.5192307692307693,0.8846153846153846,0.2857142857142857,0.8571428571428571,0.0004
728,1.283294439315796,1.8440923690795898,0.46153846153846156,0.8846153846153846,0.35714285714285715,0.7857142857142857,0.0004
729,1.3641213178634644,1.470876693725586,0.40384615384615385,0.8653846153846154,0.35714285714285715,0.8571428571428571,0.0004
730,1.3097963333129883,1.4668574333190918,0.46153846153846156,0.9038461538461539,0.35714285714285715,0.9285714285714286,0.0004
731,1.2429145574569702,1.6014947891235352,0.46153846153846156,0.9230769230769231,0.21428571428571427,0.7857142857142857,0.0004
732,1.2704802751541138,1.438119649887085,0.40384615384615385,0.9230769230769231,0.2857142857142857,0.9285714285714286,0.0004
733,1.389132797718048,1.4540083408355713,0.38461538461538464,0.8653846153846154,0.5,0.9285714285714286,0.0004
734,1.193983793258667,1.4337111711502075,0.4807692307692308,0.9615384615384616,0.2857142857142857,0.8571428571428571,0.0004
735,1.2262153625488281,1.4922958612442017,0.40384615384615385,0.9230769230769231,0.2857142857142857,0.8571428571428571,0.0004
736,1.352443814277649,1.5422022342681885,0.5,0.8846153846153846,0.42857142857142855,0.8571428571428571,0.0004
737,1.3149805665016174,1.7793524265289307,0.5,0.9038461538461539,0.35714285714285715,0.7142857142857143,0.0004
738,1.4059383869171143,1.580236792564392,0.4230769230769231,0.8846153846153846,0.2857142857142857,0.8571428571428571,0.0004
739,1.328163504600525,1.6361794471740723,0.4423076923076923,0.8653846153846154,0.21428571428571427,0.8571428571428571,0.0004
740,1.339946210384369,1.5632363557815552,0.46153846153846156,0.8653846153846154,0.21428571428571427,0.8571428571428571,0.0004
741,1.3661561012268066,1.6589676141738892,0.4423076923076923,0.8653846153846154,0.21428571428571427,0.8571428571428571,0.0004
742,1.3453012108802795,1.638580322265625,0.4230769230769231,0.8846153846153846,0.21428571428571427,0.8571428571428571,0.0004
743,1.3454659581184387,1.5602635145187378,0.4230769230769231,0.8846153846153846,0.21428571428571427,0.8571428571428571,0.0004
744,1.3359298706054688,1.649024248123169,0.40384615384615385,0.8653846153846154,0.21428571428571427,0.8571428571428571,0.0004
745,1.3660570979118347,1.7121143341064453,0.40384615384615385,0.8653846153846154,0.21428571428571427,0.8571428571428571,0.0004
746,1.3658636808395386,1.6865003108978271,0.40384615384615385,0.8846153846153846,0.21428571428571427,0.7857142857142857,0.0004
747,1.3218693137168884,1.6036944389343262,0.4807692307692308,0.8846153846153846,0.2857142857142857,0.8571428571428571,0.0004
748,1.2587061524391174,1.5099180936813354,0.4230769230769231,0.9230769230769231,0.2857142857142857,0.8571428571428571,0.0004
749,1.390502691268921,1.6341639757156372,0.4423076923076923,0.8461538461538461,0.2857142857142857,0.8571428571428571,0.0004
750,1.4075597524642944,1.405713677406311,0.4230769230769231,0.8076923076923077,0.2857142857142857,0.9285714285714286,0.0004
751,1.3462676405906677,1.6500900983810425,0.40384615384615385,0.8846153846153846,0.14285714285714285,0.7857142857142857,0.0004
752,1.3757336735725403,1.5771260261535645,0.4230769230769231,0.8076923076923077,0.2857142857142857,0.9285714285714286,0.0004
753,1.4084150791168213,1.6618731021881104,0.36538461538461536,0.8076923076923077,0.14285714285714285,0.7142857142857143,0.0004
754,1.3374345302581787,1.6116867065429688,0.38461538461538464,0.8653846153846154,0.35714285714285715,0.7857142857142857,0.0004
755,1.2358652353286743,1.6613547801971436,0.4807692307692308,0.9038461538461539,0.42857142857142855,0.8571428571428571,0.0004
756,1.2546421885490417,1.5648337602615356,0.4807692307692308,0.8846153846153846,0.35714285714285715,0.8571428571428571,0.0004
757,1.3057509660720825,1.5938971042633057,0.4230769230769231,0.8653846153846154,0.2857142857142857,0.8571428571428571,0.0004
758,1.2762871384620667,1.6379222869873047,0.4230769230769231,0.9230769230769231,0.35714285714285715,0.7857142857142857,0.0004
759,1.3443979620933533,1.4579945802688599,0.5192307692307693,0.8461538461538461,0.42857142857142855,0.9285714285714286,0.0004
760,1.2811776995658875,1.5535696744918823,0.46153846153846156,0.8846153846153846,0.42857142857142855,0.8571428571428571,0.0004
761,1.34776109457016,1.6585404872894287,0.4230769230769231,0.8846153846153846,0.42857142857142855,0.8571428571428571,0.0004
762,1.276347815990448,1.7343387603759766,0.4807692307692308,0.8846153846153846,0.14285714285714285,0.8571428571428571,0.0004
763,1.21377295255661,1.4801266193389893,0.4807692307692308,0.9230769230769231,0.35714285714285715,0.9285714285714286,0.0004
764,1.2486773133277893,1.6339776515960693,0.40384615384615385,0.9230769230769231,0.21428571428571427,0.8571428571428571,0.0004
765,1.265449345111847,2.210028886795044,0.36538461538461536,0.9230769230769231,0.14285714285714285,0.6428571428571429,0.0004
766,1.264799416065216,1.5820045471191406,0.5,0.8846153846153846,0.21428571428571427,0.8571428571428571,0.0004
767,1.2416512370109558,1.5044186115264893,0.4423076923076923,0.8653846153846154,0.2857142857142857,0.8571428571428571,0.0004
768,1.206671416759491,1.6836217641830444,0.5192307692307693,0.9038461538461539,0.21428571428571427,0.8571428571428571,0.0004
769,1.643412709236145,1.804383635520935,0.34615384615384615,0.8653846153846154,0.21428571428571427,0.8571428571428571,0.0004
770,1.590595304965973,1.7235662937164307,0.40384615384615385,0.8461538461538461,0.21428571428571427,0.8571428571428571,0.0004
771,1.420782208442688,1.6753290891647339,0.4423076923076923,0.8653846153846154,0.21428571428571427,0.8571428571428571,0.0004
772,1.4363579154014587,1.811124563217163,0.38461538461538464,0.8269230769230769,0.21428571428571427,0.7857142857142857,0.0004
773,1.450037658214569,1.7350281476974487,0.40384615384615385,0.8461538461538461,0.14285714285714285,0.8571428571428571,0.0004
774,1.2220948934555054,1.7610044479370117,0.4807692307692308,0.8653846153846154,0.2857142857142857,0.7142857142857143,0.0004
775,1.2502023577690125,1.660610318183899,0.46153846153846156,0.9038461538461539,0.21428571428571427,0.7857142857142857,0.0004
776,1.3776889443397522,1.5536179542541504,0.36538461538461536,0.8653846153846154,0.21428571428571427,0.8571428571428571,0.0004
777,1.2926779985427856,1.573941946029663,0.4423076923076923,0.9038461538461539,0.21428571428571427,0.8571428571428571,0.0004
778,1.4171764850616455,1.6109400987625122,0.40384615384615385,0.8076923076923077,0.14285714285714285,0.8571428571428571,0.0004
779,1.3172014951705933,1.8821442127227783,0.4230769230769231,0.9038461538461539,0.21428571428571427,0.7857142857142857,0.0004
780,1.339808166027069,1.5621063709259033,0.40384615384615385,0.8846153846153846,0.21428571428571427,0.8571428571428571,0.0004
781,1.232182264328003,1.65724778175354,0.4423076923076923,0.9230769230769231,0.2857142857142857,0.7142857142857143,0.0004
782,1.372184932231903,1.679581880569458,0.40384615384615385,0.8653846153846154,0.21428571428571427,0.7857142857142857,0.0004
783,1.4133618474006653,1.5003159046173096,0.4230769230769231,0.8269230769230769,0.2857142857142857,0.8571428571428571,0.0004
784,1.3377293348312378,1.7494118213653564,0.4423076923076923,0.8653846153846154,0.42857142857142855,0.8571428571428571,0.0004
785,1.3729503154754639,1.6509883403778076,0.40384615384615385,0.8461538461538461,0.2857142857142857,0.7857142857142857,0.0004
786,1.361833393573761,1.7232143878936768,0.5384615384615384,0.8269230769230769,0.14285714285714285,0.8571428571428571,0.0004
787,1.3373125791549683,1.599433183670044,0.3269230769230769,0.9230769230769231,0.2857142857142857,0.7857142857142857,0.0004
788,1.3899495005607605,1.571239948272705,0.5,0.8076923076923077,0.2857142857142857,0.8571428571428571,0.0004
789,1.2792616486549377,1.4587624073028564,0.4423076923076923,0.9038461538461539,0.35714285714285715,0.9285714285714286,0.0004
790,1.451524794101715,2.0755858421325684,0.38461538461538464,0.7692307692307693,0.21428571428571427,0.6428571428571429,0.0004
791,1.2362204790115356,1.828048586845398,0.4230769230769231,0.9038461538461539,0.21428571428571427,0.6428571428571429,0.0004
792,1.4116779565811157,1.5310460329055786,0.5192307692307693,0.8076923076923077,0.35714285714285715,0.8571428571428571,0.0004
793,1.3658287525177002,1.6709643602371216,0.46153846153846156,0.8461538461538461,0.2857142857142857,0.7142857142857143,0.0004
794,1.3211735486984253,1.625948190689087,0.4807692307692308,0.8076923076923077,0.21428571428571427,0.7142857142857143,0.0004
795,1.3150243759155273,1.669702172279358,0.4807692307692308,0.8653846153846154,0.14285714285714285,0.8571428571428571,0.0004
796,1.2916184663772583,1.5697559118270874,0.4230769230769231,0.9423076923076923,0.14285714285714285,0.8571428571428571,0.0004
797,1.3184278011322021,1.5501840114593506,0.4230769230769231,0.9423076923076923,0.2857142857142857,0.8571428571428571,0.0004
798,1.340340495109558,1.6820523738861084,0.4230769230769231,0.8653846153846154,0.21428571428571427,0.8571428571428571,0.0004
799,1.2671645879745483,1.8738889694213867,0.46153846153846156,0.9038461538461539,0.21428571428571427,0.7857142857142857,0.0004
800,1.3393513560295105,1.5472908020019531,0.5,0.8461538461538461,0.21428571428571427,0.8571428571428571,0.0004
801,1.3041216731071472,1.5782498121261597,0.46153846153846156,0.8653846153846154,0.21428571428571427,0.8571428571428571,0.0004
802,1.375303030014038,1.808184027671814,0.4423076923076923,0.8269230769230769,0.21428571428571427,0.8571428571428571,0.0004
803,1.3862028121948242,1.7637532949447632,0.4423076923076923,0.8269230769230769,0.21428571428571427,0.7857142857142857,0.0004
804,1.3354764580726624,1.5605251789093018,0.4230769230769231,0.8653846153846154,0.2857142857142857,0.9285714285714286,0.0004
805,1.2350679636001587,1.8702692985534668,0.46153846153846156,0.9038461538461539,0.21428571428571427,0.7857142857142857,0.0004
806,1.1421014070510864,1.7003535032272339,0.5,0.9423076923076923,0.2857142857142857,0.7857142857142857,0.0004
807,1.3744889497756958,1.9509222507476807,0.38461538461538464,0.8461538461538461,0.14285714285714285,0.7142857142857143,0.0004
808,1.302986741065979,1.5546685457229614,0.4230769230769231,0.8846153846153846,0.21428571428571427,0.8571428571428571,0.0004
809,1.2731000781059265,1.6485108137130737,0.38461538461538464,0.9423076923076923,0.21428571428571427,0.8571428571428571,0.0004
810,1.2712223529815674,1.684497356414795,0.4807692307692308,0.9038461538461539,0.14285714285714285,0.7857142857142857,0.0004
811,1.260762333869934,1.5438028573989868,0.5192307692307693,0.9230769230769231,0.21428571428571427,0.8571428571428571,0.0004
812,1.2147969007492065,1.667649745941162,0.46153846153846156,0.9038461538461539,0.21428571428571427,0.8571428571428571,0.0004
813,1.273628294467926,1.4674431085586548,0.5192307692307693,0.8846153846153846,0.2857142857142857,0.9285714285714286,0.0004
814,1.2223522067070007,1.7834911346435547,0.4807692307692308,0.8846153846153846,0.14285714285714285,0.8571428571428571,0.0004
815,1.2312355041503906,1.55548095703125,0.4807692307692308,0.8653846153846154,0.21428571428571427,0.8571428571428571,0.0004
816,1.27269846200943,1.7199009656906128,0.4423076923076923,0.9038461538461539,0.2857142857142857,0.7857142857142857,0.0004
817,1.1537915468215942,1.9047496318817139,0.46153846153846156,0.9230769230769231,0.14285714285714285,0.7857142857142857,0.0004
818,1.3497978448867798,1.598435878753662,0.4423076923076923,0.8846153846153846,0.21428571428571427,0.8571428571428571,0.0004
819,1.1374214887619019,1.4299333095550537,0.40384615384615385,0.9423076923076923,0.21428571428571427,0.9285714285714286,0.0004
820,1.1868866682052612,1.4917271137237549,0.46153846153846156,0.9615384615384616,0.21428571428571427,0.9285714285714286,0.0004
821,1.3886868953704834,2.04233717918396,0.38461538461538464,0.8461538461538461,0.2857142857142857,0.7142857142857143,0.0004
822,1.4661957621574402,1.5302057266235352,0.4423076923076923,0.8461538461538461,0.21428571428571427,0.8571428571428571,0.0004
823,1.4274373054504395,2.158076047897339,0.4230769230769231,0.8076923076923077,0.14285714285714285,0.7142857142857143,0.0004
824,1.4349572658538818,1.9031198024749756,0.40384615384615385,0.8461538461538461,0.21428571428571427,0.6428571428571429,0.0004
825,1.4203497171401978,1.7176191806793213,0.4230769230769231,0.8269230769230769,0.21428571428571427,0.7857142857142857,0.0004
826,1.3823485374450684,1.8345096111297607,0.38461538461538464,0.8461538461538461,0.21428571428571427,0.7857142857142857,0.0004
827,1.3566697239875793,1.8467867374420166,0.40384615384615385,0.8653846153846154,0.14285714285714285,0.7142857142857143,0.0004
828,1.4287704825401306,1.7654962539672852,0.40384615384615385,0.8653846153846154,0.21428571428571427,0.7857142857142857,0.0004
829,1.251855731010437,1.7618677616119385,0.4807692307692308,0.8846153846153846,0.14285714285714285,0.7857142857142857,0.0004
830,1.1121041178703308,1.7274823188781738,0.5576923076923077,0.9807692307692307,0.2857142857142857,0.8571428571428571,0.0004
831,1.4641957879066467,1.6200346946716309,0.4230769230769231,0.8846153846153846,0.35714285714285715,0.8571428571428571,0.0004
832,1.3831230401992798,1.713183879852295,0.40384615384615385,0.8461538461538461,0.2857142857142857,0.9285714285714286,0.0004
833,1.2318358421325684,1.8586245775222778,0.46153846153846156,0.8461538461538461,0.2857142857142857,0.8571428571428571,0.0004
834,1.2042940855026245,1.5636568069458008,0.4230769230769231,0.8846153846153846,0.35714285714285715,0.8571428571428571,0.0004
835,1.2312990427017212,2.1214404106140137,0.46153846153846156,0.9230769230769231,0.14285714285714285,0.7857142857142857,0.0004
836,1.3379759788513184,1.6853559017181396,0.38461538461538464,0.8653846153846154,0.35714285714285715,0.8571428571428571,0.0004
837,1.3108952641487122,1.6744790077209473,0.4230769230769231,0.8461538461538461,0.2857142857142857,0.8571428571428571,0.0004
838,1.3035455346107483,1.5710266828536987,0.4807692307692308,0.8653846153846154,0.14285714285714285,0.8571428571428571,0.0004
839,1.2090218663215637,1.8920903205871582,0.4807692307692308,0.9230769230769231,0.14285714285714285,0.8571428571428571,0.0004
840,1.295714020729065,1.6691906452178955,0.38461538461538464,0.9038461538461539,0.21428571428571427,0.8571428571428571,0.0004
841,1.1686274409294128,1.5566411018371582,0.5,0.9615384615384616,0.5,0.8571428571428571,0.0004
842,1.3338926434516907,1.8370047807693481,0.4423076923076923,0.8461538461538461,0.14285714285714285,0.8571428571428571,0.0004
843,1.198917806148529,1.532221794128418,0.5,0.9615384615384616,0.2857142857142857,0.8571428571428571,0.0004
844,1.178580105304718,1.7385976314544678,0.5192307692307693,0.9230769230769231,0.2857142857142857,0.7857142857142857,0.0004
845,1.2141481041908264,2.010967254638672,0.46153846153846156,0.9230769230769231,0.21428571428571427,0.7857142857142857,0.0004
846,1.247474193572998,2.1673929691314697,0.40384615384615385,0.9423076923076923,0.14285714285714285,0.7142857142857143,0.0004
847,1.4576838612556458,1.596451759338379,0.4423076923076923,0.8461538461538461,0.2857142857142857,0.8571428571428571,0.0004
848,1.1218613386154175,1.8365496397018433,0.5,0.9230769230769231,0.21428571428571427,0.7857142857142857,0.0004
849,1.2192440629005432,1.5604867935180664,0.4423076923076923,0.9038461538461539,0.2857142857142857,0.7857142857142857,0.0004
850,1.2103326916694641,2.046173334121704,0.4423076923076923,0.8846153846153846,0.14285714285714285,0.7857142857142857,0.0004
851,1.128393292427063,1.5850542783737183,0.4423076923076923,0.9615384615384616,0.21428571428571427,0.9285714285714286,0.0004
852,1.381024718284607,1.7770583629608154,0.40384615384615385,0.8269230769230769,0.2857142857142857,0.7857142857142857,0.0004
853,1.2152830958366394,1.7119104862213135,0.4423076923076923,0.9230769230769231,0.2857142857142857,0.8571428571428571,0.0004
854,1.2033641934394836,1.7152856588363647,0.46153846153846156,0.9615384615384616,0.21428571428571427,0.7857142857142857,0.0004
855,1.255649983882904,1.6739161014556885,0.46153846153846156,0.9423076923076923,0.21428571428571427,0.8571428571428571,0.0004
856,1.1842904686927795,1.6543588638305664,0.4807692307692308,0.9615384615384616,0.2857142857142857,0.8571428571428571,0.0004
857,1.1439583897590637,1.5810484886169434,0.5192307692307693,0.9423076923076923,0.2857142857142857,0.9285714285714286,0.0004
858,1.1506311297416687,1.7979300022125244,0.5,0.9423076923076923,0.21428571428571427,0.8571428571428571,0.0004
859,1.173202395439148,1.7393896579742432,0.5,0.9615384615384616,0.2857142857142857,0.7857142857142857,0.0004
860,1.4375713467597961,1.8035672903060913,0.4230769230769231,0.8846153846153846,0.2857142857142857,0.7857142857142857,0.0004
861,1.199025809764862,1.703735589981079,0.4230769230769231,0.9423076923076923,0.2857142857142857,0.8571428571428571,0.0004
862,1.1956703662872314,1.5023362636566162,0.5,0.9423076923076923,0.2857142857142857,0.9285714285714286,0.0004
863,1.2947118282318115,1.5748252868652344,0.4230769230769231,0.9038461538461539,0.2857142857142857,0.9285714285714286,0.0004
864,1.2405998706817627,1.8956005573272705,0.5,0.9038461538461539,0.21428571428571427,0.7857142857142857,0.0004
865,1.1239227056503296,1.8519954681396484,0.5,0.9615384615384616,0.21428571428571427,0.7857142857142857,0.0004
866,1.2064871191978455,1.5322885513305664,0.4423076923076923,0.9038461538461539,0.2857142857142857,0.8571428571428571,0.0004
867,1.1147083044052124,1.66566002368927,0.4807692307692308,0.9615384615384616,0.2857142857142857,0.8571428571428571,0.0004
868,1.396978735923767,2.1224844455718994,0.46153846153846156,0.8653846153846154,0.21428571428571427,0.7857142857142857,0.0004
869,1.1530158519744873,1.6114684343338013,0.4807692307692308,0.9615384615384616,0.2857142857142857,0.8571428571428571,0.0004
870,1.2528284788131714,1.8044135570526123,0.46153846153846156,0.9230769230769231,0.2857142857142857,0.7857142857142857,0.0004
871,1.0865225195884705,1.7738020420074463,0.5192307692307693,0.9615384615384616,0.21428571428571427,0.8571428571428571,0.0004
872,1.153515875339508,2.1337552070617676,0.5,0.9230769230769231,0.21428571428571427,0.7857142857142857,0.0004
873,1.2047268152236938,1.7123913764953613,0.46153846153846156,0.9230769230769231,0.2857142857142857,0.8571428571428571,0.0004
874,1.190745770931244,2.22967529296875,0.5,0.9038461538461539,0.2857142857142857,0.7142857142857143,0.0004
875,1.3322758674621582,1.9380146265029907,0.5,0.8653846153846154,0.14285714285714285,0.7857142857142857,0.0004
876,1.2311256527900696,2.1682565212249756,0.4807692307692308,0.9038461538461539,0.14285714285714285,0.7142857142857143,0.0004
877,1.2806342244148254,2.1017231941223145,0.40384615384615385,0.9038461538461539,0.21428571428571427,0.7142857142857143,0.0004
878,1.3560272455215454,1.7256118059158325,0.5384615384615384,0.8846153846153846,0.5,0.7857142857142857,0.0004
879,1.1850172281265259,1.860732078552246,0.5384615384615384,0.9230769230769231,0.2857142857142857,0.7857142857142857,0.0004
880,1.2774490714073181,1.6250728368759155,0.40384615384615385,0.8846153846153846,0.42857142857142855,0.8571428571428571,0.0004
881,1.249209225177765,1.65445876121521,0.36538461538461536,0.9038461538461539,0.2857142857142857,0.8571428571428571,0.0004
882,1.1057583093643188,1.449127197265625,0.5192307692307693,0.9615384615384616,0.2857142857142857,0.9285714285714286,0.0004
883,1.2202908396720886,2.3458502292633057,0.4423076923076923,0.9038461538461539,0.21428571428571427,0.6428571428571429,0.0004
884,1.2772884964942932,1.5032190084457397,0.4807692307692308,0.9230769230769231,0.2857142857142857,0.9285714285714286,0.0004
885,1.2109139561653137,1.776930570602417,0.46153846153846156,0.9230769230769231,0.2857142857142857,0.7857142857142857,0.0004
886,1.3089470863342285,1.466631531715393,0.4807692307692308,0.8846153846153846,0.2857142857142857,0.9285714285714286,0.0004
887,1.3023447394371033,1.7129356861114502,0.4807692307692308,0.8653846153846154,0.21428571428571427,0.8571428571428571,0.0004
888,1.1152185797691345,1.6920572519302368,0.5,0.9615384615384616,0.2857142857142857,0.8571428571428571,0.0004
889,1.1891554594039917,1.6228196620941162,0.46153846153846156,0.9423076923076923,0.2857142857142857,0.8571428571428571,0.0004
890,1.0802003145217896,1.6093183755874634,0.5192307692307693,0.9807692307692307,0.2857142857142857,0.9285714285714286,0.0004
891,1.0777621865272522,1.5207898616790771,0.5192307692307693,0.9615384615384616,0.21428571428571427,0.9285714285714286,0.0004
892,1.1521287858486176,1.7788156270980835,0.5,0.9230769230769231,0.2857142857142857,0.8571428571428571,0.0004
893,1.1656115651130676,1.8400688171386719,0.4807692307692308,0.9230769230769231,0.21428571428571427,0.8571428571428571,0.0004
894,1.4611029028892517,2.1983771324157715,0.4230769230769231,0.8461538461538461,0.21428571428571427,0.7142857142857143,0.0004
895,1.1203196346759796,2.0263097286224365,0.4807692307692308,0.9423076923076923,0.21428571428571427,0.7857142857142857,0.0004
896,1.2474591732025146,1.6509335041046143,0.46153846153846156,0.9423076923076923,0.2857142857142857,0.8571428571428571,0.0004
897,1.3169370889663696,1.6078548431396484,0.5192307692307693,0.9038461538461539,0.2857142857142857,0.9285714285714286,0.0004
898,1.0553648173809052,1.761460542678833,0.5384615384615384,0.9615384615384616,0.21428571428571427,0.8571428571428571,0.0004
899,1.1591535806655884,1.4812660217285156,0.4807692307692308,0.9230769230769231,0.2857142857142857,0.9285714285714286,0.0004
900,1.3358926177024841,1.4611090421676636,0.46153846153846156,0.9230769230769231,0.2857142857142857,0.9285714285714286,0.0004
901,1.2501804828643799,1.6318058967590332,0.4807692307692308,0.9230769230769231,0.2857142857142857,0.9285714285714286,0.0004
902,1.3041844367980957,1.4479866027832031,0.5,0.9230769230769231,0.2857142857142857,0.9285714285714286,0.0004
903,1.1315115690231323,1.4836647510528564,0.5,0.9423076923076923,0.2857142857142857,0.9285714285714286,0.0004
904,1.2471089363098145,1.8885507583618164,0.5,0.9423076923076923,0.21428571428571427,0.8571428571428571,0.0004
905,1.3313228487968445,1.8215410709381104,0.4230769230769231,0.8846153846153846,0.21428571428571427,0.8571428571428571,0.0004
906,1.2637022137641907,1.7934634685516357,0.4423076923076923,0.8846153846153846,0.21428571428571427,0.7857142857142857,0.0004
907,1.2933037281036377,1.4872329235076904,0.46153846153846156,0.8461538461538461,0.2857142857142857,0.9285714285714286,0.0004
908,1.3896507024765015,1.8255767822265625,0.4230769230769231,0.8653846153846154,0.21428571428571427,0.8571428571428571,0.0004
909,1.27954763174057,1.5814012289047241,0.4423076923076923,0.8461538461538461,0.2857142857142857,0.8571428571428571,0.0004
910,1.2960712313652039,1.912859320640564,0.46153846153846156,0.8653846153846154,0.21428571428571427,0.7857142857142857,0.0004
911,1.363966464996338,1.7658475637435913,0.46153846153846156,0.8269230769230769,0.14285714285714285,0.8571428571428571,0.0004
912,1.1965354084968567,1.5131566524505615,0.5192307692307693,0.8846153846153846,0.2857142857142857,0.8571428571428571,0.0004
913,1.1580080389976501,1.9779363870620728,0.5,0.9615384615384616,0.14285714285714285,0.7857142857142857,0.0004
914,1.33961683511734,1.7102813720703125,0.4423076923076923,0.8461538461538461,0.21428571428571427,0.8571428571428571,0.0004
915,1.2553110718727112,1.8540102243423462,0.4807692307692308,0.9423076923076923,0.14285714285714285,0.7857142857142857,0.0004
916,1.206783413887024,1.3652578592300415,0.4423076923076923,0.9423076923076923,0.21428571428571427,0.9285714285714286,0.0004
917,1.1426477432250977,1.7860826253890991,0.4807692307692308,0.9423076923076923,0.21428571428571427,0.8571428571428571,0.0004
918,1.220888912677765,2.02066707611084,0.40384615384615385,0.9230769230769231,0.21428571428571427,0.6428571428571429,0.0004
919,1.3574618697166443,1.762603998184204,0.4423076923076923,0.8846153846153846,0.21428571428571427,0.7857142857142857,0.0004
920,1.2509340643882751,1.8357561826705933,0.36538461538461536,0.8846153846153846,0.2857142857142857,0.7857142857142857,0.0004
921,1.2175554037094116,2.0635945796966553,0.5,0.9423076923076923,0.21428571428571427,0.7142857142857143,0.0004
922,1.3738535046577454,1.6654667854309082,0.4423076923076923,0.8653846153846154,0.21428571428571427,0.8571428571428571,0.0004
923,1.361987829208374,1.726100206375122,0.4230769230769231,0.8269230769230769,0.14285714285714285,0.7857142857142857,0.0004
924,1.210822343826294,1.6296298503875732,0.4230769230769231,0.9230769230769231,0.42857142857142855,0.7857142857142857,0.0004
925,1.1676283478736877,1.8693009614944458,0.5576923076923077,0.9423076923076923,0.35714285714285715,0.7857142857142857,0.0004
926,1.098533272743225,1.74808931350708,0.4807692307692308,0.9423076923076923,0.42857142857142855,0.7857142857142857,0.0004
927,1.2211491465568542,1.70675528049469,0.5769230769230769,0.9230769230769231,0.14285714285714285,0.8571428571428571,0.0004
928,1.2615386247634888,1.681938648223877,0.40384615384615385,0.9423076923076923,0.42857142857142855,0.8571428571428571,0.0004
929,1.1083871722221375,1.9413914680480957,0.5384615384615384,0.9615384615384616,0.14285714285714285,0.7857142857142857,0.0004
930,1.116840809583664,1.385048508644104,0.4807692307692308,0.9615384615384616,0.5714285714285714,0.9285714285714286,0.0004
931,1.126138687133789,1.6043363809585571,0.5961538461538461,0.9423076923076923,0.42857142857142855,0.8571428571428571,0.0004
932,1.173153579235077,1.902836561203003,0.4807692307692308,0.9423076923076923,0.35714285714285715,0.8571428571428571,0.0004
933,1.2053784132003784,1.4436646699905396,0.46153846153846156,0.9423076923076923,0.35714285714285715,0.9285714285714286,0.0004
934,1.0930336117744446,1.7586345672607422,0.5192307692307693,0.9423076923076923,0.21428571428571427,0.8571428571428571,0.0004
935,1.1397443413734436,1.6378393173217773,0.5384615384615384,0.9423076923076923,0.2857142857142857,0.8571428571428571,0.0004
936,1.0229632258415222,1.529832363128662,0.4807692307692308,0.9807692307692307,0.35714285714285715,0.8571428571428571,0.0004
937,0.9949990212917328,1.721489667892456,0.5384615384615384,1.0,0.2857142857142857,0.7857142857142857,0.0004
938,1.2318825125694275,1.4940823316574097,0.5,0.9230769230769231,0.2857142857142857,0.9285714285714286,0.0004
939,1.0463141202926636,1.7661138772964478,0.5576923076923077,0.9615384615384616,0.21428571428571427,0.7857142857142857,0.0004
940,1.1225370168685913,1.8530604839324951,0.5192307692307693,0.9423076923076923,0.21428571428571427,0.7857142857142857,0.0004
941,1.2296087741851807,1.5284605026245117,0.4807692307692308,0.9038461538461539,0.2857142857142857,0.9285714285714286,0.0004
942,1.111659586429596,1.567527413368225,0.5,0.9807692307692307,0.2857142857142857,0.9285714285714286,0.0004
943,1.261484146118164,1.7823139429092407,0.5,0.9423076923076923,0.2857142857142857,0.7857142857142857,0.0004
944,1.3482341766357422,1.5023159980773926,0.46153846153846156,0.8846153846153846,0.2857142857142857,0.9285714285714286,0.0004
945,1.0836637020111084,1.685537576675415,0.5,0.9615384615384616,0.2857142857142857,0.8571428571428571,0.0004
946,1.1022896766662598,1.7493548393249512,0.5192307692307693,0.9615384615384616,0.2857142857142857,0.8571428571428571,0.0004
947,1.1539493799209595,1.7069976329803467,0.4807692307692308,0.9423076923076923,0.2857142857142857,0.8571428571428571,0.0004
948,1.2398290038108826,1.694885015487671,0.4807692307692308,0.9230769230769231,0.2857142857142857,0.8571428571428571,0.0004
949,1.2175572514533997,1.6494288444519043,0.46153846153846156,0.9230769230769231,0.2857142857142857,0.8571428571428571,0.0004
950,1.0685403943061829,1.4969463348388672,0.5384615384615384,0.9615384615384616,0.2857142857142857,0.9285714285714286,0.0004
951,1.1265354454517365,1.748634934425354,0.5,0.9423076923076923,0.21428571428571427,0.8571428571428571,0.0004
952,1.2601675987243652,1.9665626287460327,0.4807692307692308,0.9230769230769231,0.21428571428571427,0.7857142857142857,0.0004
953,1.043559193611145,1.7346973419189453,0.5192307692307693,0.9807692307692307,0.21428571428571427,0.8571428571428571,0.0004
954,1.1084301471710205,1.636875033378601,0.5,0.9423076923076923,0.2857142857142857,0.8571428571428571,0.0004
955,1.3429991602897644,1.5202000141143799,0.5,0.9038461538461539,0.2857142857142857,0.9285714285714286,0.0004
956,1.1356959342956543,1.8490644693374634,0.4807692307692308,0.9615384615384616,0.21428571428571427,0.7857142857142857,0.0004
957,1.0114229619503021,1.4397337436676025,0.5576923076923077,0.9807692307692307,0.2857142857142857,0.9285714285714286,0.0004
958,1.2281195521354675,1.484775424003601,0.4807692307692308,0.9038461538461539,0.2857142857142857,0.9285714285714286,0.0004
959,1.1584088802337646,1.7586339712142944,0.46153846153846156,0.9230769230769231,0.2857142857142857,0.7857142857142857,0.0004
