epoch,train_loss,val_loss,train_acc_action,train_acc_status,val_acc_action,val_acc_status,learning_rate
1,1.8141555786132812,1.777484655380249,0.3076923076923077,0.17307692307692307,0.42857142857142855,0.14285714285714285,0.0004
2,1.7991952300071716,1.7627354860305786,0.3076923076923077,0.3269230769230769,0.42857142857142855,0.8571428571428571,0.0004
3,1.778174340724945,1.7481145858764648,0.3076923076923077,0.8269230769230769,0.42857142857142855,0.8571428571428571,0.0004
4,1.7648938298225403,1.7312769889831543,0.3076923076923077,0.8269230769230769,0.42857142857142855,0.8571428571428571,0.0004
5,1.746009647846222,1.711115837097168,0.3076923076923077,0.8269230769230769,0.42857142857142855,0.8571428571428571,0.0004
6,1.7223363518714905,1.6869257688522339,0.3076923076923077,0.8269230769230769,0.42857142857142855,0.8571428571428571,0.0004
7,1.698504626750946,1.656940221786499,0.3076923076923077,0.8269230769230769,0.42857142857142855,0.8571428571428571,0.0004
8,1.6707345843315125,1.619039535522461,0.3076923076923077,0.8269230769230769,0.42857142857142855,0.8571428571428571,0.0004
9,1.6462892889976501,1.5774118900299072,0.2692307692307692,0.8269230769230769,0.21428571428571427,0.8571428571428571,0.0004
10,1.5591739416122437,1.5460407733917236,0.36538461538461536,0.8269230769230769,0.21428571428571427,0.8571428571428571,0.0004
11,1.5353163480758667,1.5574488639831543,0.36538461538461536,0.8269230769230769,0.21428571428571427,0.8571428571428571,0.0004
12,1.5972155332565308,1.5531864166259766,0.36538461538461536,0.8269230769230769,0.21428571428571427,0.8571428571428571,0.0004
13,1.5752286911010742,1.5913528203964233,0.36538461538461536,0.8269230769230769,0.21428571428571427,0.8571428571428571,0.0004
14,1.6168600916862488,1.5919419527053833,0.36538461538461536,0.8269230769230769,0.21428571428571427,0.8571428571428571,0.0004
15,1.5807182788848877,1.5397883653640747,0.36538461538461536,0.8269230769230769,0.21428571428571427,0.8571428571428571,0.0004
16,1.5355415344238281,1.5707461833953857,0.36538461538461536,0.8269230769230769,0.21428571428571427,0.8571428571428571,0.0004
17,1.5818591713905334,1.5686559677124023,0.36538461538461536,0.8269230769230769,0.21428571428571427,0.8571428571428571,0.0004
18,1.5502422451972961,1.5549209117889404,0.36538461538461536,0.8269230769230769,0.21428571428571427,0.8571428571428571,0.0004
19,1.5727258324623108,1.5395902395248413,0.36538461538461536,0.8269230769230769,0.21428571428571427,0.8571428571428571,0.0004
20,1.5733290910720825,1.5287662744522095,0.36538461538461536,0.8269230769230769,0.21428571428571427,0.8571428571428571,0.0004
21,1.6048246622085571,1.5301783084869385,0.36538461538461536,0.8269230769230769,0.21428571428571427,0.8571428571428571,0.0004
22,1.5577020049095154,1.543553352355957,0.36538461538461536,0.8269230769230769,0.21428571428571427,0.8571428571428571,0.0004
23,1.5534966588020325,1.5475332736968994,0.2692307692307692,0.8269230769230769,0.35714285714285715,0.8571428571428571,0.0004
24,1.564014196395874,1.5366370677947998,0.3269230769230769,0.8269230769230769,0.21428571428571427,0.8571428571428571,0.0004
25,1.5984718799591064,1.5296248197555542,0.36538461538461536,0.8269230769230769,0.21428571428571427,0.8571428571428571,0.0004
26,1.5801018476486206,1.5290652513504028,0.36538461538461536,0.8269230769230769,0.21428571428571427,0.8571428571428571,0.0004
27,1.5491458177566528,1.5298184156417847,0.36538461538461536,0.8269230769230769,0.21428571428571427,0.8571428571428571,0.0004
28,1.5929995775222778,1.5313966274261475,0.36538461538461536,0.8269230769230769,0.21428571428571427,0.8571428571428571,0.0004
29,1.564545750617981,1.5332344770431519,0.36538461538461536,0.8269230769230769,0.21428571428571427,0.8571428571428571,0.0004
30,1.5417056679725647,1.5355712175369263,0.36538461538461536,0.8269230769230769,0.21428571428571427,0.8571428571428571,0.0004
31,1.5378637313842773,1.5368034839630127,0.36538461538461536,0.8269230769230769,0.21428571428571427,0.8571428571428571,0.0004
32,1.5407310724258423,1.5379753112792969,0.36538461538461536,0.8269230769230769,0.21428571428571427,0.8571428571428571,0.0004
33,1.5265737771987915,1.538508415222168,0.36538461538461536,0.8269230769230769,0.21428571428571427,0.8571428571428571,0.0004
34,1.5762359499931335,1.5386126041412354,0.36538461538461536,0.8269230769230769,0.21428571428571427,0.8571428571428571,0.0004
35,1.5588275790214539,1.5390753746032715,0.36538461538461536,0.8269230769230769,0.21428571428571427,0.8571428571428571,0.0004
36,1.5611891746520996,1.5405223369598389,0.36538461538461536,0.8269230769230769,0.21428571428571427,0.8571428571428571,0.0004
37,1.5768213868141174,1.542465090751648,0.36538461538461536,0.8269230769230769,0.21428571428571427,0.8571428571428571,0.0004
38,1.565354824066162,1.5446709394454956,0.36538461538461536,0.8269230769230769,0.21428571428571427,0.8571428571428571,0.0004
39,1.537221372127533,1.5464508533477783,0.36538461538461536,0.8269230769230769,0.21428571428571427,0.8571428571428571,0.0004
40,1.5603461265563965,1.5473576784133911,0.36538461538461536,0.8269230769230769,0.21428571428571427,0.8571428571428571,0.0004
41,1.560053825378418,1.5483081340789795,0.36538461538461536,0.8269230769230769,0.21428571428571427,0.8571428571428571,0.0004
42,1.5408232808113098,1.5496073961257935,0.36538461538461536,0.8269230769230769,0.21428571428571427,0.8571428571428571,0.0004
43,1.56950044631958,1.5496127605438232,0.36538461538461536,0.8269230769230769,0.21428571428571427,0.8571428571428571,0.0004
44,1.5876347422599792,1.5486422777175903,0.36538461538461536,0.8269230769230769,0.21428571428571427,0.8571428571428571,0.0004
45,1.5602290630340576,1.5460011959075928,0.36538461538461536,0.8269230769230769,0.21428571428571427,0.8571428571428571,0.0004
46,1.5552565455436707,1.54428231716156,0.36538461538461536,0.8269230769230769,0.21428571428571427,0.8571428571428571,0.0004
47,1.5751140117645264,1.541535496711731,0.36538461538461536,0.8269230769230769,0.21428571428571427,0.8571428571428571,0.0004
48,1.5662953853607178,1.53980553150177,0.36538461538461536,0.8269230769230769,0.21428571428571427,0.8571428571428571,0.0004
49,1.5341243147850037,1.5379390716552734,0.36538461538461536,0.8269230769230769,0.21428571428571427,0.8571428571428571,0.0004
50,1.580420732498169,1.5365722179412842,0.36538461538461536,0.8269230769230769,0.21428571428571427,0.8571428571428571,0.0004
51,1.5519759058952332,1.5352404117584229,0.36538461538461536,0.8269230769230769,0.21428571428571427,0.8571428571428571,0.0004
52,1.553989589214325,1.5340003967285156,0.36538461538461536,0.8269230769230769,0.21428571428571427,0.8571428571428571,0.0004
53,1.552857518196106,1.5323176383972168,0.36538461538461536,0.8269230769230769,0.21428571428571427,0.8571428571428571,0.0004
54,1.5491596460342407,1.5303354263305664,0.36538461538461536,0.8269230769230769,0.21428571428571427,0.8571428571428571,0.0004
55,1.5655146837234497,1.529043197631836,0.36538461538461536,0.8269230769230769,0.21428571428571427,0.8571428571428571,0.0004
56,1.561409592628479,1.5276423692703247,0.36538461538461536,0.8269230769230769,0.21428571428571427,0.8571428571428571,0.0004
57,1.5515317916870117,1.527500867843628,0.36538461538461536,0.8269230769230769,0.21428571428571427,0.8571428571428571,0.0004
58,1.5060287714004517,1.5272798538208008,0.36538461538461536,0.8269230769230769,0.21428571428571427,0.8571428571428571,0.0004
59,1.5798977613449097,1.5276904106140137,0.36538461538461536,0.8269230769230769,0.21428571428571427,0.8571428571428571,0.0004
60,1.5651421546936035,1.5283565521240234,0.36538461538461536,0.8269230769230769,0.21428571428571427,0.8571428571428571,0.0004
61,1.522042691707611,1.529213547706604,0.36538461538461536,0.8269230769230769,0.21428571428571427,0.8571428571428571,0.0004
62,1.5791994333267212,1.5299656391143799,0.36538461538461536,0.8269230769230769,0.21428571428571427,0.8571428571428571,0.0004
63,1.578604280948639,1.530998945236206,0.36538461538461536,0.8269230769230769,0.21428571428571427,0.8571428571428571,0.0004
64,1.5857900977134705,1.532703161239624,0.36538461538461536,0.8269230769230769,0.21428571428571427,0.8571428571428571,0.0004
65,1.56463623046875,1.533379077911377,0.36538461538461536,0.8269230769230769,0.21428571428571427,0.8571428571428571,0.0004
66,1.5612902641296387,1.533986210823059,0.36538461538461536,0.8269230769230769,0.21428571428571427,0.8571428571428571,0.0004
67,1.5353390574455261,1.535226583480835,0.36538461538461536,0.8269230769230769,0.21428571428571427,0.8571428571428571,0.0004
68,1.563778817653656,1.5362968444824219,0.36538461538461536,0.8269230769230769,0.21428571428571427,0.8571428571428571,0.0004
69,1.5484013557434082,1.537277102470398,0.36538461538461536,0.8269230769230769,0.21428571428571427,0.8571428571428571,0.0004
70,1.5611839890480042,1.5382202863693237,0.36538461538461536,0.8269230769230769,0.21428571428571427,0.8571428571428571,0.0004
71,1.6002588272094727,1.539696216583252,0.36538461538461536,0.8269230769230769,0.21428571428571427,0.8571428571428571,0.0004
72,1.5351168513298035,1.540010690689087,0.36538461538461536,0.8269230769230769,0.21428571428571427,0.8571428571428571,0.0004
73,1.551472008228302,1.5404229164123535,0.36538461538461536,0.8269230769230769,0.21428571428571427,0.8571428571428571,0.0004
74,1.569041669368744,1.5405259132385254,0.36538461538461536,0.8269230769230769,0.21428571428571427,0.8571428571428571,0.0004
75,1.5539869666099548,1.539969563484192,0.36538461538461536,0.8269230769230769,0.21428571428571427,0.8571428571428571,0.0004
76,1.52037513256073,1.5386912822723389,0.36538461538461536,0.8269230769230769,0.21428571428571427,0.8571428571428571,0.0004
77,1.5198479890823364,1.5375752449035645,0.36538461538461536,0.8269230769230769,0.21428571428571427,0.8571428571428571,0.0004
78,1.551168441772461,1.53687584400177,0.36538461538461536,0.8269230769230769,0.21428571428571427,0.8571428571428571,0.0004
79,1.570089876651764,1.5362515449523926,0.36538461538461536,0.8269230769230769,0.21428571428571427,0.8571428571428571,0.0004
80,1.5532600283622742,1.5349318981170654,0.36538461538461536,0.8269230769230769,0.21428571428571427,0.8571428571428571,0.0004
81,1.5625052452087402,1.5330255031585693,0.36538461538461536,0.8269230769230769,0.21428571428571427,0.8571428571428571,0.0004
82,1.54872065782547,1.5317738056182861,0.36538461538461536,0.8269230769230769,0.21428571428571427,0.8571428571428571,0.0004
83,1.5681362748146057,1.5310451984405518,0.36538461538461536,0.8269230769230769,0.21428571428571427,0.8571428571428571,0.0004
84,1.5665422677993774,1.529919147491455,0.36538461538461536,0.8269230769230769,0.21428571428571427,0.8571428571428571,0.0004
85,1.5365987420082092,1.5288498401641846,0.36538461538461536,0.8269230769230769,0.21428571428571427,0.8571428571428571,0.0004
86,1.5213724374771118,1.5277340412139893,0.36538461538461536,0.8269230769230769,0.21428571428571427,0.8571428571428571,0.0004
87,1.5804541110992432,1.5265098810195923,0.36538461538461536,0.8269230769230769,0.21428571428571427,0.8571428571428571,0.0004
88,1.550013780593872,1.5257258415222168,0.36538461538461536,0.8269230769230769,0.21428571428571427,0.8571428571428571,0.0004
89,1.5361905097961426,1.525368332862854,0.36538461538461536,0.8269230769230769,0.21428571428571427,0.8571428571428571,0.0004
90,1.564477562904358,1.5249292850494385,0.36538461538461536,0.8269230769230769,0.21428571428571427,0.8571428571428571,0.0004
91,1.5682377815246582,1.5252331495285034,0.36538461538461536,0.8269230769230769,0.21428571428571427,0.8571428571428571,0.0004
92,1.5353784561157227,1.5250489711761475,0.36538461538461536,0.8269230769230769,0.21428571428571427,0.8571428571428571,0.0004
93,1.5502349734306335,1.5251115560531616,0.36538461538461536,0.8269230769230769,0.21428571428571427,0.8571428571428571,0.0004
94,1.549665927886963,1.5254285335540771,0.36538461538461536,0.8269230769230769,0.21428571428571427,0.8571428571428571,0.0004
95,1.5371131300926208,1.5261809825897217,0.36538461538461536,0.8269230769230769,0.21428571428571427,0.8571428571428571,0.0004
96,1.5799961686134338,1.5265862941741943,0.36538461538461536,0.8269230769230769,0.21428571428571427,0.8571428571428571,0.0004
97,1.564914584159851,1.5273410081863403,0.36538461538461536,0.8269230769230769,0.21428571428571427,0.8571428571428571,0.0004
98,1.6144465804100037,1.5284383296966553,0.36538461538461536,0.8269230769230769,0.21428571428571427,0.8571428571428571,0.0004
99,1.5324023962020874,1.5287569761276245,0.36538461538461536,0.8269230769230769,0.21428571428571427,0.8571428571428571,0.0004
100,1.5817359685897827,1.5301930904388428,0.36538461538461536,0.8269230769230769,0.21428571428571427,0.8571428571428571,0.0004
101,1.5684186220169067,1.5313491821289062,0.36538461538461536,0.8269230769230769,0.21428571428571427,0.8571428571428571,0.0004
102,1.5941096544265747,1.5318448543548584,0.36538461538461536,0.8269230769230769,0.21428571428571427,0.8571428571428571,0.0004
103,1.5219823718070984,1.532378911972046,0.36538461538461536,0.8269230769230769,0.21428571428571427,0.8571428571428571,0.0004
104,1.5532870888710022,1.5332103967666626,0.36538461538461536,0.8269230769230769,0.21428571428571427,0.8571428571428571,0.0004
105,1.5557396411895752,1.5337247848510742,0.36538461538461536,0.8269230769230769,0.21428571428571427,0.8571428571428571,0.0004
106,1.5635493993759155,1.5332064628601074,0.36538461538461536,0.8269230769230769,0.21428571428571427,0.8571428571428571,0.0004
107,1.5502175688743591,1.5329251289367676,0.36538461538461536,0.8269230769230769,0.21428571428571427,0.8571428571428571,0.0004
108,1.5479593873023987,1.5327574014663696,0.36538461538461536,0.8269230769230769,0.21428571428571427,0.8571428571428571,0.0004
109,1.5639804601669312,1.5331244468688965,0.36538461538461536,0.8269230769230769,0.21428571428571427,0.8571428571428571,0.0004
110,1.5861719250679016,1.5340266227722168,0.36538461538461536,0.8269230769230769,0.21428571428571427,0.8571428571428571,0.0004
111,1.5214595794677734,1.5338406562805176,0.36538461538461536,0.8269230769230769,0.21428571428571427,0.8571428571428571,0.0004
112,1.5480891466140747,1.533393383026123,0.36538461538461536,0.8269230769230769,0.21428571428571427,0.8571428571428571,0.0004
113,1.57950097322464,1.533355951309204,0.36538461538461536,0.8269230769230769,0.21428571428571427,0.8571428571428571,0.0004
114,1.5620295405387878,1.5334289073944092,0.36538461538461536,0.8269230769230769,0.21428571428571427,0.8571428571428571,0.0004
115,1.5670088529586792,1.5341947078704834,0.36538461538461536,0.8269230769230769,0.21428571428571427,0.8571428571428571,0.0004
116,1.5799801349639893,1.5344297885894775,0.36538461538461536,0.8269230769230769,0.21428571428571427,0.8571428571428571,0.0004
117,1.5780054926872253,1.5345563888549805,0.36538461538461536,0.8269230769230769,0.21428571428571427,0.8571428571428571,0.0004
118,1.5656436681747437,1.535184621810913,0.36538461538461536,0.8269230769230769,0.21428571428571427,0.8571428571428571,0.0004
119,1.5645160675048828,1.5355358123779297,0.36538461538461536,0.8269230769230769,0.21428571428571427,0.8571428571428571,0.0004
120,1.57853102684021,1.5358680486679077,0.36538461538461536,0.8269230769230769,0.21428571428571427,0.8571428571428571,0.0004
121,1.5606434345245361,1.5362073183059692,0.36538461538461536,0.8269230769230769,0.21428571428571427,0.8571428571428571,0.0004
122,1.5825204849243164,1.5373395681381226,0.36538461538461536,0.8269230769230769,0.21428571428571427,0.8571428571428571,0.0004
123,1.5646805167198181,1.5377442836761475,0.36538461538461536,0.8269230769230769,0.21428571428571427,0.8571428571428571,0.0004
124,1.569427728652954,1.538238763809204,0.36538461538461536,0.8269230769230769,0.21428571428571427,0.8571428571428571,0.0004
125,1.5633419752120972,1.5377707481384277,0.36538461538461536,0.8269230769230769,0.21428571428571427,0.8571428571428571,0.0004
126,1.5741302967071533,1.5373603105545044,0.36538461538461536,0.8269230769230769,0.21428571428571427,0.8571428571428571,0.0004
127,1.5390164256095886,1.5378737449645996,0.36538461538461536,0.8269230769230769,0.21428571428571427,0.8571428571428571,0.0004
128,1.5651815533638,1.537794828414917,0.36538461538461536,0.8269230769230769,0.21428571428571427,0.8571428571428571,0.0004
129,1.5392263531684875,1.5376482009887695,0.36538461538461536,0.8269230769230769,0.21428571428571427,0.8571428571428571,0.0004
130,1.521695077419281,1.5370352268218994,0.36538461538461536,0.8269230769230769,0.21428571428571427,0.8571428571428571,0.0004
131,1.5464959740638733,1.536641240119934,0.36538461538461536,0.8269230769230769,0.21428571428571427,0.8571428571428571,0.0004
132,1.5782551765441895,1.5370688438415527,0.36538461538461536,0.8269230769230769,0.21428571428571427,0.8571428571428571,0.0004
133,1.5779423713684082,1.5377627611160278,0.36538461538461536,0.8269230769230769,0.21428571428571427,0.8571428571428571,0.0004
134,1.583196759223938,1.538775086402893,0.36538461538461536,0.8269230769230769,0.21428571428571427,0.8571428571428571,0.0004
135,1.5929827094078064,1.5389513969421387,0.36538461538461536,0.8269230769230769,0.21428571428571427,0.8571428571428571,0.0004
136,1.5535923838615417,1.5393617153167725,0.36538461538461536,0.8269230769230769,0.21428571428571427,0.8571428571428571,0.0004
137,1.5622870326042175,1.5388970375061035,0.36538461538461536,0.8269230769230769,0.21428571428571427,0.8571428571428571,0.0004
138,1.5458842515945435,1.5393060445785522,0.36538461538461536,0.8269230769230769,0.21428571428571427,0.8571428571428571,0.0004
139,1.5361753702163696,1.5378670692443848,0.36538461538461536,0.8269230769230769,0.21428571428571427,0.8571428571428571,0.0004
140,1.5667563676834106,1.5366324186325073,0.36538461538461536,0.8269230769230769,0.21428571428571427,0.8571428571428571,0.0004
141,1.5641170740127563,1.5350089073181152,0.36538461538461536,0.8269230769230769,0.21428571428571427,0.8571428571428571,0.0004
142,1.578164279460907,1.5335899591445923,0.36538461538461536,0.8269230769230769,0.21428571428571427,0.8571428571428571,0.0004
143,1.5363344550132751,1.5328454971313477,0.36538461538461536,0.8269230769230769,0.21428571428571427,0.8571428571428571,0.0004
144,1.580136775970459,1.5322529077529907,0.36538461538461536,0.8269230769230769,0.21428571428571427,0.8571428571428571,0.0004
145,1.5535840392112732,1.5317363739013672,0.36538461538461536,0.8269230769230769,0.21428571428571427,0.8571428571428571,0.0004
146,1.5227952003479004,1.5308737754821777,0.36538461538461536,0.8269230769230769,0.21428571428571427,0.8571428571428571,0.0004
147,1.597317397594452,1.529737949371338,0.36538461538461536,0.8269230769230769,0.21428571428571427,0.8571428571428571,0.0004
148,1.5506132245063782,1.528550386428833,0.36538461538461536,0.8269230769230769,0.21428571428571427,0.8571428571428571,0.0004
149,1.5645682215690613,1.527353048324585,0.36538461538461536,0.8269230769230769,0.21428571428571427,0.8571428571428571,0.0004
150,1.5397270917892456,1.5268058776855469,0.36538461538461536,0.8269230769230769,0.21428571428571427,0.8571428571428571,0.0004
151,1.5505003333091736,1.5254570245742798,0.36538461538461536,0.8269230769230769,0.21428571428571427,0.8571428571428571,0.0004
152,1.5360086560249329,1.5243512392044067,0.36538461538461536,0.8269230769230769,0.21428571428571427,0.8571428571428571,0.0004
153,1.566516399383545,1.523838996887207,0.36538461538461536,0.8269230769230769,0.21428571428571427,0.8571428571428571,0.0004
154,1.5641433000564575,1.5231376886367798,0.36538461538461536,0.8269230769230769,0.21428571428571427,0.8571428571428571,0.0004
155,1.5635953545570374,1.5229642391204834,0.36538461538461536,0.8269230769230769,0.21428571428571427,0.8571428571428571,0.0004
156,1.5484437346458435,1.523752212524414,0.36538461538461536,0.8269230769230769,0.21428571428571427,0.8571428571428571,0.0004
157,1.5383804440498352,1.5254838466644287,0.36538461538461536,0.8269230769230769,0.21428571428571427,0.8571428571428571,0.0004
158,1.5793254375457764,1.5265631675720215,0.36538461538461536,0.8269230769230769,0.21428571428571427,0.8571428571428571,0.0004
159,1.5809527039527893,1.5279337167739868,0.36538461538461536,0.8269230769230769,0.21428571428571427,0.8571428571428571,0.0004
160,1.553152859210968,1.529642939567566,0.36538461538461536,0.8269230769230769,0.21428571428571427,0.8571428571428571,0.0004
161,1.549269437789917,1.5304639339447021,0.36538461538461536,0.8269230769230769,0.21428571428571427,0.8571428571428571,0.0004
162,1.5368263721466064,1.531474232673645,0.36538461538461536,0.8269230769230769,0.21428571428571427,0.8571428571428571,0.0004
163,1.5323086380958557,1.5319300889968872,0.36538461538461536,0.8269230769230769,0.21428571428571427,0.8571428571428571,0.0004
164,1.5781975984573364,1.5331416130065918,0.36538461538461536,0.8269230769230769,0.21428571428571427,0.8571428571428571,0.0004
165,1.5645208358764648,1.534346103668213,0.36538461538461536,0.8269230769230769,0.21428571428571427,0.8571428571428571,0.0004
166,1.5264902710914612,1.5360057353973389,0.36538461538461536,0.8269230769230769,0.21428571428571427,0.8571428571428571,0.0004
167,1.5492393970489502,1.536192536354065,0.36538461538461536,0.8269230769230769,0.21428571428571427,0.8571428571428571,0.0004
168,1.5852007865905762,1.5366206169128418,0.36538461538461536,0.8269230769230769,0.21428571428571427,0.8571428571428571,0.0004
169,1.5498758554458618,1.5361055135726929,0.36538461538461536,0.8269230769230769,0.21428571428571427,0.8571428571428571,0.0004
170,1.5295687317848206,1.535061240196228,0.36538461538461536,0.8269230769230769,0.21428571428571427,0.8571428571428571,0.0004
171,1.5477538704872131,1.535237193107605,0.36538461538461536,0.8269230769230769,0.21428571428571427,0.8571428571428571,0.0004
172,1.549431324005127,1.5356674194335938,0.36538461538461536,0.8269230769230769,0.21428571428571427,0.8571428571428571,0.0004
173,1.5354620814323425,1.5360119342803955,0.36538461538461536,0.8269230769230769,0.21428571428571427,0.8571428571428571,0.0004
174,1.5509055256843567,1.5357979536056519,0.36538461538461536,0.8269230769230769,0.21428571428571427,0.8571428571428571,0.0004
175,1.5502893328666687,1.5360956192016602,0.36538461538461536,0.8269230769230769,0.21428571428571427,0.8571428571428571,0.0004
176,1.535129427909851,1.5356481075286865,0.36538461538461536,0.8269230769230769,0.21428571428571427,0.8571428571428571,0.0004
177,1.5393670797348022,1.535332202911377,0.36538461538461536,0.8269230769230769,0.21428571428571427,0.8571428571428571,0.0004
178,1.5655248165130615,1.5338088274002075,0.36538461538461536,0.8269230769230769,0.21428571428571427,0.8571428571428571,0.0004
179,1.564287781715393,1.5323954820632935,0.36538461538461536,0.8269230769230769,0.21428571428571427,0.8571428571428571,0.0004
180,1.580376148223877,1.531328558921814,0.36538461538461536,0.8269230769230769,0.21428571428571427,0.8571428571428571,0.0004
181,1.5320669412612915,1.5306024551391602,0.36538461538461536,0.8269230769230769,0.21428571428571427,0.8571428571428571,0.0004
182,1.5325371026992798,1.5302417278289795,0.36538461538461536,0.8269230769230769,0.21428571428571427,0.8571428571428571,0.0004
183,1.5644408464431763,1.5304908752441406,0.36538461538461536,0.8269230769230769,0.21428571428571427,0.8571428571428571,0.0004
184,1.5531669855117798,1.5308642387390137,0.36538461538461536,0.8269230769230769,0.21428571428571427,0.8571428571428571,0.0004
185,1.549342930316925,1.5309337377548218,0.36538461538461536,0.8269230769230769,0.21428571428571427,0.8571428571428571,0.0004
186,1.5650718212127686,1.5308926105499268,0.36538461538461536,0.8269230769230769,0.21428571428571427,0.8571428571428571,0.0004
187,1.56601220369339,1.5307879447937012,0.36538461538461536,0.8269230769230769,0.21428571428571427,0.8571428571428571,0.0004
188,1.5677136182785034,1.530476450920105,0.36538461538461536,0.8269230769230769,0.21428571428571427,0.8571428571428571,0.0004
189,1.5375112891197205,1.5299047231674194,0.36538461538461536,0.8269230769230769,0.21428571428571427,0.8571428571428571,0.0004
190,1.5498558282852173,1.5287575721740723,0.36538461538461536,0.8269230769230769,0.21428571428571427,0.8571428571428571,0.0004
191,1.5776285529136658,1.5279217958450317,0.36538461538461536,0.8269230769230769,0.21428571428571427,0.8571428571428571,0.0004
192,1.5652891397476196,1.528029441833496,0.36538461538461536,0.8269230769230769,0.21428571428571427,0.8571428571428571,0.0004
193,1.5646383166313171,1.5277891159057617,0.36538461538461536,0.8269230769230769,0.21428571428571427,0.8571428571428571,0.0004
194,1.5483165979385376,1.527191162109375,0.36538461538461536,0.8269230769230769,0.21428571428571427,0.8571428571428571,0.0004
195,1.5647744536399841,1.5270781517028809,0.36538461538461536,0.8269230769230769,0.21428571428571427,0.8571428571428571,0.0004
196,1.5628852844238281,1.52799391746521,0.36538461538461536,0.8269230769230769,0.21428571428571427,0.8571428571428571,0.0004
197,1.5753574967384338,1.5289669036865234,0.36538461538461536,0.8269230769230769,0.21428571428571427,0.8571428571428571,0.0004
198,1.563669502735138,1.529537320137024,0.36538461538461536,0.8269230769230769,0.21428571428571427,0.8571428571428571,0.0004
199,1.5774602890014648,1.5304059982299805,0.36538461538461536,0.8269230769230769,0.21428571428571427,0.8571428571428571,0.0004
200,1.547046184539795,1.5319340229034424,0.36538461538461536,0.8269230769230769,0.21428571428571427,0.8571428571428571,0.0004
201,1.6131687760353088,1.5339767932891846,0.36538461538461536,0.8269230769230769,0.21428571428571427,0.8571428571428571,0.0004
202,1.4931365847587585,1.5334925651550293,0.36538461538461536,0.8269230769230769,0.21428571428571427,0.8571428571428571,0.0004
203,1.5494450330734253,1.535162091255188,0.36538461538461536,0.8269230769230769,0.21428571428571427,0.8571428571428571,0.0004
204,1.5392982363700867,1.5349702835083008,0.36538461538461536,0.8269230769230769,0.21428571428571427,0.8571428571428571,0.0004
205,1.5290628671646118,1.534942388534546,0.36538461538461536,0.8269230769230769,0.21428571428571427,0.8571428571428571,0.0004
206,1.5364757180213928,1.5391141176223755,0.36538461538461536,0.8269230769230769,0.21428571428571427,0.8571428571428571,0.0004
207,1.5495127439498901,1.5361695289611816,0.36538461538461536,0.8269230769230769,0.21428571428571427,0.8571428571428571,0.0004
208,1.5580217838287354,1.529170274734497,0.36538461538461536,0.8269230769230769,0.21428571428571427,0.8571428571428571,0.0004
209,1.5382863283157349,1.5317374467849731,0.36538461538461536,0.8269230769230769,0.21428571428571427,0.8571428571428571,0.0004
210,1.575482189655304,1.539574146270752,0.36538461538461536,0.8269230769230769,0.21428571428571427,0.8571428571428571,0.0004
211,1.548280656337738,1.5311455726623535,0.36538461538461536,0.8269230769230769,0.21428571428571427,0.8571428571428571,0.0004
212,1.5461590886116028,1.541170597076416,0.36538461538461536,0.8269230769230769,0.21428571428571427,0.8571428571428571,0.0004
213,1.4960476160049438,1.526094675064087,0.36538461538461536,0.8269230769230769,0.21428571428571427,0.8571428571428571,0.0004
214,1.5391170978546143,1.526841402053833,0.36538461538461536,0.8269230769230769,0.21428571428571427,0.8571428571428571,0.0004
215,1.5152091979980469,1.5785562992095947,0.36538461538461536,0.8269230769230769,0.21428571428571427,0.8571428571428571,0.0004
216,1.8618597388267517,2.0601749420166016,0.36538461538461536,0.8269230769230769,0.21428571428571427,0.8571428571428571,0.0004
217,1.6945488452911377,1.8317536115646362,0.36538461538461536,0.8269230769230769,0.21428571428571427,0.8571428571428571,0.0004
218,1.640009582042694,1.6508469581604004,0.36538461538461536,0.8269230769230769,0.21428571428571427,0.8571428571428571,0.0004
219,1.6149970889091492,1.5485410690307617,0.36538461538461536,0.8269230769230769,0.21428571428571427,0.8571428571428571,0.0004
220,1.5512366890907288,1.5138972997665405,0.36538461538461536,0.8269230769230769,0.35714285714285715,0.8571428571428571,0.0004
221,1.5734562873840332,1.530677318572998,0.3269230769230769,0.8269230769230769,0.35714285714285715,0.8571428571428571,0.0004
222,1.6017078161239624,1.539029836654663,0.3269230769230769,0.8269230769230769,0.35714285714285715,0.8571428571428571,0.0004
223,1.581939697265625,1.538133144378662,0.3269230769230769,0.8269230769230769,0.35714285714285715,0.8571428571428571,0.0004
224,1.6319952607154846,1.5448850393295288,0.3269230769230769,0.8269230769230769,0.35714285714285715,0.8571428571428571,0.0004
225,1.622702717781067,1.5377229452133179,0.3269230769230769,0.8269230769230769,0.35714285714285715,0.8571428571428571,0.0004
226,1.6181504130363464,1.5399836301803589,0.3269230769230769,0.8269230769230769,0.35714285714285715,0.8571428571428571,0.0004
227,1.618114411830902,1.534245252609253,0.3269230769230769,0.8269230769230769,0.35714285714285715,0.8571428571428571,0.0004
228,1.6174981594085693,1.5241841077804565,0.3269230769230769,0.8269230769230769,0.35714285714285715,0.8571428571428571,0.0004
229,1.6183667182922363,1.523293375968933,0.3269230769230769,0.8269230769230769,0.35714285714285715,0.8571428571428571,0.0004
230,1.6092596650123596,1.5085033178329468,0.3269230769230769,0.8269230769230769,0.35714285714285715,0.8571428571428571,0.0004
231,1.5772126913070679,1.5111794471740723,0.3269230769230769,0.8269230769230769,0.35714285714285715,0.8571428571428571,0.0004
232,1.594027578830719,1.5022029876708984,0.3269230769230769,0.8269230769230769,0.35714285714285715,0.8571428571428571,0.0004
233,1.5700918436050415,1.5002408027648926,0.3269230769230769,0.8269230769230769,0.35714285714285715,0.8571428571428571,0.0004
234,1.549027144908905,1.4899455308914185,0.3269230769230769,0.8269230769230769,0.35714285714285715,0.8571428571428571,0.0004
235,1.5551578402519226,1.4950796365737915,0.3269230769230769,0.8269230769230769,0.35714285714285715,0.8571428571428571,0.0004
236,1.5850945115089417,1.496457815170288,0.3269230769230769,0.8269230769230769,0.35714285714285715,0.8571428571428571,0.0004
237,1.5593045949935913,1.5022666454315186,0.34615384615384615,0.8269230769230769,0.35714285714285715,0.8571428571428571,0.0004
238,1.5526111125946045,1.5015283823013306,0.34615384615384615,0.8269230769230769,0.35714285714285715,0.8571428571428571,0.0004
239,1.5432700514793396,1.5023139715194702,0.36538461538461536,0.8269230769230769,0.42857142857142855,0.8571428571428571,0.0004
240,1.5314818620681763,1.504960536956787,0.36538461538461536,0.8269230769230769,0.5,0.8571428571428571,0.0004
241,1.5280191898345947,1.5107924938201904,0.40384615384615385,0.8269230769230769,0.2857142857142857,0.8571428571428571,0.0004
242,1.5210819244384766,1.5232359170913696,0.36538461538461536,0.8269230769230769,0.21428571428571427,0.8571428571428571,0.0004
243,1.5605881214141846,1.5203516483306885,0.36538461538461536,0.8269230769230769,0.21428571428571427,0.8571428571428571,0.0004
244,1.524376630783081,1.5317111015319824,0.36538461538461536,0.8269230769230769,0.21428571428571427,0.8571428571428571,0.0004
245,1.5705629587173462,1.5331414937973022,0.36538461538461536,0.8269230769230769,0.21428571428571427,0.8571428571428571,0.0004
246,1.5765948295593262,1.532973289489746,0.36538461538461536,0.8269230769230769,0.21428571428571427,0.8571428571428571,0.0004
247,1.5503302216529846,1.5455234050750732,0.36538461538461536,0.8269230769230769,0.21428571428571427,0.8571428571428571,0.0004
248,1.554060935974121,1.5419362783432007,0.36538461538461536,0.8269230769230769,0.21428571428571427,0.8571428571428571,0.0004
249,1.513553261756897,1.5481122732162476,0.36538461538461536,0.8269230769230769,0.21428571428571427,0.8571428571428571,0.0004
250,1.5119104981422424,1.5442585945129395,0.36538461538461536,0.8269230769230769,0.21428571428571427,0.8571428571428571,0.0004
251,1.5518778562545776,1.5424566268920898,0.36538461538461536,0.8269230769230769,0.21428571428571427,0.8571428571428571,0.0004
252,1.5575953125953674,1.5398623943328857,0.36538461538461536,0.8269230769230769,0.21428571428571427,0.8571428571428571,0.0004
253,1.535118579864502,1.5410716533660889,0.36538461538461536,0.8269230769230769,0.21428571428571427,0.8571428571428571,0.0004
254,1.5412120819091797,1.5261168479919434,0.36538461538461536,0.8269230769230769,0.21428571428571427,0.8571428571428571,0.0004
255,1.5191879868507385,1.5254120826721191,0.36538461538461536,0.8269230769230769,0.21428571428571427,0.8571428571428571,0.0004
256,1.5038108825683594,1.5376964807510376,0.36538461538461536,0.8269230769230769,0.21428571428571427,0.8571428571428571,0.0004
257,1.4937981367111206,1.516538143157959,0.36538461538461536,0.8269230769230769,0.21428571428571427,0.8571428571428571,0.0004
258,1.5213457345962524,1.5297009944915771,0.36538461538461536,0.8269230769230769,0.21428571428571427,0.8571428571428571,0.0004
259,1.5105674266815186,1.5214905738830566,0.36538461538461536,0.8269230769230769,0.21428571428571427,0.8571428571428571,0.0004
260,1.5236045122146606,1.4964357614517212,0.36538461538461536,0.8269230769230769,0.21428571428571427,0.8571428571428571,0.0004
261,1.4592199921607971,1.510424256324768,0.36538461538461536,0.8269230769230769,0.21428571428571427,0.8571428571428571,0.0004
262,1.526080846786499,1.4809603691101074,0.36538461538461536,0.8269230769230769,0.21428571428571427,0.8571428571428571,0.0004
263,1.5270872712135315,1.5066752433776855,0.36538461538461536,0.8269230769230769,0.21428571428571427,0.8571428571428571,0.0004
264,1.4827020168304443,1.4739779233932495,0.36538461538461536,0.8269230769230769,0.21428571428571427,0.8571428571428571,0.0004
265,1.5011475086212158,1.4855684041976929,0.36538461538461536,0.8269230769230769,0.21428571428571427,0.8571428571428571,0.0004
266,1.4841452836990356,1.5038758516311646,0.36538461538461536,0.8269230769230769,0.21428571428571427,0.8571428571428571,0.0004
267,1.5141302347183228,1.5033445358276367,0.36538461538461536,0.8269230769230769,0.21428571428571427,0.8571428571428571,0.0004
268,1.4672276973724365,1.4917253255844116,0.36538461538461536,0.8269230769230769,0.21428571428571427,0.8571428571428571,0.0004
269,1.4182885885238647,1.510836124420166,0.36538461538461536,0.8269230769230769,0.21428571428571427,0.8571428571428571,0.0004
270,1.4089027047157288,1.445253849029541,0.36538461538461536,0.8269230769230769,0.21428571428571427,0.8571428571428571,0.0004
271,1.4292684197425842,1.4605695009231567,0.4423076923076923,0.8269230769230769,0.2857142857142857,0.8571428571428571,0.0004
272,1.4250681400299072,1.4053022861480713,0.46153846153846156,0.8269230769230769,0.5714285714285714,0.8571428571428571,0.0004
273,1.403896450996399,1.456965684890747,0.46153846153846156,0.8269230769230769,0.5,0.8571428571428571,0.0004
274,1.3935587406158447,1.3503949642181396,0.5384615384615384,0.8269230769230769,0.6428571428571429,0.8571428571428571,0.0004
275,1.2890524864196777,1.3464361429214478,0.5192307692307693,0.8269230769230769,0.5714285714285714,0.8571428571428571,0.0004
276,1.9026432037353516,2.7777836322784424,0.5576923076923077,0.8269230769230769,0.21428571428571427,0.8571428571428571,0.0004
277,2.3146660923957825,2.541315793991089,0.36538461538461536,0.8269230769230769,0.21428571428571427,0.8571428571428571,0.0004
278,1.9613505601882935,1.2585612535476685,0.36538461538461536,0.8269230769230769,0.6428571428571429,0.8571428571428571,0.0004
279,1.349620282649994,1.4000613689422607,0.5384615384615384,0.8269230769230769,0.5714285714285714,0.8571428571428571,0.0004
280,1.4448525309562683,1.4225119352340698,0.4230769230769231,0.8269230769230769,0.5,0.8571428571428571,0.0004
281,1.3384804129600525,1.2976806163787842,0.6153846153846154,0.8269230769230769,0.6428571428571429,0.8571428571428571,0.0004
282,1.4473047852516174,1.2993675470352173,0.5,0.8269230769230769,0.5714285714285714,0.8571428571428571,0.0004
283,1.429990530014038,1.3982362747192383,0.46153846153846156,0.8269230769230769,0.7857142857142857,0.8571428571428571,0.0004
284,1.4750297665596008,1.4816492795944214,0.5192307692307693,0.8269230769230769,0.35714285714285715,0.8571428571428571,0.0004
285,1.3768287301063538,1.386012315750122,0.5769230769230769,0.8269230769230769,0.5,0.8571428571428571,0.0004
286,1.473086655139923,1.4127404689788818,0.5576923076923077,0.8269230769230769,0.5714285714285714,0.8571428571428571,0.0004
287,1.364806890487671,1.4010599851608276,0.5769230769230769,0.8269230769230769,0.5,0.8571428571428571,0.0004
288,1.4361704587936401,1.3512502908706665,0.4423076923076923,0.8269230769230769,0.5714285714285714,0.8571428571428571,0.0004
289,1.4242403507232666,1.333794355392456,0.6153846153846154,0.8269230769230769,0.7142857142857143,0.8571428571428571,0.0004
290,1.4347225427627563,1.4411472082138062,0.5192307692307693,0.8269230769230769,0.5,0.8571428571428571,0.0004
291,1.3981250524520874,1.3238637447357178,0.38461538461538464,0.8269230769230769,0.6428571428571429,0.8571428571428571,0.0004
292,1.4012455940246582,1.3725465536117554,0.5192307692307693,0.8269230769230769,0.7857142857142857,0.8571428571428571,0.0004
293,1.39789479970932,1.507287859916687,0.5769230769230769,0.8269230769230769,0.42857142857142855,0.8571428571428571,0.0004
294,1.3280208110809326,1.3535561561584473,0.6923076923076923,0.8269230769230769,0.7142857142857143,0.8571428571428571,0.0004
295,1.321312665939331,1.310354232788086,0.5961538461538461,0.8269230769230769,0.5714285714285714,0.8571428571428571,0.0004
296,1.3497503995895386,1.422156572341919,0.5384615384615384,0.8269230769230769,0.42857142857142855,0.8571428571428571,0.0004
297,1.3168189525604248,1.4120285511016846,0.5,0.8269230769230769,0.42857142857142855,0.8571428571428571,0.0004
298,1.3840347528457642,1.315279483795166,0.5,0.8269230769230769,0.5714285714285714,0.8571428571428571,0.0004
299,1.2887568473815918,1.3676180839538574,0.5384615384615384,0.8269230769230769,0.5714285714285714,0.8571428571428571,0.0004
300,1.308971107006073,1.349221110343933,0.5576923076923077,0.8269230769230769,0.7142857142857143,0.8571428571428571,0.0004
301,1.2409368753433228,1.2061667442321777,0.5769230769230769,0.8269230769230769,0.6428571428571429,0.8571428571428571,0.0004
302,1.2899436950683594,1.3374186754226685,0.5,0.8269230769230769,0.6428571428571429,0.8571428571428571,0.0004
303,1.2983493208885193,1.3877977132797241,0.5192307692307693,0.8269230769230769,0.6428571428571429,0.8571428571428571,0.0004
304,1.2695447206497192,1.3630712032318115,0.5192307692307693,0.8269230769230769,0.6428571428571429,0.8571428571428571,0.0004
305,1.260324776172638,1.3689348697662354,0.5576923076923077,0.8269230769230769,0.6428571428571429,0.8571428571428571,0.0004
306,1.3358555436134338,1.3772532939910889,0.5384615384615384,0.8269230769230769,0.5714285714285714,0.8571428571428571,0.0004
307,1.3152295351028442,1.3898301124572754,0.5384615384615384,0.8269230769230769,0.5,0.8571428571428571,0.0004
308,1.4887173771858215,1.4280799627304077,0.46153846153846156,0.8269230769230769,0.6428571428571429,0.8571428571428571,0.0004
309,1.189570128917694,1.2208057641983032,0.6153846153846154,0.8269230769230769,0.6428571428571429,0.8571428571428571,0.0004
310,1.4439083337783813,1.3765839338302612,0.4423076923076923,0.8269230769230769,0.5,0.8571428571428571,0.0004
311,1.4234257340431213,1.1597545146942139,0.46153846153846156,0.8269230769230769,0.7142857142857143,0.8571428571428571,0.0004
312,1.34651517868042,1.2459070682525635,0.5192307692307693,0.8269230769230769,0.5714285714285714,0.8571428571428571,0.0004
313,1.438878059387207,1.234480619430542,0.4807692307692308,0.8269230769230769,0.5714285714285714,0.8571428571428571,0.0004
314,1.318863034248352,1.386053442955017,0.4807692307692308,0.8269230769230769,0.6428571428571429,0.8571428571428571,0.0004
315,1.361310601234436,1.441329002380371,0.4423076923076923,0.8269230769230769,0.42857142857142855,0.8571428571428571,0.0004
316,1.268149197101593,1.2110400199890137,0.5576923076923077,0.8269230769230769,0.7142857142857143,0.8571428571428571,0.0004
317,1.2824656963348389,1.4553461074829102,0.5,0.8269230769230769,0.42857142857142855,0.8571428571428571,0.0004
318,1.172644019126892,1.6366636753082275,0.6346153846153846,0.8269230769230769,0.35714285714285715,0.8571428571428571,0.0004
319,1.3008917570114136,1.2037341594696045,0.5961538461538461,0.8269230769230769,0.5714285714285714,0.8571428571428571,0.0004
320,1.2335491180419922,1.1743398904800415,0.5,0.8269230769230769,0.5714285714285714,0.8571428571428571,0.0004
321,1.2235522866249084,1.270020604133606,0.5769230769230769,0.8269230769230769,0.5,0.8571428571428571,0.0004
322,1.2801954746246338,1.1690382957458496,0.5192307692307693,0.8269230769230769,0.5714285714285714,0.8571428571428571,0.0004
323,1.358664870262146,1.4099256992340088,0.5192307692307693,0.8269230769230769,0.42857142857142855,0.8571428571428571,0.0004
324,1.2599152326583862,1.4172959327697754,0.5769230769230769,0.8269230769230769,0.42857142857142855,0.8571428571428571,0.0004
325,1.1791167259216309,1.3090863227844238,0.5576923076923077,0.8269230769230769,0.5,0.8571428571428571,0.0004
326,1.2995850443840027,1.2881466150283813,0.5384615384615384,0.8269230769230769,0.42857142857142855,0.8571428571428571,0.0004
327,1.2570610046386719,1.3294291496276855,0.5384615384615384,0.8269230769230769,0.42857142857142855,0.8571428571428571,0.0004
328,1.2179744839668274,1.3357161283493042,0.5961538461538461,0.8269230769230769,0.5,0.8571428571428571,0.0004
329,1.2227087616920471,1.4217301607131958,0.5769230769230769,0.8269230769230769,0.42857142857142855,0.8571428571428571,0.0004
330,1.2394756078720093,1.37394118309021,0.5192307692307693,0.8269230769230769,0.35714285714285715,0.8571428571428571,0.0004
331,1.256748378276825,1.3998351097106934,0.5769230769230769,0.8269230769230769,0.42857142857142855,0.8571428571428571,0.0004
332,1.1645928025245667,1.787144422531128,0.5769230769230769,0.8269230769230769,0.35714285714285715,0.8571428571428571,0.0004
333,1.3673802018165588,1.4892834424972534,0.5384615384615384,0.8269230769230769,0.42857142857142855,0.8571428571428571,0.0004
334,1.2255781888961792,1.3750616312026978,0.5769230769230769,0.8269230769230769,0.42857142857142855,0.8571428571428571,0.0004
335,1.149613857269287,1.377563238143921,0.5961538461538461,0.8269230769230769,0.5,0.8571428571428571,0.0004
336,1.2760026454925537,1.4107139110565186,0.5384615384615384,0.8269230769230769,0.42857142857142855,0.8571428571428571,0.0004
337,1.176530361175537,1.1501506567001343,0.5961538461538461,0.8269230769230769,0.5,0.8571428571428571,0.0004
338,1.3620871305465698,1.1786072254180908,0.4807692307692308,0.8269230769230769,0.5714285714285714,0.8571428571428571,0.0004
339,1.1339363753795624,1.2315161228179932,0.5576923076923077,0.8269230769230769,0.5,0.8571428571428571,0.0004
340,1.2319177389144897,1.1885490417480469,0.5192307692307693,0.8269230769230769,0.5,0.8571428571428571,0.0004
341,1.261694073677063,1.1456613540649414,0.5576923076923077,0.8269230769230769,0.5714285714285714,0.8571428571428571,0.0004
342,1.0984373092651367,1.3453295230865479,0.5384615384615384,0.8269230769230769,0.5,0.8571428571428571,0.0004
343,1.288736879825592,1.3706165552139282,0.4807692307692308,0.8269230769230769,0.42857142857142855,0.8571428571428571,0.0004
344,1.2161477208137512,1.2572468519210815,0.5576923076923077,0.8269230769230769,0.5,0.8571428571428571,0.0004
345,1.1178179383277893,1.3775323629379272,0.5961538461538461,0.8269230769230769,0.35714285714285715,0.8571428571428571,0.0004
346,1.2720448970794678,1.475484848022461,0.4807692307692308,0.8269230769230769,0.5714285714285714,0.8571428571428571,0.0004
347,1.4102875590324402,1.4363337755203247,0.4423076923076923,0.8269230769230769,0.5714285714285714,0.8571428571428571,0.0004
348,1.260941982269287,1.2388192415237427,0.5961538461538461,0.8269230769230769,0.7142857142857143,0.8571428571428571,0.0004
349,1.2044464945793152,1.3703621625900269,0.6538461538461539,0.8269230769230769,0.6428571428571429,0.8571428571428571,0.0004
350,1.168901801109314,1.4354578256607056,0.5769230769230769,0.8269230769230769,0.5714285714285714,0.8571428571428571,0.0004
351,1.1138511300086975,1.1809141635894775,0.6153846153846154,0.8269230769230769,0.7142857142857143,0.8571428571428571,0.0004
352,1.2342132925987244,1.2530665397644043,0.5961538461538461,0.8269230769230769,0.6428571428571429,0.8571428571428571,0.0004
353,1.240136981010437,1.397324800491333,0.5769230769230769,0.8269230769230769,0.35714285714285715,0.8571428571428571,0.0004
354,1.244930386543274,1.3260564804077148,0.4807692307692308,0.8269230769230769,0.5714285714285714,0.8571428571428571,0.0004
355,1.228893756866455,1.3064486980438232,0.5576923076923077,0.8269230769230769,0.42857142857142855,0.8571428571428571,0.0004
356,1.1915892362594604,1.2845141887664795,0.5384615384615384,0.8269230769230769,0.5,0.8571428571428571,0.0004
357,1.1500033140182495,1.184200406074524,0.5384615384615384,0.8269230769230769,0.5714285714285714,0.8571428571428571,0.0004
358,1.250590443611145,1.1866153478622437,0.5192307692307693,0.8269230769230769,0.7142857142857143,0.8571428571428571,0.0004
359,1.1503305435180664,1.2237069606781006,0.5576923076923077,0.8269230769230769,0.5714285714285714,0.8571428571428571,0.0004
360,1.164662778377533,1.099249005317688,0.5384615384615384,0.8269230769230769,0.7142857142857143,0.8571428571428571,0.0004
361,1.266521692276001,1.3135709762573242,0.5192307692307693,0.8269230769230769,0.5,0.8571428571428571,0.0004
362,1.130594253540039,1.2878236770629883,0.5769230769230769,0.8269230769230769,0.6428571428571429,0.8571428571428571,0.0004
363,1.2706523537635803,1.2207133769989014,0.5192307692307693,0.8269230769230769,0.5714285714285714,0.8571428571428571,0.0004
364,1.1816517114639282,1.076971173286438,0.5384615384615384,0.8269230769230769,0.5714285714285714,0.8571428571428571,0.0004
365,1.242232084274292,1.1977647542953491,0.5384615384615384,0.8269230769230769,0.6428571428571429,0.8571428571428571,0.0004
366,1.1979676485061646,1.4049675464630127,0.5192307692307693,0.8269230769230769,0.5,0.8571428571428571,0.0004
367,1.142018735408783,1.1647130250930786,0.5192307692307693,0.8269230769230769,0.6428571428571429,0.8571428571428571,0.0004
368,1.111987590789795,1.4480959177017212,0.5384615384615384,0.8269230769230769,0.5,0.8571428571428571,0.0004
369,1.2684536576271057,1.2984226942062378,0.4423076923076923,0.8269230769230769,0.7142857142857143,0.8571428571428571,0.0004
370,1.125766932964325,1.1238933801651,0.5384615384615384,0.8269230769230769,0.5714285714285714,0.8571428571428571,0.0004
371,1.172788918018341,1.3504728078842163,0.4807692307692308,0.8269230769230769,0.5,0.8571428571428571,0.0004
372,1.2652175426483154,1.230628252029419,0.4807692307692308,0.8269230769230769,0.6428571428571429,0.8571428571428571,0.0004
373,1.120143711566925,1.5814604759216309,0.5576923076923077,0.8269230769230769,0.35714285714285715,0.8571428571428571,0.0004
374,1.280514895915985,1.3711979389190674,0.5576923076923077,0.8269230769230769,0.7142857142857143,0.8571428571428571,0.0004
375,1.0619280636310577,1.258218765258789,0.5769230769230769,0.8269230769230769,0.6428571428571429,0.8571428571428571,0.0004
376,1.3653860092163086,1.2258473634719849,0.5384615384615384,0.8269230769230769,0.7142857142857143,0.8571428571428571,0.0004
377,1.1195616126060486,1.2529488801956177,0.4423076923076923,0.8269230769230769,0.5,0.8571428571428571,0.0004
378,1.3184409737586975,1.4240492582321167,0.5384615384615384,0.8269230769230769,0.5,0.8571428571428571,0.0004
379,1.21752268075943,1.3459094762802124,0.46153846153846156,0.8269230769230769,0.5,0.8571428571428571,0.0004
380,1.0977599024772644,1.4163202047348022,0.5769230769230769,0.8269230769230769,0.42857142857142855,0.8571428571428571,0.0004
381,1.0946781039237976,1.3538401126861572,0.5961538461538461,0.8269230769230769,0.42857142857142855,0.8571428571428571,0.0004
382,1.176018476486206,1.2973954677581787,0.5576923076923077,0.8269230769230769,0.5,0.8571428571428571,0.0004
383,1.1046637892723083,1.6217527389526367,0.5961538461538461,0.8269230769230769,0.42857142857142855,0.8571428571428571,0.0004
384,1.131674885749817,1.289541482925415,0.5769230769230769,0.8269230769230769,0.42857142857142855,0.8571428571428571,0.0004
385,1.1250011324882507,1.2618850469589233,0.5576923076923077,0.8269230769230769,0.5,0.8571428571428571,0.0004
386,1.1058930456638336,1.2548682689666748,0.6153846153846154,0.8269230769230769,0.5,0.8571428571428571,0.0004
387,1.1406480073928833,1.3722622394561768,0.5576923076923077,0.8269230769230769,0.5,0.8571428571428571,0.0004
388,1.1115909814834595,1.2882691621780396,0.6153846153846154,0.8269230769230769,0.42857142857142855,0.8571428571428571,0.0004
389,1.2408077120780945,1.3349113464355469,0.5192307692307693,0.8269230769230769,0.35714285714285715,0.8571428571428571,0.0004
390,1.1166459321975708,1.2539629936218262,0.5961538461538461,0.8269230769230769,0.5714285714285714,0.8571428571428571,0.0004
391,1.1418180465698242,1.1851415634155273,0.5961538461538461,0.8269230769230769,0.5,0.7857142857142857,0.0004
392,1.2568882703781128,1.316267490386963,0.5961538461538461,0.8846153846153846,0.42857142857142855,0.8571428571428571,0.0004
393,1.1097704768180847,1.1904511451721191,0.5961538461538461,0.8269230769230769,0.5714285714285714,0.8571428571428571,0.0004
394,1.217731237411499,1.2043765783309937,0.5192307692307693,0.8269230769230769,0.35714285714285715,0.8571428571428571,0.0004
395,1.344425082206726,1.3511488437652588,0.4807692307692308,0.8269230769230769,0.5,0.8571428571428571,0.0004
396,1.0919146537780762,1.378698468208313,0.6538461538461539,0.7884615384615384,0.5714285714285714,0.8571428571428571,0.0004
397,1.2753635048866272,1.5664315223693848,0.46153846153846156,0.8461538461538461,0.35714285714285715,0.8571428571428571,0.0004
398,1.0361148118972778,1.4494590759277344,0.5384615384615384,0.8076923076923077,0.42857142857142855,0.8571428571428571,0.0004
399,1.2960688471794128,1.3015871047973633,0.5384615384615384,0.8653846153846154,0.35714285714285715,0.8571428571428571,0.0004
400,1.124798595905304,1.208489179611206,0.5384615384615384,0.8269230769230769,0.5714285714285714,0.8571428571428571,0.0004
401,1.0055062770843506,1.3817684650421143,0.5961538461538461,0.8269230769230769,0.42857142857142855,0.8571428571428571,0.0004
402,1.1064567565917969,1.063394546508789,0.5769230769230769,0.8269230769230769,0.7142857142857143,0.8571428571428571,0.0004
403,1.1493330597877502,1.2849599123001099,0.5961538461538461,0.8461538461538461,0.5,0.8571428571428571,0.0004
404,1.2148582935333252,1.3563231229782104,0.5769230769230769,0.8269230769230769,0.5,0.7857142857142857,0.0004
405,1.200564980506897,1.1678639650344849,0.5,0.8076923076923077,0.5,0.7857142857142857,0.0004
406,1.2140170335769653,1.486968994140625,0.6153846153846154,0.8653846153846154,0.42857142857142855,0.7857142857142857,0.0004
407,1.2328239679336548,1.1476036310195923,0.5961538461538461,0.8846153846153846,0.5714285714285714,0.8571428571428571,0.0004
408,1.2853949666023254,1.5565807819366455,0.46153846153846156,0.9038461538461539,0.35714285714285715,0.9285714285714286,0.0004
409,1.0301498770713806,1.32633376121521,0.6538461538461539,0.8269230769230769,0.42857142857142855,0.8571428571428571,0.0004
410,1.0646510124206543,1.5655301809310913,0.6730769230769231,0.8461538461538461,0.35714285714285715,0.8571428571428571,0.0004
411,1.1185141205787659,1.4171240329742432,0.5961538461538461,0.8653846153846154,0.2857142857142857,0.8571428571428571,0.0004
412,1.1551675200462341,1.4519212245941162,0.5384615384615384,0.8461538461538461,0.2857142857142857,0.7857142857142857,0.0004
413,1.1947920322418213,1.0766589641571045,0.5961538461538461,0.8269230769230769,0.5714285714285714,0.7142857142857143,0.0004
414,1.153935432434082,1.4937196969985962,0.6153846153846154,0.8269230769230769,0.2857142857142857,0.5714285714285714,0.0004
415,0.985846221446991,1.4244916439056396,0.6538461538461539,0.8653846153846154,0.42857142857142855,0.7142857142857143,0.0004
416,1.1200473308563232,1.3367977142333984,0.5961538461538461,0.8269230769230769,0.35714285714285715,0.7857142857142857,0.0004
417,0.9834522008895874,1.377760410308838,0.6730769230769231,0.9230769230769231,0.35714285714285715,0.6428571428571429,0.0004
418,1.2105686664581299,1.6340510845184326,0.5961538461538461,0.8461538461538461,0.35714285714285715,0.7857142857142857,0.0004
419,1.095499038696289,1.5202107429504395,0.5961538461538461,0.8269230769230769,0.21428571428571427,0.7142857142857143,0.0004
420,1.347611665725708,1.639230728149414,0.5,0.8653846153846154,0.35714285714285715,0.8571428571428571,0.0004
421,1.242018699645996,1.3728187084197998,0.5769230769230769,0.9038461538461539,0.35714285714285715,0.7142857142857143,0.0004
422,1.1595456004142761,1.1635268926620483,0.6153846153846154,0.7692307692307693,0.35714285714285715,0.8571428571428571,0.0004
423,1.030150979757309,1.0849918127059937,0.6346153846153846,0.9423076923076923,0.42857142857142855,0.8571428571428571,0.0004
424,1.0970380902290344,1.4389336109161377,0.5769230769230769,0.8076923076923077,0.2857142857142857,0.8571428571428571,0.0004
425,1.091515839099884,1.528233528137207,0.6346153846153846,0.8653846153846154,0.5,0.5714285714285714,0.0004
426,1.1941487193107605,1.4105358123779297,0.6153846153846154,0.8653846153846154,0.42857142857142855,0.6428571428571429,0.0004
427,0.9778145551681519,1.403857707977295,0.5961538461538461,0.9038461538461539,0.35714285714285715,0.7142857142857143,0.0004
428,1.0583020448684692,1.721378207206726,0.6538461538461539,0.8076923076923077,0.35714285714285715,0.7142857142857143,0.0004
429,1.089111566543579,1.5532052516937256,0.5576923076923077,0.8846153846153846,0.5,0.7142857142857143,0.0004
430,1.0029156506061554,1.2513726949691772,0.5576923076923077,0.8653846153846154,0.5,0.6428571428571429,0.0004
431,1.103922039270401,1.384428858757019,0.6153846153846154,0.9038461538461539,0.35714285714285715,0.7142857142857143,0.0004
432,1.130728304386139,1.2265199422836304,0.5192307692307693,0.8846153846153846,0.6428571428571429,0.7857142857142857,0.0004
433,1.0840542316436768,1.5833795070648193,0.6538461538461539,0.8076923076923077,0.35714285714285715,0.6428571428571429,0.0004
434,1.253883719444275,2.064591884613037,0.5576923076923077,0.8653846153846154,0.2857142857142857,0.7857142857142857,0.0004
435,1.1478183269500732,1.4608619213104248,0.5961538461538461,0.8653846153846154,0.5,0.6428571428571429,0.0004
436,0.8712626099586487,1.3326407670974731,0.7115384615384616,0.8653846153846154,0.5,0.7142857142857143,0.0004
437,1.0361924171447754,1.3300297260284424,0.5769230769230769,0.8461538461538461,0.42857142857142855,0.6428571428571429,0.0004
438,1.1286622285842896,1.37298583984375,0.5769230769230769,0.8461538461538461,0.42857142857142855,0.6428571428571429,0.0004
439,1.022496610879898,1.2209926843643188,0.5769230769230769,0.8846153846153846,0.42857142857142855,0.9285714285714286,0.0004
440,1.2018203139305115,1.3185813426971436,0.6153846153846154,0.8846153846153846,0.35714285714285715,0.9285714285714286,0.0004
441,1.2451886534690857,1.4337397813796997,0.6153846153846154,0.8269230769230769,0.2857142857142857,0.7857142857142857,0.0004
442,1.3492453694343567,1.3450117111206055,0.5384615384615384,0.8269230769230769,0.42857142857142855,0.7857142857142857,0.0004
443,1.149135708808899,1.5685265064239502,0.5769230769230769,0.8653846153846154,0.42857142857142855,0.7142857142857143,0.0004
444,1.1687130331993103,1.24288809299469,0.5384615384615384,0.9038461538461539,0.35714285714285715,0.7857142857142857,0.0004
445,1.2362980842590332,1.3514550924301147,0.6153846153846154,0.9038461538461539,0.42857142857142855,0.5714285714285714,0.0004
446,1.1093236207962036,1.341261863708496,0.6730769230769231,0.9038461538461539,0.42857142857142855,0.6428571428571429,0.0004
447,1.1591022610664368,1.2865103483200073,0.5576923076923077,0.8461538461538461,0.2857142857142857,0.7857142857142857,0.0004
448,1.0270339846611023,1.182450532913208,0.5576923076923077,0.9230769230769231,0.5,0.8571428571428571,0.0004
449,1.124094843864441,1.2789496183395386,0.5769230769230769,0.8653846153846154,0.5,0.8571428571428571,0.0004
450,1.083606481552124,1.8141913414001465,0.5576923076923077,0.8846153846153846,0.2857142857142857,0.6428571428571429,0.0004
451,1.291515290737152,1.2961375713348389,0.6153846153846154,0.8076923076923077,0.5,0.7857142857142857,0.0004
452,0.9766497611999512,1.5888769626617432,0.5961538461538461,0.9615384615384616,0.21428571428571427,0.6428571428571429,0.0004
453,1.0252873301506042,1.2820971012115479,0.5961538461538461,0.9423076923076923,0.5,0.7142857142857143,0.0004
454,0.9453757107257843,1.5282150506973267,0.6730769230769231,0.8846153846153846,0.35714285714285715,0.7857142857142857,0.0004
455,1.3620834946632385,1.792267084121704,0.5384615384615384,0.7692307692307693,0.35714285714285715,0.7142857142857143,0.0004
456,1.0363881886005402,1.658076286315918,0.5769230769230769,0.8269230769230769,0.42857142857142855,0.7142857142857143,0.0004
457,0.984713226556778,1.7018330097198486,0.6730769230769231,0.8653846153846154,0.2857142857142857,0.7857142857142857,0.0004
458,0.9589913785457611,1.8336646556854248,0.6730769230769231,0.9038461538461539,0.2857142857142857,0.7142857142857143,0.0004
459,1.1105665564537048,1.6234664916992188,0.6153846153846154,0.8846153846153846,0.2857142857142857,0.8571428571428571,0.0004
460,1.0592731833457947,1.39457368850708,0.6153846153846154,0.9038461538461539,0.42857142857142855,0.7857142857142857,0.0004
461,1.0157575607299805,1.2722527980804443,0.6538461538461539,0.8653846153846154,0.35714285714285715,0.7142857142857143,0.0004
462,1.0351582169532776,1.6488325595855713,0.6730769230769231,0.8461538461538461,0.2857142857142857,0.7857142857142857,0.0004
463,1.036637008190155,1.2547699213027954,0.6538461538461539,0.8461538461538461,0.5,0.6428571428571429,0.0004
464,1.0145551562309265,1.4235458374023438,0.6346153846153846,0.8846153846153846,0.35714285714285715,0.9285714285714286,0.0004
465,1.1834084391593933,1.27490234375,0.5576923076923077,0.8461538461538461,0.5,0.9285714285714286,0.0004
466,1.140472263097763,1.6039369106292725,0.5961538461538461,0.8269230769230769,0.5,0.8571428571428571,0.0004
467,1.0997724533081055,1.501521348953247,0.6538461538461539,0.8461538461538461,0.35714285714285715,0.9285714285714286,0.0004
468,1.2331295013427734,1.3728739023208618,0.5769230769230769,0.8846153846153846,0.42857142857142855,0.7857142857142857,0.0004
469,1.3133391737937927,1.46000075340271,0.5,0.8461538461538461,0.35714285714285715,0.7857142857142857,0.0004
470,0.954660177230835,1.418105125427246,0.6153846153846154,0.9038461538461539,0.35714285714285715,0.7142857142857143,0.0004
471,1.118675410747528,2.048492431640625,0.5384615384615384,0.8846153846153846,0.2857142857142857,0.7142857142857143,0.0004
472,1.0838192701339722,1.5994749069213867,0.6153846153846154,0.8653846153846154,0.2857142857142857,0.7857142857142857,0.0004
473,1.107546329498291,1.5594420433044434,0.5769230769230769,0.8461538461538461,0.42857142857142855,0.7142857142857143,0.0004
474,1.1092584431171417,1.629246473312378,0.6346153846153846,0.8846153846153846,0.2857142857142857,0.8571428571428571,0.0004
475,0.8511538803577423,1.6989939212799072,0.6923076923076923,0.9615384615384616,0.14285714285714285,0.7857142857142857,0.0004
476,1.0513447523117065,1.3617279529571533,0.5769230769230769,0.8846153846153846,0.35714285714285715,0.7857142857142857,0.0004
477,1.2132098078727722,1.5071842670440674,0.6346153846153846,0.8461538461538461,0.42857142857142855,0.8571428571428571,0.0004
478,1.2123010754585266,1.3656284809112549,0.5769230769230769,0.8076923076923077,0.42857142857142855,0.8571428571428571,0.0004
479,1.0677376985549927,1.6887245178222656,0.6346153846153846,0.8846153846153846,0.35714285714285715,0.7142857142857143,0.0004
480,1.1847514510154724,1.5150277614593506,0.6153846153846154,0.8461538461538461,0.2857142857142857,0.7857142857142857,0.0004
481,0.9563312530517578,1.4509449005126953,0.6346153846153846,0.9038461538461539,0.2857142857142857,0.7857142857142857,0.0004
482,0.9273223280906677,1.0431900024414062,0.6346153846153846,0.9038461538461539,0.6428571428571429,0.7857142857142857,0.0004
483,1.0512018203735352,1.3854471445083618,0.6153846153846154,0.9038461538461539,0.35714285714285715,0.7857142857142857,0.0004
484,1.150406002998352,1.3233858346939087,0.5384615384615384,0.9423076923076923,0.42857142857142855,0.8571428571428571,0.0004
485,1.0758774876594543,1.6699097156524658,0.5384615384615384,0.9230769230769231,0.35714285714285715,0.7857142857142857,0.0004
486,0.892370730638504,1.7233550548553467,0.6346153846153846,0.9230769230769231,0.35714285714285715,0.8571428571428571,0.0004
487,1.045441210269928,1.3149598836898804,0.5576923076923077,0.8461538461538461,0.42857142857142855,0.8571428571428571,0.0004
488,1.0997468531131744,1.7606549263000488,0.5769230769230769,0.9230769230769231,0.2857142857142857,0.6428571428571429,0.0004
489,1.2361202239990234,1.387460708618164,0.6153846153846154,0.8653846153846154,0.42857142857142855,0.6428571428571429,0.0004
490,1.2125017642974854,1.538725733757019,0.5769230769230769,0.8461538461538461,0.42857142857142855,0.5,0.0004
491,1.073952853679657,1.3345069885253906,0.5769230769230769,0.9230769230769231,0.42857142857142855,0.8571428571428571,0.0004
492,1.108349084854126,1.5079501867294312,0.5961538461538461,0.8653846153846154,0.35714285714285715,0.7857142857142857,0.0004
493,0.9242948293685913,1.3728299140930176,0.6730769230769231,0.9423076923076923,0.5,0.8571428571428571,0.0004
494,1.0931779146194458,1.4656257629394531,0.5576923076923077,0.9038461538461539,0.5714285714285714,0.7142857142857143,0.0004
495,1.0499162077903748,1.5811989307403564,0.6538461538461539,0.8846153846153846,0.42857142857142855,0.6428571428571429,0.0004
496,1.0762979984283447,1.273740530014038,0.5961538461538461,0.8461538461538461,0.6428571428571429,0.6428571428571429,0.0004
497,1.1338627338409424,1.4234538078308105,0.5,0.8846153846153846,0.35714285714285715,0.8571428571428571,0.0004
498,1.0136836171150208,1.3403129577636719,0.6923076923076923,0.9230769230769231,0.42857142857142855,0.7142857142857143,0.0004
499,1.0982463955879211,1.7227823734283447,0.5769230769230769,0.9038461538461539,0.35714285714285715,0.7857142857142857,0.0004
500,1.199422925710678,1.3492069244384766,0.5769230769230769,0.8461538461538461,0.5,0.8571428571428571,0.0004
501,1.0181975364685059,1.2748754024505615,0.6346153846153846,0.8846153846153846,0.5,0.7857142857142857,0.0004
502,0.9371447563171387,1.8060189485549927,0.6538461538461539,0.9230769230769231,0.2857142857142857,0.5714285714285714,0.0004
503,1.042994201183319,1.5107216835021973,0.6346153846153846,0.9230769230769231,0.35714285714285715,0.7142857142857143,0.0004
504,1.038253664970398,1.3126477003097534,0.5384615384615384,0.9038461538461539,0.5,0.6428571428571429,0.0004
505,1.0917807221412659,1.3726321458816528,0.5384615384615384,0.9230769230769231,0.2857142857142857,0.7857142857142857,0.0004
506,1.0689836144447327,1.2973918914794922,0.6923076923076923,0.8653846153846154,0.5,0.8571428571428571,0.0004
507,0.9380076229572296,1.4046177864074707,0.6730769230769231,0.8846153846153846,0.5,0.8571428571428571,0.0004
508,1.283052682876587,1.5867483615875244,0.5192307692307693,0.8461538461538461,0.5,0.8571428571428571,0.0004
509,1.0784993469715118,1.223680019378662,0.6346153846153846,0.9038461538461539,0.42857142857142855,0.7857142857142857,0.0004
510,1.0244696736335754,1.2217583656311035,0.6346153846153846,0.9038461538461539,0.42857142857142855,0.7142857142857143,0.0004
511,0.9097444415092468,1.692922830581665,0.6730769230769231,0.8846153846153846,0.35714285714285715,0.7857142857142857,0.0004
512,1.0679095089435577,1.51441490650177,0.5192307692307693,0.9230769230769231,0.35714285714285715,0.7142857142857143,0.0004
513,0.8924436271190643,1.547623634338379,0.6923076923076923,0.9230769230769231,0.42857142857142855,0.6428571428571429,0.0004
514,1.2383543252944946,1.3541635274887085,0.6153846153846154,0.9038461538461539,0.42857142857142855,0.8571428571428571,0.0004
515,0.8393391370773315,1.4462562799453735,0.6923076923076923,0.9423076923076923,0.42857142857142855,0.8571428571428571,0.0004
516,1.0466843247413635,1.2797274589538574,0.6153846153846154,0.8461538461538461,0.5714285714285714,0.7142857142857143,0.0004
517,1.148073971271515,1.1818634271621704,0.5769230769230769,0.8076923076923077,0.42857142857142855,0.8571428571428571,0.0004
518,0.9907349944114685,1.5997322797775269,0.6153846153846154,0.9423076923076923,0.42857142857142855,0.6428571428571429,0.0004
519,1.2584539651870728,1.4404540061950684,0.5769230769230769,0.8461538461538461,0.35714285714285715,0.7142857142857143,0.0004
520,0.8539969623088837,1.4838263988494873,0.6538461538461539,0.9230769230769231,0.5,0.7857142857142857,0.0004
521,1.0480945110321045,1.7950423955917358,0.6346153846153846,0.8461538461538461,0.2857142857142857,0.8571428571428571,0.0004
522,0.8973340690135956,1.218244194984436,0.6538461538461539,0.8653846153846154,0.5,0.7857142857142857,0.0004
523,1.111426830291748,1.352160930633545,0.5961538461538461,0.8846153846153846,0.5714285714285714,0.8571428571428571,0.0004
524,1.0934170484542847,1.230260968208313,0.6153846153846154,0.8653846153846154,0.5714285714285714,0.8571428571428571,0.0004
525,1.0408238768577576,2.0172760486602783,0.5961538461538461,0.9038461538461539,0.42857142857142855,0.7142857142857143,0.0004
526,1.0258808732032776,1.2048826217651367,0.6538461538461539,0.9230769230769231,0.5,0.7142857142857143,0.0004
527,0.9730297327041626,1.4097808599472046,0.6346153846153846,0.8846153846153846,0.5,0.7142857142857143,0.0004
528,1.0427166819572449,1.4535424709320068,0.5961538461538461,0.9230769230769231,0.2857142857142857,0.8571428571428571,0.0004
529,0.9642292261123657,1.2971709966659546,0.6153846153846154,0.9423076923076923,0.5714285714285714,0.8571428571428571,0.0004
530,1.001605212688446,1.3016293048858643,0.6730769230769231,0.8461538461538461,0.5,0.7857142857142857,0.0004
531,1.1256577968597412,1.46219801902771,0.5384615384615384,0.9038461538461539,0.5,0.7857142857142857,0.0004
532,1.134214997291565,1.3134868144989014,0.5576923076923077,0.8269230769230769,0.5,0.7857142857142857,0.0004
533,0.8539251089096069,1.5032234191894531,0.6538461538461539,0.9423076923076923,0.42857142857142855,0.7142857142857143,0.0004
534,0.9812848567962646,1.308316946029663,0.7692307692307693,0.8653846153846154,0.5714285714285714,0.7857142857142857,0.0004
535,1.0878766179084778,1.3617671728134155,0.6730769230769231,0.9807692307692307,0.5,0.7857142857142857,0.0004
536,0.981451541185379,1.6928024291992188,0.6346153846153846,0.9038461538461539,0.35714285714285715,0.6428571428571429,0.0004
537,0.9372425377368927,1.3529022932052612,0.5961538461538461,0.8846153846153846,0.5,0.8571428571428571,0.0004
538,1.0068553686141968,1.3997219800949097,0.6346153846153846,0.8846153846153846,0.42857142857142855,0.8571428571428571,0.0004
539,1.0303048491477966,1.2564173936843872,0.6730769230769231,0.9038461538461539,0.5714285714285714,0.9285714285714286,0.0004
540,0.9961804151535034,1.4242424964904785,0.6730769230769231,0.9038461538461539,0.5714285714285714,0.8571428571428571,0.0004
541,1.0089464783668518,1.4385989904403687,0.6538461538461539,0.9230769230769231,0.42857142857142855,0.8571428571428571,0.0004
542,1.0285886526107788,1.617927074432373,0.6153846153846154,0.9230769230769231,0.42857142857142855,0.8571428571428571,0.0004
543,1.0546725988388062,1.501326084136963,0.5,0.9038461538461539,0.5,0.7857142857142857,0.0004
544,1.1877590417861938,1.4648864269256592,0.6730769230769231,0.9038461538461539,0.5,0.7857142857142857,0.0004
545,0.8792853355407715,1.517207145690918,0.6346153846153846,0.9423076923076923,0.35714285714285715,0.7857142857142857,0.0004
546,1.0438402891159058,1.689354419708252,0.5961538461538461,0.9423076923076923,0.42857142857142855,0.8571428571428571,0.0004
547,0.9679484665393829,1.5292778015136719,0.6538461538461539,0.9230769230769231,0.5714285714285714,0.8571428571428571,0.0004
548,0.8299822807312012,1.4024349451065063,0.7692307692307693,0.9423076923076923,0.42857142857142855,0.9285714285714286,0.0004
549,1.0391958951950073,1.4183486700057983,0.6346153846153846,0.9038461538461539,0.5714285714285714,0.8571428571428571,0.0004
550,1.0163347721099854,1.22471022605896,0.5961538461538461,0.9038461538461539,0.5,0.9285714285714286,0.0004
551,1.110071212053299,1.4783804416656494,0.5576923076923077,0.8269230769230769,0.5,0.7857142857142857,0.0004
552,1.1243896484375,0.9732534289360046,0.6346153846153846,0.8653846153846154,0.5714285714285714,0.9285714285714286,0.0004
553,1.0577338933944702,1.9246394634246826,0.5769230769230769,0.8846153846153846,0.35714285714285715,0.7142857142857143,0.0004
554,1.062516450881958,1.5565358400344849,0.6346153846153846,0.8076923076923077,0.42857142857142855,0.7142857142857143,0.0004
555,0.9172818958759308,1.2726359367370605,0.6153846153846154,0.9038461538461539,0.42857142857142855,0.8571428571428571,0.0004
556,0.9539826214313507,1.3148584365844727,0.6538461538461539,0.8846153846153846,0.5,0.8571428571428571,0.0004
557,0.838782548904419,1.4240425825119019,0.6923076923076923,0.9423076923076923,0.5,0.8571428571428571,0.0004
558,0.8915343284606934,1.932342290878296,0.6346153846153846,0.9230769230769231,0.21428571428571427,0.6428571428571429,0.0004
559,1.1275911033153534,1.1174345016479492,0.6346153846153846,0.9230769230769231,0.5714285714285714,0.8571428571428571,0.0004
560,0.9839759469032288,1.486194372177124,0.6346153846153846,0.9423076923076923,0.42857142857142855,0.7142857142857143,0.0004
561,0.9918754696846008,1.1412632465362549,0.5961538461538461,0.9423076923076923,0.5714285714285714,0.7857142857142857,0.0004
562,0.9582693576812744,1.2394039630889893,0.6346153846153846,0.9230769230769231,0.6428571428571429,0.7857142857142857,0.0004
563,0.899612307548523,1.3148709535598755,0.6923076923076923,0.9423076923076923,0.5714285714285714,0.8571428571428571,0.0004
564,0.9977428615093231,1.1938495635986328,0.6730769230769231,0.9230769230769231,0.5,0.9285714285714286,0.0004
565,1.0828815698623657,1.403659701347351,0.6730769230769231,0.8653846153846154,0.42857142857142855,0.7857142857142857,0.0004
566,0.9409471154212952,1.570648431777954,0.6923076923076923,0.8269230769230769,0.35714285714285715,0.7857142857142857,0.0004
567,1.0172529816627502,1.7210359573364258,0.6538461538461539,0.9038461538461539,0.35714285714285715,0.6428571428571429,0.0004
568,1.0108214616775513,1.4250658750534058,0.6153846153846154,0.9230769230769231,0.5714285714285714,0.7857142857142857,0.0004
569,1.0244624316692352,1.670327067375183,0.6538461538461539,0.9038461538461539,0.5,0.7142857142857143,0.0004
570,0.8807879090309143,1.6836222410202026,0.6538461538461539,0.9230769230769231,0.42857142857142855,0.7142857142857143,0.0004
571,0.9858683943748474,1.4768383502960205,0.6730769230769231,0.8461538461538461,0.5,0.8571428571428571,0.0004
572,0.988841712474823,1.4516470432281494,0.6153846153846154,0.8846153846153846,0.5,0.7857142857142857,0.0004
573,0.9332944750785828,1.3513824939727783,0.6538461538461539,0.9038461538461539,0.5,0.8571428571428571,0.0004
574,0.9809021055698395,1.051736831665039,0.6346153846153846,0.8846153846153846,0.6428571428571429,0.9285714285714286,0.0004
575,1.094444453716278,1.739166021347046,0.4807692307692308,0.9038461538461539,0.42857142857142855,0.7142857142857143,0.0004
576,1.1300353109836578,1.1498472690582275,0.5961538461538461,0.9230769230769231,0.6428571428571429,0.9285714285714286,0.0004
577,0.8507164716720581,1.022665023803711,0.6923076923076923,0.9038461538461539,0.5714285714285714,0.8571428571428571,0.0004
578,1.2995514273643494,1.3896088600158691,0.5769230769230769,0.8461538461538461,0.42857142857142855,0.7857142857142857,0.0004
579,0.9872822165489197,1.5301158428192139,0.6346153846153846,0.9230769230769231,0.35714285714285715,0.7142857142857143,0.0004
580,0.8599585890769958,1.1840158700942993,0.6730769230769231,0.9038461538461539,0.5714285714285714,0.7857142857142857,0.0004
581,0.8819558024406433,1.2189925909042358,0.6923076923076923,0.8846153846153846,0.5,0.9285714285714286,0.0004
582,1.0451440215110779,1.64863920211792,0.6923076923076923,0.8269230769230769,0.5714285714285714,0.7857142857142857,0.0004
583,0.993127167224884,1.3181477785110474,0.6923076923076923,0.8461538461538461,0.5714285714285714,0.9285714285714286,0.0004
584,0.8910093605518341,1.2594839334487915,0.6538461538461539,0.9230769230769231,0.7142857142857143,0.8571428571428571,0.0004
585,1.0261939764022827,1.450153112411499,0.6153846153846154,0.9038461538461539,0.35714285714285715,0.7142857142857143,0.0004
586,1.0287176668643951,1.2278897762298584,0.5961538461538461,0.9423076923076923,0.5714285714285714,0.8571428571428571,0.0004
587,1.074933022260666,1.5786442756652832,0.6538461538461539,0.8846153846153846,0.5714285714285714,0.7142857142857143,0.0004
588,0.9391262829303741,2.0512149333953857,0.5769230769230769,0.9423076923076923,0.35714285714285715,0.7857142857142857,0.0004
589,1.2415736019611359,2.0346641540527344,0.5192307692307693,0.8269230769230769,0.35714285714285715,0.6428571428571429,0.0004
590,1.0083754658699036,1.486464023590088,0.5769230769230769,0.9423076923076923,0.5,0.7142857142857143,0.0004
591,0.9577389359474182,1.1971487998962402,0.6153846153846154,0.9423076923076923,0.5,0.8571428571428571,0.0004
592,1.0595636367797852,1.3710284233093262,0.6153846153846154,0.8846153846153846,0.5,0.7857142857142857,0.0004
593,1.1372400522232056,1.2564201354980469,0.5769230769230769,0.9230769230769231,0.5,0.8571428571428571,0.0004
594,1.121814250946045,1.2877693176269531,0.6346153846153846,0.8846153846153846,0.5714285714285714,0.9285714285714286,0.0004
595,1.093707263469696,1.7985140085220337,0.6538461538461539,0.8653846153846154,0.5,0.7857142857142857,0.0004
596,0.9672713875770569,1.3738782405853271,0.6538461538461539,0.9038461538461539,0.35714285714285715,0.8571428571428571,0.0004
597,1.1230669021606445,1.6614835262298584,0.6346153846153846,0.8653846153846154,0.5,0.6428571428571429,0.0004
598,1.2081573009490967,1.6533589363098145,0.6153846153846154,0.8076923076923077,0.42857142857142855,0.7142857142857143,0.0004
599,1.1292728781700134,1.3513418436050415,0.5384615384615384,0.8653846153846154,0.5714285714285714,0.7857142857142857,0.0004
600,1.104928433895111,1.4765379428863525,0.5961538461538461,0.9423076923076923,0.42857142857142855,0.8571428571428571,0.0004
601,1.0902738571166992,1.1548311710357666,0.5961538461538461,0.8846153846153846,0.5714285714285714,0.8571428571428571,0.0004
602,0.9955725073814392,1.3970930576324463,0.6730769230769231,0.8461538461538461,0.42857142857142855,0.8571428571428571,0.0004
603,1.0423146486282349,1.6599005460739136,0.6538461538461539,0.8846153846153846,0.42857142857142855,0.9285714285714286,0.0004
604,0.9364655315876007,1.3752797842025757,0.6153846153846154,0.9038461538461539,0.5714285714285714,0.7857142857142857,0.0004
605,1.2003185153007507,1.1908512115478516,0.5384615384615384,0.8461538461538461,0.6428571428571429,0.8571428571428571,0.0004
606,0.7615121603012085,1.27449369430542,0.75,0.9423076923076923,0.6428571428571429,0.9285714285714286,0.0004
607,0.9600626230239868,1.1247992515563965,0.6538461538461539,0.8846153846153846,0.5714285714285714,0.9285714285714286,0.0004
608,0.9573066830635071,1.191823124885559,0.6923076923076923,0.9423076923076923,0.5714285714285714,0.7857142857142857,0.0004
609,1.0567427277565002,1.204440951347351,0.5769230769230769,0.9230769230769231,0.5,0.8571428571428571,0.0004
610,1.1240763068199158,1.6059017181396484,0.6346153846153846,0.9423076923076923,0.35714285714285715,0.6428571428571429,0.0004
611,1.0771364569664001,1.5749603509902954,0.5769230769230769,0.9038461538461539,0.35714285714285715,0.7142857142857143,0.0004
612,0.8648547530174255,1.4464865922927856,0.6923076923076923,0.9807692307692307,0.35714285714285715,0.7857142857142857,0.0004
613,1.051647961139679,1.6950814723968506,0.6923076923076923,0.9038461538461539,0.42857142857142855,0.8571428571428571,0.0004
614,1.1515847444534302,1.4393147230148315,0.6346153846153846,0.8269230769230769,0.42857142857142855,0.8571428571428571,0.0004
615,1.0703535676002502,1.2269237041473389,0.6730769230769231,0.8653846153846154,0.5714285714285714,0.8571428571428571,0.0004
616,0.9198333919048309,1.3008449077606201,0.6923076923076923,0.9038461538461539,0.5,0.8571428571428571,0.0004
617,0.9843052625656128,1.1379005908966064,0.6730769230769231,0.9038461538461539,0.6428571428571429,0.8571428571428571,0.0004
618,1.1000778675079346,1.6249961853027344,0.6346153846153846,0.8653846153846154,0.5,0.9285714285714286,0.0004
619,1.0064790844917297,1.6310505867004395,0.6730769230769231,0.9615384615384616,0.42857142857142855,0.7142857142857143,0.0004
620,1.05147323012352,1.4174633026123047,0.5769230769230769,0.9230769230769231,0.5714285714285714,0.7857142857142857,0.0004
621,0.798673540353775,1.3820792436599731,0.6923076923076923,1.0,0.7857142857142857,0.7857142857142857,0.0004
622,1.1169766187667847,1.519239902496338,0.5961538461538461,0.9038461538461539,0.42857142857142855,0.7142857142857143,0.0004
623,1.0324789881706238,1.5897737741470337,0.6153846153846154,0.9230769230769231,0.35714285714285715,0.7857142857142857,0.0004
624,1.0816016793251038,1.1886463165283203,0.6538461538461539,0.8846153846153846,0.6428571428571429,0.9285714285714286,0.0004
625,1.049504041671753,1.3643132448196411,0.5961538461538461,0.9038461538461539,0.5,0.7857142857142857,0.0004
626,1.1165847778320312,1.6862244606018066,0.5961538461538461,0.8653846153846154,0.5,0.9285714285714286,0.0004
627,1.0652452111244202,1.4440650939941406,0.6153846153846154,0.9038461538461539,0.5,0.7857142857142857,0.0004
628,1.030415952205658,1.7422549724578857,0.5576923076923077,0.9230769230769231,0.2857142857142857,0.7142857142857143,0.0004
629,1.1557368040084839,1.6310248374938965,0.5384615384615384,0.9230769230769231,0.5,0.7142857142857143,0.0004
630,1.0304872393608093,1.4696972370147705,0.6730769230769231,0.8846153846153846,0.42857142857142855,0.7857142857142857,0.0004
631,0.9328053593635559,1.5732154846191406,0.6730769230769231,0.9230769230769231,0.2857142857142857,0.7142857142857143,0.0004
632,0.9551138877868652,1.128835678100586,0.6538461538461539,0.9230769230769231,0.6428571428571429,0.9285714285714286,0.0004
633,0.9303858876228333,1.3138296604156494,0.6538461538461539,0.9038461538461539,0.42857142857142855,0.7857142857142857,0.0004
634,0.9038131237030029,1.3739488124847412,0.6730769230769231,0.9423076923076923,0.42857142857142855,0.7857142857142857,0.0004
635,0.8735398054122925,1.231147289276123,0.6346153846153846,0.9423076923076923,0.5,0.9285714285714286,0.0004
636,0.8574141263961792,1.5651769638061523,0.7307692307692307,0.9230769230769231,0.5,0.7142857142857143,0.0004
637,0.7744564116001129,1.347660779953003,0.6730769230769231,0.9423076923076923,0.5,0.7857142857142857,0.0004
638,0.8969844281673431,1.7508940696716309,0.6730769230769231,0.9423076923076923,0.5714285714285714,0.7857142857142857,0.0004
639,0.8409965932369232,1.6994178295135498,0.7692307692307693,0.9038461538461539,0.42857142857142855,0.7142857142857143,0.0004
640,0.9631296694278717,0.9456816911697388,0.5961538461538461,0.9230769230769231,0.7142857142857143,0.9285714285714286,0.0004
641,0.8633480966091156,1.4972326755523682,0.7115384615384616,0.8653846153846154,0.42857142857142855,0.7142857142857143,0.0004
642,1.0571730136871338,1.3808114528656006,0.6730769230769231,0.8653846153846154,0.5714285714285714,0.7857142857142857,0.0004
643,1.1009544730186462,1.2280317544937134,0.6346153846153846,0.8461538461538461,0.5714285714285714,0.8571428571428571,0.0004
644,0.9819642305374146,1.507274866104126,0.6538461538461539,0.9038461538461539,0.5,0.7857142857142857,0.0004
645,0.9143247008323669,1.1524326801300049,0.6538461538461539,0.9230769230769231,0.6428571428571429,0.9285714285714286,0.0004
646,0.8395986258983612,1.4569647312164307,0.6730769230769231,0.9423076923076923,0.5,0.8571428571428571,0.0004
647,0.9855024516582489,1.6021993160247803,0.6346153846153846,0.9230769230769231,0.2857142857142857,0.8571428571428571,0.0004
648,0.9826117753982544,1.57357919216156,0.6730769230769231,0.8846153846153846,0.42857142857142855,0.8571428571428571,0.0004
649,1.0093438625335693,1.4366202354431152,0.6346153846153846,0.9230769230769231,0.5714285714285714,0.7857142857142857,0.0004
650,0.9640857577323914,1.5109505653381348,0.6346153846153846,0.9038461538461539,0.42857142857142855,0.7142857142857143,0.0004
651,1.0820282101631165,1.0725905895233154,0.6923076923076923,0.8846153846153846,0.5,0.8571428571428571,0.0004
652,0.9078076183795929,1.336887001991272,0.6730769230769231,0.9038461538461539,0.5714285714285714,0.7857142857142857,0.0004
653,1.0385610163211823,1.4537290334701538,0.6153846153846154,0.8461538461538461,0.42857142857142855,0.5714285714285714,0.0004
654,1.1837875843048096,1.3611314296722412,0.5961538461538461,0.9038461538461539,0.5714285714285714,0.7857142857142857,0.0004
655,1.0500377714633942,1.1403110027313232,0.5576923076923077,0.9423076923076923,0.5714285714285714,0.9285714285714286,0.0004
656,1.1172811388969421,0.9448438286781311,0.5769230769230769,0.9038461538461539,0.7142857142857143,0.9285714285714286,0.0004
657,1.0435546040534973,1.3881635665893555,0.6346153846153846,0.9230769230769231,0.42857142857142855,0.9285714285714286,0.0004
658,1.1992443799972534,1.499165415763855,0.6153846153846154,0.9038461538461539,0.5714285714285714,0.8571428571428571,0.0004
659,1.11616051197052,1.0449435710906982,0.5961538461538461,0.8461538461538461,0.6428571428571429,0.9285714285714286,0.0004
660,1.0619248151779175,1.4482276439666748,0.6730769230769231,0.8846153846153846,0.2857142857142857,0.8571428571428571,0.0004
661,0.8621321320533752,1.0334770679473877,0.6923076923076923,0.8846153846153846,0.6428571428571429,0.8571428571428571,0.0004
662,0.8731230795383453,1.3487026691436768,0.6730769230769231,0.8846153846153846,0.5,0.7142857142857143,0.0004
663,1.017814815044403,1.6337156295776367,0.5961538461538461,0.8461538461538461,0.35714285714285715,0.6428571428571429,0.0004
664,1.0396955013275146,1.5316685438156128,0.6923076923076923,0.9038461538461539,0.5714285714285714,0.7142857142857143,0.0004
665,1.3048654794692993,1.527111291885376,0.5384615384615384,0.8653846153846154,0.5714285714285714,0.6428571428571429,0.0004
666,1.1023816764354706,1.2024204730987549,0.5769230769230769,0.9807692307692307,0.5714285714285714,0.8571428571428571,0.0004
667,0.972381591796875,1.139674425125122,0.6153846153846154,0.9807692307692307,0.5,0.8571428571428571,0.0004
668,0.991131454706192,1.144115924835205,0.6153846153846154,0.9230769230769231,0.5714285714285714,0.8571428571428571,0.0004
669,0.8058868646621704,1.1942138671875,0.7692307692307693,0.9230769230769231,0.6428571428571429,0.8571428571428571,0.0004
670,0.9714851975440979,1.8908075094223022,0.6923076923076923,0.9038461538461539,0.42857142857142855,0.9285714285714286,0.0004
671,0.8500327467918396,1.4602551460266113,0.6730769230769231,0.9038461538461539,0.42857142857142855,0.8571428571428571,0.0004
672,1.022432655096054,1.161943793296814,0.75,0.9038461538461539,0.5714285714285714,0.9285714285714286,0.0004
673,1.041216254234314,1.2438597679138184,0.6923076923076923,0.8846153846153846,0.6428571428571429,0.8571428571428571,0.0004
674,0.8499016165733337,1.2153067588806152,0.6923076923076923,0.9615384615384616,0.7142857142857143,0.7857142857142857,0.0004
675,1.0362754464149475,1.6039109230041504,0.5576923076923077,0.9230769230769231,0.35714285714285715,0.7142857142857143,0.0004
676,1.0871391892433167,1.1622943878173828,0.6538461538461539,0.8461538461538461,0.7142857142857143,0.9285714285714286,0.0004
677,0.9788068532943726,1.3847343921661377,0.6153846153846154,0.9230769230769231,0.42857142857142855,0.8571428571428571,0.0004
678,0.860481470823288,1.7343579530715942,0.6923076923076923,0.9038461538461539,0.42857142857142855,0.9285714285714286,0.0004
679,0.9122219383716583,1.5803074836730957,0.6923076923076923,0.9038461538461539,0.5,0.7857142857142857,0.0004
680,0.7563250064849854,1.474530577659607,0.7307692307692307,0.9807692307692307,0.35714285714285715,0.9285714285714286,0.0004
681,0.8857323229312897,1.1446034908294678,0.6730769230769231,0.9230769230769231,0.6428571428571429,0.9285714285714286,0.0004
682,1.1780713200569153,0.9951543807983398,0.5769230769230769,0.9038461538461539,0.6428571428571429,0.9285714285714286,0.0004
683,0.9354235529899597,1.229078769683838,0.6730769230769231,0.9423076923076923,0.5714285714285714,0.9285714285714286,0.0004
684,1.1503975987434387,1.3175708055496216,0.6346153846153846,0.9423076923076923,0.5,0.7142857142857143,0.0004
685,0.912889838218689,1.5631967782974243,0.6730769230769231,0.9038461538461539,0.5714285714285714,0.9285714285714286,0.0004
686,1.0182838141918182,1.400557041168213,0.6538461538461539,0.8846153846153846,0.42857142857142855,0.7857142857142857,0.0004
687,0.7258392572402954,1.1254360675811768,0.7692307692307693,0.9230769230769231,0.7142857142857143,0.8571428571428571,0.0004
688,1.0543400645256042,1.5813992023468018,0.5961538461538461,0.9230769230769231,0.5,0.7857142857142857,0.0004
689,0.972204178571701,1.398511528968811,0.6538461538461539,0.9038461538461539,0.42857142857142855,0.8571428571428571,0.0004
690,1.1228973269462585,1.493180513381958,0.6153846153846154,0.8846153846153846,0.7142857142857143,0.9285714285714286,0.0004
691,0.9779940843582153,1.2811834812164307,0.6346153846153846,0.9423076923076923,0.5,0.8571428571428571,0.0004
692,1.039556235074997,1.528099536895752,0.5961538461538461,0.9423076923076923,0.42857142857142855,0.7857142857142857,0.0004
693,1.0988304018974304,1.6547483205795288,0.5576923076923077,0.8653846153846154,0.5,0.6428571428571429,0.0004
694,0.9152502417564392,1.0892112255096436,0.6538461538461539,0.9230769230769231,0.5714285714285714,0.8571428571428571,0.0004
695,0.9654205441474915,1.190977931022644,0.5576923076923077,0.9423076923076923,0.5714285714285714,0.9285714285714286,0.0004
696,1.0921161472797394,1.513978123664856,0.6538461538461539,0.8653846153846154,0.5,0.9285714285714286,0.0004
697,0.9827313423156738,1.2419259548187256,0.5961538461538461,0.9230769230769231,0.5714285714285714,0.8571428571428571,0.0004
698,0.8935210108757019,1.2574412822723389,0.6730769230769231,0.9038461538461539,0.6428571428571429,0.7857142857142857,0.0004
699,0.890423446893692,1.2007529735565186,0.6346153846153846,0.9230769230769231,0.7142857142857143,0.8571428571428571,0.0004
700,0.9597483575344086,1.255892038345337,0.6538461538461539,0.9038461538461539,0.5,0.8571428571428571,0.0004
701,1.060797780752182,1.573333740234375,0.6730769230769231,0.8653846153846154,0.42857142857142855,0.7857142857142857,0.0004
702,0.9602562487125397,1.1950699090957642,0.6730769230769231,0.8846153846153846,0.5,0.9285714285714286,0.0004
703,0.9243678450584412,1.238105058670044,0.6538461538461539,0.9038461538461539,0.5714285714285714,0.8571428571428571,0.0004
704,1.0751212239265442,0.9794001579284668,0.6153846153846154,0.9230769230769231,0.6428571428571429,0.9285714285714286,0.0004
705,1.037333995103836,1.4181824922561646,0.6346153846153846,0.8461538461538461,0.5,0.7142857142857143,0.0004
706,0.9021676480770111,1.455195665359497,0.6153846153846154,0.9230769230769231,0.5714285714285714,0.8571428571428571,0.0004
707,0.8966749906539917,1.5312674045562744,0.7307692307692307,0.9038461538461539,0.5,0.7142857142857143,0.0004
708,0.9640725255012512,1.0872522592544556,0.6538461538461539,0.9230769230769231,0.6428571428571429,0.9285714285714286,0.0004
709,0.8770808577537537,1.5026988983154297,0.7115384615384616,0.9615384615384616,0.5714285714285714,0.7857142857142857,0.0004
710,0.9222831428050995,1.24226713180542,0.6153846153846154,0.9423076923076923,0.6428571428571429,0.8571428571428571,0.0004
711,0.8855562210083008,1.3215746879577637,0.6346153846153846,0.9615384615384616,0.42857142857142855,0.8571428571428571,0.0004
712,0.7728340923786163,1.5109472274780273,0.7307692307692307,1.0,0.42857142857142855,0.9285714285714286,0.0004
713,0.9064095914363861,1.1104720830917358,0.6538461538461539,0.9423076923076923,0.6428571428571429,0.7857142857142857,0.0004
714,1.2154237031936646,1.1639068126678467,0.6153846153846154,0.8846153846153846,0.6428571428571429,0.8571428571428571,0.0004
715,0.9156456589698792,1.4531197547912598,0.6730769230769231,0.9423076923076923,0.5,0.7857142857142857,0.0004
716,1.0714998245239258,1.4501441717147827,0.5961538461538461,0.9230769230769231,0.5714285714285714,0.7857142857142857,0.0004
717,1.0079615116119385,1.3206770420074463,0.6153846153846154,0.8846153846153846,0.5714285714285714,0.8571428571428571,0.0004
718,0.9346274733543396,1.4815795421600342,0.7307692307692307,0.9038461538461539,0.6428571428571429,0.8571428571428571,0.0004
719,0.9543483257293701,1.2160675525665283,0.6923076923076923,0.8846153846153846,0.6428571428571429,0.8571428571428571,0.0004
720,1.1101226508617401,1.0478845834732056,0.5961538461538461,0.8653846153846154,0.6428571428571429,0.9285714285714286,0.0004
721,1.0392650961875916,1.4114419221878052,0.6538461538461539,0.9038461538461539,0.6428571428571429,0.8571428571428571,0.0004
722,0.8749353885650635,1.138957142829895,0.7115384615384616,0.9230769230769231,0.5,0.8571428571428571,0.0004
723,0.8438794910907745,1.058151364326477,0.6730769230769231,0.9423076923076923,0.7142857142857143,0.7857142857142857,0.0004
724,0.8757109642028809,1.170806646347046,0.6538461538461539,0.9423076923076923,0.7142857142857143,0.8571428571428571,0.0004
725,0.7588905692100525,1.3591759204864502,0.7307692307692307,0.9423076923076923,0.5,0.7142857142857143,0.0004
726,1.1703925728797913,1.652479887008667,0.6153846153846154,0.8846153846153846,0.5714285714285714,0.7142857142857143,0.0004
727,1.0143061876296997,1.4453232288360596,0.7115384615384616,0.8653846153846154,0.5,0.7857142857142857,0.0004
728,0.9861302375793457,1.311373233795166,0.5961538461538461,0.9230769230769231,0.42857142857142855,0.9285714285714286,0.0004
729,1.018696665763855,1.0868169069290161,0.6923076923076923,0.8846153846153846,0.5714285714285714,0.9285714285714286,0.0004
730,0.9164309501647949,1.6822383403778076,0.7115384615384616,0.9038461538461539,0.42857142857142855,0.8571428571428571,0.0004
731,0.9688232243061066,1.444133996963501,0.6923076923076923,0.9038461538461539,0.5,0.7857142857142857,0.0004
732,1.015743613243103,1.0761432647705078,0.6153846153846154,0.8846153846153846,0.6428571428571429,0.9285714285714286,0.0004
733,1.0542006492614746,0.9142334461212158,0.6538461538461539,0.8653846153846154,0.7142857142857143,0.9285714285714286,0.0004
734,0.9109603762626648,1.2942709922790527,0.6538461538461539,0.9230769230769231,0.5,0.7142857142857143,0.0004
735,0.7973905503749847,1.640554666519165,0.6730769230769231,0.9615384615384616,0.5,0.7142857142857143,0.0004
736,0.7182028889656067,1.1852853298187256,0.7692307692307693,0.9423076923076923,0.5714285714285714,0.8571428571428571,0.0004
737,1.1070266962051392,1.6716930866241455,0.5576923076923077,0.9615384615384616,0.42857142857142855,0.6428571428571429,0.0004
738,0.9164221286773682,1.3239085674285889,0.6538461538461539,0.9230769230769231,0.5714285714285714,0.8571428571428571,0.0004
739,0.921439915895462,1.172950029373169,0.6538461538461539,0.9423076923076923,0.5,0.9285714285714286,0.0004
740,1.1415854692459106,1.0809688568115234,0.6153846153846154,0.9038461538461539,0.7142857142857143,0.8571428571428571,0.0004
741,0.9717076420783997,1.2122199535369873,0.6730769230769231,0.9230769230769231,0.5714285714285714,0.8571428571428571,0.0004
742,1.0879670083522797,1.2591973543167114,0.6346153846153846,0.9230769230769231,0.5,0.8571428571428571,0.0004
743,0.9667311608791351,1.1221593618392944,0.5961538461538461,0.9423076923076923,0.5714285714285714,0.9285714285714286,0.0004
744,0.7857212722301483,1.4427218437194824,0.7115384615384616,0.9423076923076923,0.5714285714285714,0.7857142857142857,0.0004
745,1.1828533411026,1.5049970149993896,0.6153846153846154,0.8846153846153846,0.5,0.8571428571428571,0.0004
746,0.8026223480701447,1.5009324550628662,0.6730769230769231,0.9423076923076923,0.5714285714285714,0.7142857142857143,0.0004
747,0.9275211095809937,1.738396406173706,0.5576923076923077,0.9423076923076923,0.5,0.7857142857142857,0.0004
748,0.9122126698493958,1.2487640380859375,0.6923076923076923,0.9230769230769231,0.42857142857142855,0.9285714285714286,0.0004
749,1.0650880336761475,1.5428657531738281,0.6923076923076923,0.8846153846153846,0.6428571428571429,0.8571428571428571,0.0004
750,0.9335754215717316,1.585258960723877,0.6153846153846154,0.9230769230769231,0.5,0.7857142857142857,0.0004
751,1.113139659166336,1.4708846807479858,0.5769230769230769,0.8846153846153846,0.5714285714285714,0.7857142857142857,0.0004
752,1.2236461639404297,1.4202593564987183,0.5769230769230769,0.9038461538461539,0.6428571428571429,0.8571428571428571,0.0004
753,1.0802024006843567,1.3882776498794556,0.6153846153846154,0.9038461538461539,0.6428571428571429,0.8571428571428571,0.0004
754,0.8383079469203949,1.4687931537628174,0.6923076923076923,0.9423076923076923,0.5714285714285714,0.8571428571428571,0.0004
755,0.9500849843025208,1.0454236268997192,0.6153846153846154,0.9230769230769231,0.6428571428571429,0.9285714285714286,0.0004
756,0.9883533120155334,1.5006194114685059,0.6730769230769231,0.9038461538461539,0.5,0.7857142857142857,0.0004
757,1.2964797019958496,1.4390170574188232,0.5769230769230769,0.8269230769230769,0.6428571428571429,0.7857142857142857,0.0004
758,1.0691298842430115,1.4894806146621704,0.5769230769230769,0.9423076923076923,0.6428571428571429,0.7142857142857143,0.0004
759,0.8772939741611481,0.970956563949585,0.6730769230769231,0.9038461538461539,0.6428571428571429,0.9285714285714286,0.0004
760,1.0825973749160767,1.124096393585205,0.5769230769230769,0.8846153846153846,0.7142857142857143,0.8571428571428571,0.0004
761,0.7447662055492401,1.1058763265609741,0.7307692307692307,1.0,0.5714285714285714,0.7857142857142857,0.0004
762,0.9597568511962891,1.648593783378601,0.6730769230769231,0.9038461538461539,0.42857142857142855,0.8571428571428571,0.0004
763,0.9668829441070557,1.521824598312378,0.6923076923076923,0.9230769230769231,0.42857142857142855,0.6428571428571429,0.0004
764,1.017436146736145,1.4736464023590088,0.6346153846153846,0.9038461538461539,0.35714285714285715,0.7857142857142857,0.0004
765,0.9819782674312592,1.6066144704818726,0.5961538461538461,0.9038461538461539,0.5,0.8571428571428571,0.0004
766,0.99162358045578,1.8311214447021484,0.5961538461538461,0.8846153846153846,0.35714285714285715,0.7857142857142857,0.0004
767,1.092605322599411,1.3228601217269897,0.6346153846153846,0.8846153846153846,0.5,0.8571428571428571,0.0004
768,1.1346176266670227,1.240232229232788,0.5769230769230769,0.9230769230769231,0.5714285714285714,0.7857142857142857,0.0004
769,0.9773205518722534,1.0944428443908691,0.6346153846153846,0.9230769230769231,0.42857142857142855,0.9285714285714286,0.0004
770,0.8254480361938477,1.417344331741333,0.6538461538461539,0.9807692307692307,0.5714285714285714,0.7857142857142857,0.0004
771,0.9118907153606415,1.4559757709503174,0.7307692307692307,0.9038461538461539,0.5714285714285714,0.6428571428571429,0.0004
772,0.8219531774520874,1.3246136903762817,0.7692307692307693,0.9423076923076923,0.7142857142857143,0.8571428571428571,0.0004
773,0.9278157651424408,1.4638826847076416,0.5961538461538461,0.9038461538461539,0.7857142857142857,0.6428571428571429,0.0004
774,1.0379964113235474,1.6899696588516235,0.6730769230769231,0.8269230769230769,0.5,0.5714285714285714,0.0004
775,0.987745851278305,1.5135494470596313,0.6923076923076923,0.9230769230769231,0.5,0.7857142857142857,0.0004
776,0.9988535344600677,1.0643775463104248,0.6730769230769231,0.9230769230769231,0.6428571428571429,0.8571428571428571,0.0004
777,1.0738133788108826,1.8347575664520264,0.7115384615384616,0.8461538461538461,0.5,0.8571428571428571,0.0004
778,0.7350349426269531,1.3851529359817505,0.75,0.9615384615384616,0.5714285714285714,0.7857142857142857,0.0004
779,1.0140290260314941,1.404908299446106,0.5961538461538461,0.9038461538461539,0.5,0.7857142857142857,0.0004
780,1.1423752903938293,1.2597684860229492,0.6538461538461539,0.8846153846153846,0.5714285714285714,0.8571428571428571,0.0004
781,0.8993271887302399,0.90719074010849,0.7115384615384616,0.9230769230769231,0.7142857142857143,0.9285714285714286,0.0004
782,0.9912448823451996,1.504388689994812,0.6730769230769231,0.8653846153846154,0.5714285714285714,0.8571428571428571,0.0004
783,0.7740459740161896,1.204776644706726,0.7115384615384616,0.8846153846153846,0.5714285714285714,0.8571428571428571,0.0004
784,1.0434939563274384,1.3491137027740479,0.6730769230769231,0.8846153846153846,0.6428571428571429,0.7857142857142857,0.0004
785,0.7981265783309937,1.5276405811309814,0.7115384615384616,0.9807692307692307,0.5,0.7857142857142857,0.0004
786,0.8953897356987,1.6582900285720825,0.7115384615384616,0.9423076923076923,0.42857142857142855,0.8571428571428571,0.0004
787,1.1037042737007141,1.052286982536316,0.6153846153846154,0.9423076923076923,0.7857142857142857,0.8571428571428571,0.0004
788,1.1616459488868713,1.773732304573059,0.5961538461538461,0.8461538461538461,0.5714285714285714,0.8571428571428571,0.0004
789,0.7862657010555267,1.4936151504516602,0.75,0.9615384615384616,0.5714285714285714,0.7857142857142857,0.0004
790,0.9745853245258331,1.4048242568969727,0.5961538461538461,0.9423076923076923,0.5,0.7857142857142857,0.0004
791,1.2954464554786682,0.9726049304008484,0.5,0.8461538461538461,0.7857142857142857,0.9285714285714286,0.0004
792,0.7367105782032013,1.3895041942596436,0.75,0.9807692307692307,0.5714285714285714,0.8571428571428571,0.0004
793,1.0787461996078491,1.2508559226989746,0.5961538461538461,0.9423076923076923,0.5,0.7857142857142857,0.0004
794,0.7930692732334137,1.3092291355133057,0.7115384615384616,0.9615384615384616,0.5714285714285714,0.8571428571428571,0.0004
795,1.181258350610733,1.3041999340057373,0.6153846153846154,0.8846153846153846,0.5714285714285714,0.7857142857142857,0.0004
796,0.8287739157676697,1.1468966007232666,0.7115384615384616,0.9230769230769231,0.5714285714285714,0.8571428571428571,0.0004
797,1.2313432097434998,1.220055341720581,0.5961538461538461,0.8269230769230769,0.5714285714285714,0.9285714285714286,0.0004
798,0.7783268094062805,1.4619159698486328,0.75,0.9423076923076923,0.5,0.8571428571428571,0.0004
799,0.7497964799404144,1.3476402759552002,0.7307692307692307,0.9807692307692307,0.5,0.7857142857142857,0.0004
800,0.8781660795211792,1.1987411975860596,0.6923076923076923,0.8846153846153846,0.5714285714285714,0.8571428571428571,0.0004
801,1.0903842151165009,1.217607855796814,0.6730769230769231,0.8653846153846154,0.7142857142857143,0.7857142857142857,0.0004
802,0.9204879999160767,1.4157510995864868,0.6346153846153846,0.9615384615384616,0.5,0.7857142857142857,0.0004
803,0.9455077946186066,1.0178457498550415,0.6346153846153846,0.9230769230769231,0.7142857142857143,0.8571428571428571,0.0004
804,0.8688585758209229,1.6527172327041626,0.6730769230769231,0.9230769230769231,0.5714285714285714,0.7857142857142857,0.0004
805,1.0053504407405853,1.538029432296753,0.5769230769230769,0.9230769230769231,0.5714285714285714,0.8571428571428571,0.0004
806,0.7201285064220428,1.491102933883667,0.7884615384615384,0.9615384615384616,0.5,0.8571428571428571,0.0004
807,0.9235474765300751,1.1196620464324951,0.6730769230769231,0.9038461538461539,0.5714285714285714,0.9285714285714286,0.0004
808,0.9248619675636292,1.1612200736999512,0.7115384615384616,0.9038461538461539,0.6428571428571429,0.9285714285714286,0.0004
809,0.8212607800960541,1.227239727973938,0.7307692307692307,0.9038461538461539,0.5,0.8571428571428571,0.0004
810,1.1153858602046967,1.114727258682251,0.6346153846153846,0.8846153846153846,0.7142857142857143,0.9285714285714286,0.0004
811,0.9314475059509277,1.777604579925537,0.6730769230769231,0.9230769230769231,0.42857142857142855,0.7857142857142857,0.0004
812,0.8136753141880035,1.3781265020370483,0.75,0.9615384615384616,0.5714285714285714,0.8571428571428571,0.0004
813,1.060794711112976,1.9809789657592773,0.6730769230769231,0.9230769230769231,0.42857142857142855,0.8571428571428571,0.0004
814,0.7476991415023804,1.2739423513412476,0.7307692307692307,0.9423076923076923,0.5,0.9285714285714286,0.0004
815,0.706432044506073,1.5665409564971924,0.7115384615384616,0.9615384615384616,0.42857142857142855,0.7857142857142857,0.0004
816,0.8468998670578003,1.045565128326416,0.7115384615384616,0.9423076923076923,0.6428571428571429,0.9285714285714286,0.0004
817,0.916379451751709,1.558201551437378,0.5961538461538461,0.9230769230769231,0.5,0.8571428571428571,0.0004
818,0.9438896477222443,1.5067501068115234,0.6538461538461539,0.9423076923076923,0.42857142857142855,0.8571428571428571,0.0004
819,0.9877822399139404,1.1283488273620605,0.5961538461538461,0.9230769230769231,0.6428571428571429,0.8571428571428571,0.0004
820,1.0383641123771667,1.1242597103118896,0.6153846153846154,0.8653846153846154,0.6428571428571429,0.8571428571428571,0.0004
821,0.966213196516037,1.523576259613037,0.6538461538461539,0.8846153846153846,0.5714285714285714,0.8571428571428571,0.0004
822,0.9552215337753296,1.2765060663223267,0.6923076923076923,0.9423076923076923,0.6428571428571429,0.7857142857142857,0.0004
823,1.1861284375190735,1.1933643817901611,0.5576923076923077,0.9038461538461539,0.6428571428571429,0.8571428571428571,0.0004
824,0.8259349465370178,1.191352367401123,0.7115384615384616,0.9423076923076923,0.5714285714285714,0.8571428571428571,0.0004
825,0.7441869974136353,1.2699451446533203,0.7115384615384616,0.9615384615384616,0.5,0.8571428571428571,0.0004
826,0.9344136118888855,1.1224658489227295,0.7307692307692307,0.9038461538461539,0.5,0.8571428571428571,0.0004
827,0.867504894733429,1.595636010169983,0.6538461538461539,0.9230769230769231,0.5,0.8571428571428571,0.0004
828,1.3040578961372375,1.7146328687667847,0.5769230769230769,0.8846153846153846,0.5,0.7142857142857143,0.0004
829,0.8659451007843018,1.326967716217041,0.7307692307692307,0.9423076923076923,0.6428571428571429,0.8571428571428571,0.0004
830,1.0034717917442322,1.3688130378723145,0.6923076923076923,0.9423076923076923,0.42857142857142855,0.8571428571428571,0.0004
831,0.9648999571800232,1.4551997184753418,0.6538461538461539,0.9615384615384616,0.5714285714285714,0.7857142857142857,0.0004
832,0.9489698708057404,1.1234973669052124,0.6730769230769231,0.8846153846153846,0.6428571428571429,0.9285714285714286,0.0004
833,1.1065407395362854,0.9880441427230835,0.6153846153846154,0.9038461538461539,0.7142857142857143,0.9285714285714286,0.0004
834,0.8768467009067535,1.4584743976593018,0.75,0.9038461538461539,0.5,0.8571428571428571,0.0004
835,0.9503582119941711,1.5171144008636475,0.6923076923076923,0.9038461538461539,0.5,0.7857142857142857,0.0004
836,0.7119980454444885,1.092393159866333,0.7307692307692307,0.9423076923076923,0.5714285714285714,0.9285714285714286,0.0004
837,0.935327410697937,1.2835347652435303,0.6346153846153846,0.8846153846153846,0.7142857142857143,0.7857142857142857,0.0004
838,0.9197568595409393,1.2955951690673828,0.6538461538461539,0.9423076923076923,0.42857142857142855,0.8571428571428571,0.0004
839,0.920096755027771,1.3439000844955444,0.6923076923076923,0.9038461538461539,0.6428571428571429,0.7857142857142857,0.0004
840,0.8879911303520203,1.0665744543075562,0.6538461538461539,0.9423076923076923,0.5714285714285714,0.8571428571428571,0.0004
841,0.7837215960025787,0.8514823317527771,0.8269230769230769,0.9230769230769231,0.7142857142857143,0.9285714285714286,0.0004
842,1.133589506149292,0.9282684326171875,0.5576923076923077,0.9423076923076923,0.7142857142857143,0.9285714285714286,0.0004
843,0.8500807583332062,1.2434860467910767,0.7692307692307693,0.9230769230769231,0.5,0.8571428571428571,0.0004
844,0.9050760269165039,1.2783832550048828,0.6538461538461539,0.9615384615384616,0.5,0.7857142857142857,0.0004
845,0.9178792834281921,1.3556829690933228,0.6538461538461539,0.9230769230769231,0.5,0.7857142857142857,0.0004
846,0.9433806538581848,1.5485432147979736,0.6346153846153846,0.9038461538461539,0.5,0.7857142857142857,0.0004
847,1.1392245590686798,0.9891600608825684,0.5961538461538461,0.8846153846153846,0.8571428571428571,0.9285714285714286,0.0004
848,0.8823439180850983,1.0460867881774902,0.7307692307692307,0.9423076923076923,0.6428571428571429,0.9285714285714286,0.0004
849,0.9877699911594391,1.0633326768875122,0.6538461538461539,0.9230769230769231,0.6428571428571429,0.9285714285714286,0.0004
850,0.9718442559242249,1.3905973434448242,0.6538461538461539,0.9615384615384616,0.5,0.8571428571428571,0.0004
851,0.9465226531028748,1.7322596311569214,0.6538461538461539,0.9230769230769231,0.5,0.7142857142857143,0.0004
852,0.7237587571144104,2.1793434619903564,0.75,0.9423076923076923,0.2857142857142857,0.6428571428571429,0.0004
853,0.9091925919055939,0.9963645339012146,0.7115384615384616,0.9615384615384616,0.7142857142857143,0.9285714285714286,0.0004
854,0.9363200664520264,1.522122859954834,0.6538461538461539,0.9423076923076923,0.5714285714285714,0.8571428571428571,0.0004
855,0.7585674822330475,1.2008132934570312,0.7692307692307693,0.9807692307692307,0.5,0.8571428571428571,0.0004
856,0.944679319858551,1.1965889930725098,0.6346153846153846,0.9230769230769231,0.7142857142857143,0.8571428571428571,0.0004
857,0.7218746840953827,1.723299264907837,0.7307692307692307,0.9423076923076923,0.5,0.8571428571428571,0.0004
858,1.0247087180614471,1.3452802896499634,0.7115384615384616,0.8846153846153846,0.5,0.7857142857142857,0.0004
859,0.8433791995048523,1.7004377841949463,0.6730769230769231,0.9423076923076923,0.42857142857142855,0.8571428571428571,0.0004
860,1.177755892276764,1.1532483100891113,0.6730769230769231,0.8461538461538461,0.5,0.8571428571428571,0.0004
861,1.0990116596221924,1.6531492471694946,0.6346153846153846,0.8846153846153846,0.5714285714285714,0.8571428571428571,0.0004
862,1.1026869416236877,1.3554885387420654,0.6153846153846154,0.8653846153846154,0.5714285714285714,0.7857142857142857,0.0004
863,0.7913523316383362,1.4774672985076904,0.6730769230769231,0.9807692307692307,0.6428571428571429,0.7142857142857143,0.0004
864,0.7704429030418396,1.156383752822876,0.7307692307692307,0.9615384615384616,0.5714285714285714,0.8571428571428571,0.0004
865,0.8407219350337982,1.502606987953186,0.6730769230769231,0.9423076923076923,0.5714285714285714,0.7857142857142857,0.0004
866,1.2012207508087158,1.1164922714233398,0.5961538461538461,0.8461538461538461,0.7857142857142857,0.9285714285714286,0.0004
867,1.2850769758224487,1.3833624124526978,0.5,0.8461538461538461,0.5,0.8571428571428571,0.0004
868,1.0084944069385529,1.0921581983566284,0.6538461538461539,0.9615384615384616,0.5714285714285714,0.8571428571428571,0.0004
869,1.142502248287201,1.6391265392303467,0.6346153846153846,0.8461538461538461,0.5,0.8571428571428571,0.0004
870,0.893582671880722,1.1969139575958252,0.7884615384615384,0.9038461538461539,0.7857142857142857,0.8571428571428571,0.0004
871,1.21099454164505,1.2142863273620605,0.5961538461538461,0.8846153846153846,0.5,0.8571428571428571,0.0004
872,1.0322907865047455,1.1751679182052612,0.6538461538461539,0.8846153846153846,0.5714285714285714,0.8571428571428571,0.0004
873,0.8734804391860962,1.486163854598999,0.6730769230769231,0.9807692307692307,0.42857142857142855,0.7142857142857143,0.0004
874,1.1367796063423157,1.5994653701782227,0.5769230769230769,0.9038461538461539,0.2857142857142857,0.6428571428571429,0.0004
875,0.7825447022914886,1.7062633037567139,0.7307692307692307,0.9615384615384616,0.42857142857142855,0.7142857142857143,0.0004
876,0.9062286913394928,1.0276843309402466,0.6538461538461539,0.9615384615384616,0.7142857142857143,0.8571428571428571,0.0004
877,0.9017566442489624,0.9369722008705139,0.6923076923076923,0.9807692307692307,0.6428571428571429,0.8571428571428571,0.0004
878,1.1273984909057617,1.6847434043884277,0.6346153846153846,0.9038461538461539,0.42857142857142855,0.7142857142857143,0.0004
879,0.9823316037654877,1.2304291725158691,0.7115384615384616,0.9423076923076923,0.5714285714285714,0.8571428571428571,0.0004
880,0.8731932938098907,1.712720513343811,0.6730769230769231,0.9423076923076923,0.42857142857142855,0.8571428571428571,0.0004
881,0.781552255153656,1.1333940029144287,0.75,0.9807692307692307,0.6428571428571429,0.8571428571428571,0.0004
882,0.8466135859489441,1.0217852592468262,0.7307692307692307,0.9423076923076923,0.6428571428571429,0.8571428571428571,0.0004
883,0.8299073874950409,1.2428300380706787,0.7307692307692307,0.9230769230769231,0.42857142857142855,0.8571428571428571,0.0004
884,0.8854472041130066,1.1508550643920898,0.6923076923076923,0.9423076923076923,0.5714285714285714,0.8571428571428571,0.0004
885,0.8940075933933258,0.8884760141372681,0.6538461538461539,0.9423076923076923,0.7142857142857143,0.8571428571428571,0.0004
886,0.826625257730484,0.8965485692024231,0.6730769230769231,0.9615384615384616,0.7142857142857143,0.8571428571428571,0.0004
887,1.0577711462974548,1.4226889610290527,0.6538461538461539,0.8653846153846154,0.5714285714285714,0.8571428571428571,0.0004
888,0.9028094410896301,1.0589922666549683,0.75,0.8846153846153846,0.7857142857142857,0.8571428571428571,0.0004
889,0.9212503135204315,1.2050050497055054,0.6923076923076923,0.9615384615384616,0.5714285714285714,0.9285714285714286,0.0004
890,0.7587689459323883,1.183472990989685,0.7307692307692307,0.9423076923076923,0.7857142857142857,0.8571428571428571,0.0004
891,1.0661970376968384,1.855499029159546,0.6538461538461539,0.9038461538461539,0.5,0.8571428571428571,0.0004
892,0.9201871156692505,1.0603657960891724,0.6923076923076923,0.9230769230769231,0.7142857142857143,0.8571428571428571,0.0004
893,0.9418288767337799,2.0291075706481934,0.6153846153846154,0.9615384615384616,0.35714285714285715,0.7857142857142857,0.0004
894,0.9726904034614563,1.6713836193084717,0.6153846153846154,0.9230769230769231,0.5714285714285714,0.8571428571428571,0.0004
895,0.7426463067531586,1.4767937660217285,0.7115384615384616,0.9230769230769231,0.5,0.8571428571428571,0.0004
896,1.209524154663086,1.420837640762329,0.5769230769230769,0.8461538461538461,0.42857142857142855,0.8571428571428571,0.0004
897,0.7472716569900513,0.8823884725570679,0.7115384615384616,0.9807692307692307,0.7857142857142857,0.9285714285714286,0.0004
898,1.0299087166786194,0.7328077554702759,0.6153846153846154,0.8653846153846154,0.8571428571428571,0.9285714285714286,0.0004
899,0.7996938228607178,0.8242253661155701,0.75,0.9807692307692307,0.7857142857142857,0.9285714285714286,0.0004
900,0.9402732849121094,1.1658204793930054,0.6153846153846154,0.9615384615384616,0.5714285714285714,0.8571428571428571,0.0004
901,0.9200058281421661,1.0669630765914917,0.6346153846153846,0.9230769230769231,0.6428571428571429,0.8571428571428571,0.0004
902,0.8381112515926361,1.2553324699401855,0.6538461538461539,0.9230769230769231,0.5,0.8571428571428571,0.0004
903,0.9954741597175598,1.515316128730774,0.6346153846153846,0.9038461538461539,0.5,0.7857142857142857,0.0004
904,0.8304718136787415,1.1561036109924316,0.6538461538461539,0.9230769230769231,0.6428571428571429,0.8571428571428571,0.0004
905,0.760650098323822,1.4586881399154663,0.7115384615384616,0.9423076923076923,0.5,0.7857142857142857,0.0004
906,0.6331100761890411,1.398230791091919,0.8076923076923077,1.0,0.42857142857142855,0.7142857142857143,0.0004
907,0.7950188219547272,1.670851230621338,0.7307692307692307,0.9423076923076923,0.6428571428571429,0.8571428571428571,0.0004
908,0.8490005433559418,1.6557486057281494,0.7692307692307693,0.9230769230769231,0.5714285714285714,0.8571428571428571,0.0004
909,0.9973284602165222,1.6362106800079346,0.7307692307692307,0.9038461538461539,0.6428571428571429,0.8571428571428571,0.0004
910,0.7412304282188416,1.0979992151260376,0.7307692307692307,0.9423076923076923,0.7142857142857143,0.7857142857142857,0.0004
911,0.8090364634990692,1.1942851543426514,0.6923076923076923,0.9423076923076923,0.5714285714285714,0.8571428571428571,0.0004
912,0.8368807435035706,1.049548625946045,0.6730769230769231,0.9230769230769231,0.7142857142857143,0.8571428571428571,0.0004
913,0.775521993637085,1.4001400470733643,0.75,0.9423076923076923,0.5714285714285714,0.9285714285714286,0.0004
914,0.929593414068222,1.3031210899353027,0.7307692307692307,0.9038461538461539,0.5714285714285714,0.8571428571428571,0.0004
915,0.8652014434337616,1.1138622760772705,0.7692307692307693,0.8846153846153846,0.7142857142857143,0.8571428571428571,0.0004
916,1.0670735538005829,1.0177028179168701,0.6346153846153846,0.8653846153846154,0.6428571428571429,0.9285714285714286,0.0004
917,0.7265936136245728,1.542884349822998,0.8076923076923077,0.9615384615384616,0.5,0.8571428571428571,0.0004
918,0.9221078753471375,1.5087906122207642,0.6730769230769231,0.9038461538461539,0.5,0.8571428571428571,0.0004
919,0.7382397055625916,1.683271050453186,0.6923076923076923,0.9615384615384616,0.5,0.8571428571428571,0.0004
920,0.8927691280841827,0.8693239688873291,0.6923076923076923,0.9615384615384616,0.7857142857142857,0.9285714285714286,0.0004
921,0.6130839884281158,1.1327581405639648,0.8076923076923077,0.9807692307692307,0.7857142857142857,0.7857142857142857,0.0004
922,1.0386780500411987,1.4711545705795288,0.6923076923076923,0.9230769230769231,0.6428571428571429,0.7857142857142857,0.0004
923,0.7179690599441528,1.4158110618591309,0.75,0.9615384615384616,0.5714285714285714,0.7857142857142857,0.0004
924,0.8236386477947235,1.1282888650894165,0.7115384615384616,0.9038461538461539,0.7142857142857143,0.9285714285714286,0.0004
925,0.7156067192554474,0.8342692852020264,0.75,0.9807692307692307,0.6428571428571429,0.9285714285714286,0.0004
926,1.0495290160179138,1.404362440109253,0.7692307692307693,0.9230769230769231,0.5,0.8571428571428571,0.0004
927,0.8355000764131546,1.3702867031097412,0.7115384615384616,0.9230769230769231,0.5714285714285714,0.7857142857142857,0.0004
928,1.0842114686965942,1.416867733001709,0.6153846153846154,0.8846153846153846,0.5,0.7857142857142857,0.0004
929,0.7243079245090485,2.0086681842803955,0.7307692307692307,0.9038461538461539,0.5714285714285714,0.8571428571428571,0.0004
930,0.8006716966629028,1.465951919555664,0.7115384615384616,0.9038461538461539,0.42857142857142855,0.7857142857142857,0.0004
931,0.8373125791549683,1.4050859212875366,0.6730769230769231,0.9230769230769231,0.5714285714285714,0.8571428571428571,0.0004
932,0.9434045255184174,1.2722892761230469,0.6538461538461539,0.9038461538461539,0.42857142857142855,0.8571428571428571,0.0004
933,0.9819912910461426,1.0518596172332764,0.5961538461538461,0.9807692307692307,0.6428571428571429,0.8571428571428571,0.0004
934,0.9715622067451477,1.6096962690353394,0.6923076923076923,0.9038461538461539,0.5714285714285714,0.9285714285714286,0.0004
935,0.8800754249095917,1.108149766921997,0.7307692307692307,0.9230769230769231,0.5714285714285714,0.7857142857142857,0.0004
936,1.0795283913612366,1.2299609184265137,0.6346153846153846,0.9230769230769231,0.6428571428571429,0.8571428571428571,0.0004
937,0.8660954833030701,1.077677845954895,0.7307692307692307,0.9615384615384616,0.7142857142857143,0.8571428571428571,0.0004
938,0.9313616752624512,1.257709264755249,0.6923076923076923,0.9230769230769231,0.6428571428571429,0.7142857142857143,0.0004
939,0.8399283289909363,1.2568498849868774,0.7115384615384616,0.9423076923076923,0.7142857142857143,0.9285714285714286,0.0004
940,0.8843261897563934,1.4176338911056519,0.6730769230769231,0.9423076923076923,0.5,0.7142857142857143,0.0004
941,0.817816823720932,1.4892057180404663,0.75,0.9423076923076923,0.42857142857142855,0.7857142857142857,0.0004
942,0.7398464381694794,1.734850287437439,0.75,0.9807692307692307,0.6428571428571429,0.7857142857142857,0.0004
943,0.6810286939144135,0.9702084064483643,0.7884615384615384,0.9615384615384616,0.7142857142857143,0.9285714285714286,0.0004
944,0.9550922214984894,1.3861324787139893,0.6346153846153846,0.9038461538461539,0.5714285714285714,0.7857142857142857,0.0004
945,1.002587765455246,1.137990951538086,0.6153846153846154,0.9423076923076923,0.6428571428571429,0.8571428571428571,0.0004
946,0.7967237830162048,1.5700442790985107,0.6923076923076923,0.9230769230769231,0.42857142857142855,0.7857142857142857,0.0004
947,0.7503070831298828,1.2167401313781738,0.7884615384615384,0.9230769230769231,0.6428571428571429,0.8571428571428571,0.0004
948,1.0002236068248749,1.8503150939941406,0.6346153846153846,0.9423076923076923,0.5,0.7857142857142857,0.0004
949,1.0487379729747772,1.2841888666152954,0.5769230769230769,0.9038461538461539,0.6428571428571429,0.8571428571428571,0.0004
950,1.0137993097305298,1.6055068969726562,0.6538461538461539,0.9038461538461539,0.42857142857142855,0.7857142857142857,0.0004
951,0.7750515341758728,1.2582284212112427,0.7307692307692307,0.9807692307692307,0.5,0.8571428571428571,0.0004
952,0.8015536367893219,1.3818960189819336,0.6923076923076923,0.9230769230769231,0.5,0.8571428571428571,0.0004
953,0.7511951625347137,1.3975605964660645,0.7307692307692307,0.9423076923076923,0.5714285714285714,0.8571428571428571,0.0004
954,0.7957932949066162,1.564154028892517,0.6346153846153846,0.9807692307692307,0.5,0.8571428571428571,0.0004
955,0.9406412541866302,0.9539885520935059,0.6730769230769231,0.9230769230769231,0.6428571428571429,0.9285714285714286,0.0004
956,0.7304307818412781,1.2138524055480957,0.7115384615384616,0.9807692307692307,0.6428571428571429,0.7857142857142857,0.0004
957,0.7731065154075623,1.159743309020996,0.6538461538461539,0.9615384615384616,0.6428571428571429,0.8571428571428571,0.0004
958,0.8943996727466583,1.5527384281158447,0.6730769230769231,0.9230769230769231,0.5,0.7857142857142857,0.0004
959,1.0756755471229553,1.2883963584899902,0.6153846153846154,0.8653846153846154,0.5714285714285714,0.8571428571428571,0.0004
960,0.7971687912940979,1.4328374862670898,0.75,0.9230769230769231,0.5,0.7857142857142857,0.0004
961,1.159609854221344,1.8406543731689453,0.6346153846153846,0.8653846153846154,0.42857142857142855,0.7142857142857143,0.0004
962,0.8871910274028778,1.3502637147903442,0.6346153846153846,0.9230769230769231,0.7142857142857143,0.7857142857142857,0.0004
963,1.0642437934875488,1.0819915533065796,0.6153846153846154,0.9230769230769231,0.7142857142857143,0.7857142857142857,0.0004
964,0.959921270608902,1.1208884716033936,0.6346153846153846,0.9230769230769231,0.6428571428571429,0.9285714285714286,0.0004
965,0.7736201286315918,1.2470672130584717,0.7692307692307693,0.9423076923076923,0.6428571428571429,0.9285714285714286,0.0004
966,0.8449438810348511,1.6300883293151855,0.7115384615384616,0.9038461538461539,0.5714285714285714,0.8571428571428571,0.0004
967,0.9127190411090851,1.2165385484695435,0.7307692307692307,0.9230769230769231,0.7142857142857143,0.8571428571428571,0.0004
968,0.868797779083252,1.3467384576797485,0.6730769230769231,0.9230769230769231,0.5,0.7857142857142857,0.0004
969,1.0303534865379333,1.4552943706512451,0.6346153846153846,0.8846153846153846,0.5714285714285714,0.7857142857142857,0.0004
970,0.8824321031570435,1.2729761600494385,0.6923076923076923,0.9615384615384616,0.6428571428571429,0.7857142857142857,0.0004
971,0.9840065836906433,0.6362779140472412,0.6538461538461539,0.9230769230769231,0.8571428571428571,0.9285714285714286,0.0004
972,0.6794366538524628,0.8313225507736206,0.6923076923076923,0.9807692307692307,0.6428571428571429,0.9285714285714286,0.0004
973,0.8477206528186798,1.3761155605316162,0.5961538461538461,0.9615384615384616,0.5,0.8571428571428571,0.0004
974,1.1112855672836304,0.9077012538909912,0.6346153846153846,0.8846153846153846,0.7142857142857143,0.9285714285714286,0.0004
975,0.9872139990329742,1.0933855772018433,0.6923076923076923,0.8653846153846154,0.7142857142857143,0.8571428571428571,0.0004
976,0.7644055187702179,1.0573753118515015,0.7692307692307693,0.9230769230769231,0.7142857142857143,0.9285714285714286,0.0004
977,0.8357232809066772,1.1829986572265625,0.6730769230769231,0.9230769230769231,0.6428571428571429,0.8571428571428571,0.0004
978,0.9290030300617218,1.0340826511383057,0.6923076923076923,0.9615384615384616,0.7142857142857143,0.9285714285714286,0.0004
979,0.833010733127594,1.1376769542694092,0.6538461538461539,0.9807692307692307,0.5,0.8571428571428571,0.0004
980,0.9041454792022705,1.394822597503662,0.6923076923076923,0.9423076923076923,0.6428571428571429,0.8571428571428571,0.0004
981,1.01707261800766,0.9282992482185364,0.6923076923076923,0.8846153846153846,0.6428571428571429,0.9285714285714286,0.0004
982,0.9915540218353271,1.2773072719573975,0.6346153846153846,0.8653846153846154,0.5714285714285714,0.8571428571428571,0.0004
983,0.8968480825424194,0.8618133664131165,0.7307692307692307,0.9230769230769231,0.7142857142857143,0.9285714285714286,0.0004
