epoch,train_loss,val_loss,train_acc_action,train_acc_status,val_acc_action,val_acc_status,learning_rate
1,1.8021390438079834,1.8027455806732178,0.36538461538461536,0.17307692307692307,0.21428571428571427,0.5,0.0004
2,1.7805651426315308,1.7872514724731445,0.36538461538461536,0.8269230769230769,0.21428571428571427,0.8571428571428571,0.0004
3,1.766414761543274,1.7718911170959473,0.36538461538461536,0.8269230769230769,0.21428571428571427,0.8571428571428571,0.0004
4,1.7441059350967407,1.7538200616836548,0.36538461538461536,0.8269230769230769,0.21428571428571427,0.8571428571428571,0.0004
5,1.7202732563018799,1.7240285873413086,0.36538461538461536,0.8269230769230769,0.21428571428571427,0.8571428571428571,0.0004
6,1.684401273727417,1.7083009481430054,0.36538461538461536,0.8269230769230769,0.21428571428571427,0.8571428571428571,0.0004
7,1.6542596817016602,1.6706464290618896,0.38461538461538464,0.8269230769230769,0.21428571428571427,0.8571428571428571,0.0004
8,1.6349462270736694,1.6331223249435425,0.38461538461538464,0.8269230769230769,0.21428571428571427,0.8571428571428571,0.0004
9,1.571930170059204,1.5538771152496338,0.36538461538461536,0.8269230769230769,0.21428571428571427,0.8571428571428571,0.0004
10,1.5652726888656616,1.5389007329940796,0.38461538461538464,0.8269230769230769,0.21428571428571427,0.8571428571428571,0.0004
11,1.4728167057037354,1.50570547580719,0.40384615384615385,0.8269230769230769,0.35714285714285715,0.8571428571428571,0.0004
12,1.4621413350105286,1.52229905128479,0.4423076923076923,0.8269230769230769,0.42857142857142855,0.8571428571428571,0.0004
13,1.5354814529418945,1.5324832201004028,0.46153846153846156,0.8269230769230769,0.21428571428571427,0.8571428571428571,0.0004
14,1.5780752897262573,1.5300838947296143,0.4230769230769231,0.8269230769230769,0.21428571428571427,0.8571428571428571,0.0004
15,1.4746562242507935,1.4712917804718018,0.5192307692307693,0.8269230769230769,0.2857142857142857,0.8571428571428571,0.0004
16,1.435446858406067,1.5180957317352295,0.40384615384615385,0.8269230769230769,0.21428571428571427,0.8571428571428571,0.0004
17,1.449968159198761,1.4874422550201416,0.4230769230769231,0.8269230769230769,0.35714285714285715,0.8571428571428571,0.0004
18,1.4650668501853943,1.5409423112869263,0.4423076923076923,0.8269230769230769,0.42857142857142855,0.8571428571428571,0.0004
19,1.4287574887275696,1.4509546756744385,0.5192307692307693,0.8269230769230769,0.21428571428571427,0.8571428571428571,0.0004
20,1.425133228302002,1.4485032558441162,0.5384615384615384,0.8269230769230769,0.35714285714285715,0.8571428571428571,0.0004
21,1.3735457062721252,1.5819756984710693,0.5192307692307693,0.8269230769230769,0.2857142857142857,0.8571428571428571,0.0004
22,1.451094388961792,1.4880825281143188,0.4230769230769231,0.8269230769230769,0.35714285714285715,0.8571428571428571,0.0004
23,1.3766830563545227,1.4693496227264404,0.4230769230769231,0.8269230769230769,0.21428571428571427,0.8571428571428571,0.0004
24,1.3593650460243225,1.5875500440597534,0.5384615384615384,0.8269230769230769,0.21428571428571427,0.8571428571428571,0.0004
25,1.3154404163360596,1.519087791442871,0.5,0.8269230769230769,0.35714285714285715,0.8571428571428571,0.0004
26,1.4237260818481445,1.5667893886566162,0.4423076923076923,0.8269230769230769,0.5,0.8571428571428571,0.0004
27,1.3782145977020264,1.4523391723632812,0.5384615384615384,0.8269230769230769,0.5714285714285714,0.8571428571428571,0.0004
28,1.3417136669158936,1.5490431785583496,0.5384615384615384,0.8269230769230769,0.35714285714285715,0.8571428571428571,0.0004
29,1.3498557806015015,1.4906775951385498,0.5192307692307693,0.8269230769230769,0.5714285714285714,0.8571428571428571,0.0004
30,1.2591345310211182,1.2915318012237549,0.5769230769230769,0.8269230769230769,0.42857142857142855,0.8571428571428571,0.0004
31,1.3912829756736755,1.495303750038147,0.4807692307692308,0.8269230769230769,0.5,0.8571428571428571,0.0004
32,1.3177764415740967,1.4450167417526245,0.4807692307692308,0.8269230769230769,0.5,0.8571428571428571,0.0004
33,1.3360478281974792,1.3537914752960205,0.5576923076923077,0.8269230769230769,0.5,0.8571428571428571,0.0004
34,1.339240312576294,1.484873652458191,0.46153846153846156,0.8269230769230769,0.5,0.8571428571428571,0.0004
35,1.3164766430854797,1.405461072921753,0.5192307692307693,0.8269230769230769,0.42857142857142855,0.8571428571428571,0.0004
36,1.3610783815383911,1.4658150672912598,0.46153846153846156,0.8269230769230769,0.42857142857142855,0.8571428571428571,0.0004
37,1.219951570034027,1.6081775426864624,0.5961538461538461,0.8269230769230769,0.2857142857142857,0.8571428571428571,0.0004
38,1.3752627968788147,1.4368783235549927,0.5,0.8269230769230769,0.5,0.8571428571428571,0.0004
39,1.422042965888977,1.5830509662628174,0.5,0.8269230769230769,0.42857142857142855,0.8571428571428571,0.0004
40,1.352213978767395,1.4200533628463745,0.46153846153846156,0.8269230769230769,0.42857142857142855,0.8571428571428571,0.0004
41,1.3684121370315552,1.347351312637329,0.38461538461538464,0.8269230769230769,0.5714285714285714,0.8571428571428571,0.0004
42,1.3409834504127502,1.5397777557373047,0.5,0.8269230769230769,0.42857142857142855,0.8571428571428571,0.0004
43,1.340835988521576,1.5281494855880737,0.5,0.8269230769230769,0.42857142857142855,0.8571428571428571,0.0004
44,1.24155592918396,1.371112585067749,0.5769230769230769,0.8269230769230769,0.5714285714285714,0.8571428571428571,0.0004
45,1.2205739617347717,1.4283583164215088,0.5961538461538461,0.8269230769230769,0.42857142857142855,0.8571428571428571,0.0004
46,1.2011173963546753,1.458694577217102,0.5961538461538461,0.8269230769230769,0.42857142857142855,0.8571428571428571,0.0004
47,1.319490909576416,1.5751004219055176,0.5576923076923077,0.8269230769230769,0.35714285714285715,0.8571428571428571,0.0004
48,1.2774713039398193,1.5315325260162354,0.5192307692307693,0.8269230769230769,0.2857142857142857,0.8571428571428571,0.0004
49,1.3034644722938538,1.4943394660949707,0.5384615384615384,0.8269230769230769,0.42857142857142855,0.8571428571428571,0.0004
50,1.3364917635917664,1.724069356918335,0.5192307692307693,0.8269230769230769,0.5,0.8571428571428571,0.0004
51,1.1384528875350952,1.7650103569030762,0.6346153846153846,0.8269230769230769,0.5714285714285714,0.8571428571428571,0.0004
52,1.3315327167510986,1.7812764644622803,0.5576923076923077,0.8269230769230769,0.35714285714285715,0.8571428571428571,0.0004
53,1.2378612756729126,1.5226893424987793,0.5576923076923077,0.8269230769230769,0.5,0.8571428571428571,0.0004
54,1.313175916671753,1.446657419204712,0.5192307692307693,0.8269230769230769,0.5714285714285714,0.8571428571428571,0.0004
55,1.3079004287719727,1.4092134237289429,0.4807692307692308,0.8269230769230769,0.5,0.8571428571428571,0.0004
56,1.3758256435394287,1.3597521781921387,0.5,0.8269230769230769,0.5714285714285714,0.8571428571428571,0.0004
57,1.361931324005127,1.3666056394577026,0.46153846153846156,0.8269230769230769,0.5714285714285714,0.8571428571428571,0.0004
58,1.324499487876892,1.316112756729126,0.4807692307692308,0.8269230769230769,0.5714285714285714,0.8571428571428571,0.0004
59,1.4956220388412476,1.4687470197677612,0.4807692307692308,0.8269230769230769,0.5,0.8571428571428571,0.0004
60,1.3874757289886475,1.3324631452560425,0.5384615384615384,0.8269230769230769,0.6428571428571429,0.8571428571428571,0.0004
61,1.2670135498046875,1.4896914958953857,0.6153846153846154,0.8269230769230769,0.2857142857142857,0.8571428571428571,0.0004
62,1.1744341850280762,1.4714555740356445,0.6923076923076923,0.8269230769230769,0.5,0.8571428571428571,0.0004
63,1.308548390865326,1.4104704856872559,0.5,0.8269230769230769,0.42857142857142855,0.8571428571428571,0.0004
64,1.3126903176307678,1.5161535739898682,0.5576923076923077,0.8269230769230769,0.35714285714285715,0.8571428571428571,0.0004
65,1.2940531373023987,1.5474212169647217,0.5384615384615384,0.8269230769230769,0.35714285714285715,0.8571428571428571,0.0004
66,1.2033845782279968,1.5989986658096313,0.6346153846153846,0.8269230769230769,0.42857142857142855,0.8571428571428571,0.0004
67,1.1619510054588318,1.5996825695037842,0.6923076923076923,0.8269230769230769,0.42857142857142855,0.8571428571428571,0.0004
68,1.222207486629486,1.7141218185424805,0.6153846153846154,0.8269230769230769,0.42857142857142855,0.8571428571428571,0.0004
69,1.208475649356842,1.7379143238067627,0.5576923076923077,0.8269230769230769,0.35714285714285715,0.8571428571428571,0.0004
70,1.297835350036621,1.4541007280349731,0.5576923076923077,0.8269230769230769,0.5,0.8571428571428571,0.0004
71,1.2734951376914978,1.5031564235687256,0.5769230769230769,0.8269230769230769,0.2857142857142857,0.8571428571428571,0.0004
72,1.1816238760948181,1.668928623199463,0.6153846153846154,0.8269230769230769,0.2857142857142857,0.8571428571428571,0.0004
73,1.2000041604042053,1.649035930633545,0.5769230769230769,0.8269230769230769,0.21428571428571427,0.8571428571428571,0.0004
74,1.2390540838241577,1.4456428289413452,0.5384615384615384,0.8269230769230769,0.42857142857142855,0.8571428571428571,0.0004
75,1.1835273504257202,1.3686494827270508,0.5769230769230769,0.8269230769230769,0.35714285714285715,0.8571428571428571,0.0004
76,1.301869809627533,1.3697258234024048,0.5961538461538461,0.8269230769230769,0.5,0.8571428571428571,0.0004
77,1.207446277141571,1.3629921674728394,0.5576923076923077,0.8269230769230769,0.35714285714285715,0.8571428571428571,0.0004
78,1.251040756702423,1.353525996208191,0.5192307692307693,0.8269230769230769,0.42857142857142855,0.8571428571428571,0.0004
79,1.245591402053833,1.534285306930542,0.5384615384615384,0.8269230769230769,0.42857142857142855,0.8571428571428571,0.0004
80,1.2756754755973816,1.2774333953857422,0.5192307692307693,0.8269230769230769,0.42857142857142855,0.8571428571428571,0.0004
81,1.1679165363311768,1.4866061210632324,0.6346153846153846,0.8269230769230769,0.42857142857142855,0.8571428571428571,0.0004
82,1.1310635805130005,1.6116021871566772,0.6153846153846154,0.8269230769230769,0.2857142857142857,0.8571428571428571,0.0004
83,1.0855884552001953,1.418121576309204,0.5961538461538461,0.8269230769230769,0.42857142857142855,0.8571428571428571,0.0004
84,1.2392873764038086,1.5276662111282349,0.5769230769230769,0.8269230769230769,0.35714285714285715,0.8571428571428571,0.0004
85,1.2882962226867676,1.4855802059173584,0.5384615384615384,0.8269230769230769,0.2857142857142857,0.8571428571428571,0.0004
86,1.1824893951416016,1.2909303903579712,0.5769230769230769,0.8269230769230769,0.42857142857142855,0.8571428571428571,0.0004
87,1.1838931441307068,1.3021199703216553,0.5769230769230769,0.8269230769230769,0.5,0.8571428571428571,0.0004
88,1.104613721370697,1.4854187965393066,0.75,0.8269230769230769,0.21428571428571427,0.8571428571428571,0.0004
89,1.1440136432647705,1.2636555433273315,0.6538461538461539,0.8269230769230769,0.5,0.8571428571428571,0.0004
90,1.1258670091629028,1.2805418968200684,0.5576923076923077,0.8269230769230769,0.35714285714285715,0.8571428571428571,0.0004
91,1.1154178977012634,1.3447496891021729,0.5769230769230769,0.8269230769230769,0.42857142857142855,0.8571428571428571,0.0004
92,1.1306873559951782,1.6183290481567383,0.5192307692307693,0.8269230769230769,0.2857142857142857,0.8571428571428571,0.0004
93,1.2475048899650574,1.3350110054016113,0.46153846153846156,0.8269230769230769,0.35714285714285715,0.8571428571428571,0.0004
94,1.088046669960022,1.3571614027023315,0.6346153846153846,0.8269230769230769,0.5,0.8571428571428571,0.0004
95,1.0649755001068115,1.561576247215271,0.7307692307692307,0.8269230769230769,0.2857142857142857,0.8571428571428571,0.0004
96,1.111877977848053,1.267736792564392,0.6346153846153846,0.8269230769230769,0.42857142857142855,0.8571428571428571,0.0004
97,1.0331806540489197,1.3572816848754883,0.6346153846153846,0.8269230769230769,0.2857142857142857,0.8571428571428571,0.0004
98,1.1361840963363647,1.5085129737854004,0.6153846153846154,0.8269230769230769,0.5,0.8571428571428571,0.0004
99,1.031269133090973,1.6679511070251465,0.7307692307692307,0.8269230769230769,0.14285714285714285,0.8571428571428571,0.0004
100,1.1097861528396606,1.1798853874206543,0.6346153846153846,0.8269230769230769,0.42857142857142855,0.8571428571428571,0.0004
101,1.1217937469482422,1.3777117729187012,0.5576923076923077,0.8269230769230769,0.5714285714285714,0.8571428571428571,0.0004
102,1.0905563831329346,1.2297803163528442,0.6346153846153846,0.8269230769230769,0.5714285714285714,0.8571428571428571,0.0004
103,1.1739404201507568,1.4547821283340454,0.6153846153846154,0.8269230769230769,0.6428571428571429,0.8571428571428571,0.0004
104,1.1085525751113892,1.5723364353179932,0.6153846153846154,0.8269230769230769,0.5,0.8571428571428571,0.0004
105,0.9842109382152557,1.1659388542175293,0.7115384615384616,0.8269230769230769,0.5714285714285714,0.8571428571428571,0.0004
106,1.10523122549057,1.7762421369552612,0.6730769230769231,0.8269230769230769,0.2857142857142857,0.8571428571428571,0.0004
107,1.0824978053569794,1.0853722095489502,0.6730769230769231,0.8269230769230769,0.7142857142857143,0.8571428571428571,0.0004
108,1.1359561383724213,1.6443265676498413,0.6730769230769231,0.8269230769230769,0.2857142857142857,0.8571428571428571,0.0004
109,1.0606910586357117,1.3511016368865967,0.75,0.8269230769230769,0.42857142857142855,0.8571428571428571,0.0004
110,0.9374921917915344,1.3285512924194336,0.75,0.8269230769230769,0.5714285714285714,0.8571428571428571,0.0004
111,0.9723983705043793,1.3696712255477905,0.6923076923076923,0.8269230769230769,0.5,0.8571428571428571,0.0004
112,0.8356664776802063,1.223530650138855,0.8076923076923077,0.8269230769230769,0.6428571428571429,0.8571428571428571,0.0004
113,0.9762734770774841,1.1100919246673584,0.6538461538461539,0.8269230769230769,0.5,0.8571428571428571,0.0004
114,1.0615718364715576,1.3419427871704102,0.6730769230769231,0.8269230769230769,0.5714285714285714,0.8571428571428571,0.0004
115,0.9712299704551697,1.0459108352661133,0.7115384615384616,0.8269230769230769,0.6428571428571429,0.8571428571428571,0.0004
116,0.986329972743988,1.2595486640930176,0.6730769230769231,0.8269230769230769,0.35714285714285715,0.8571428571428571,0.0004
117,0.9355367422103882,0.8589411973953247,0.7115384615384616,0.8269230769230769,0.6428571428571429,0.8571428571428571,0.0004
118,0.995832085609436,1.3421434164047241,0.75,0.8269230769230769,0.5,0.8571428571428571,0.0004
119,0.9441691935062408,1.3400962352752686,0.7307692307692307,0.8269230769230769,0.6428571428571429,0.8571428571428571,0.0004
120,0.9706426560878754,0.7952774167060852,0.6923076923076923,0.8269230769230769,0.7142857142857143,0.9285714285714286,0.0004
121,0.899107426404953,1.5421652793884277,0.75,0.8269230769230769,0.5714285714285714,0.7857142857142857,0.0004
122,0.9493139386177063,1.0932682752609253,0.75,0.8653846153846154,0.7857142857142857,0.8571428571428571,0.0004
123,0.8976835608482361,1.3887752294540405,0.7884615384615384,0.8269230769230769,0.5714285714285714,0.8571428571428571,0.0004
124,0.9787929058074951,1.0044183731079102,0.7692307692307693,0.8269230769230769,0.7857142857142857,0.8571428571428571,0.0004
125,0.944220244884491,1.561448097229004,0.7884615384615384,0.8461538461538461,0.6428571428571429,0.9285714285714286,0.0004
126,0.8772855401039124,1.7892515659332275,0.8269230769230769,0.8269230769230769,0.5714285714285714,0.8571428571428571,0.0004
127,1.0631956458091736,1.288356900215149,0.7307692307692307,0.8269230769230769,0.6428571428571429,0.7142857142857143,0.0004
128,0.9340338706970215,1.358581781387329,0.8461538461538461,0.8076923076923077,0.5714285714285714,0.8571428571428571,0.0004
129,0.8880825042724609,1.1386024951934814,0.75,0.8076923076923077,0.6428571428571429,0.8571428571428571,0.0004
130,0.811263382434845,1.3084051609039307,0.8076923076923077,0.8653846153846154,0.5714285714285714,0.7857142857142857,0.0004
131,0.8835833370685577,1.1194827556610107,0.75,0.8846153846153846,0.7142857142857143,0.7857142857142857,0.0004
132,1.0886266827583313,2.1007299423217773,0.7115384615384616,0.9038461538461539,0.35714285714285715,0.7857142857142857,0.0004
133,0.7676999270915985,1.5783413648605347,0.7884615384615384,0.8653846153846154,0.5,0.8571428571428571,0.0004
134,1.091186761856079,1.3856313228607178,0.5961538461538461,0.7884615384615384,0.5714285714285714,0.8571428571428571,0.0004
135,0.9410869181156158,1.4814152717590332,0.7884615384615384,0.8846153846153846,0.5714285714285714,0.7142857142857143,0.0004
136,1.0050513744354248,1.1054582595825195,0.6923076923076923,0.9615384615384616,0.5,0.7857142857142857,0.0004
137,1.153298258781433,1.5935977697372437,0.6730769230769231,0.8269230769230769,0.5,0.7857142857142857,0.0004
138,0.8306400179862976,1.3154296875,0.8076923076923077,0.7692307692307693,0.5714285714285714,0.8571428571428571,0.0004
139,0.9002504944801331,1.2073242664337158,0.75,0.8653846153846154,0.5,0.9285714285714286,0.0004
140,1.0439676642417908,0.7768563032150269,0.6346153846153846,0.8846153846153846,0.8571428571428571,0.7857142857142857,0.0004
141,0.9043043255805969,1.4034831523895264,0.7307692307692307,0.9423076923076923,0.5714285714285714,0.7142857142857143,0.0004
142,0.8370405435562134,1.071355938911438,0.7884615384615384,0.9230769230769231,0.6428571428571429,0.7857142857142857,0.0004
143,1.0228798687458038,1.0062031745910645,0.6923076923076923,0.7884615384615384,0.7142857142857143,0.7857142857142857,0.0004
144,0.8803200125694275,1.3865675926208496,0.7115384615384616,0.8846153846153846,0.5,0.8571428571428571,0.0004
145,0.793624609708786,1.6777470111846924,0.8653846153846154,0.9038461538461539,0.42857142857142855,0.7142857142857143,0.0004
146,0.9377132654190063,1.3824156522750854,0.7884615384615384,0.8653846153846154,0.5,0.7857142857142857,0.0004
147,0.9625426828861237,1.35614013671875,0.7307692307692307,0.8269230769230769,0.5,0.8571428571428571,0.0004
148,0.9761956632137299,1.0534656047821045,0.7884615384615384,0.8461538461538461,0.7142857142857143,0.7142857142857143,0.0004
149,0.8314182162284851,1.1476773023605347,0.7692307692307693,0.8653846153846154,0.6428571428571429,0.8571428571428571,0.0004
150,0.953838586807251,1.459482192993164,0.7307692307692307,0.8461538461538461,0.5714285714285714,0.7857142857142857,0.0004
151,0.8610134124755859,1.2483015060424805,0.7307692307692307,0.9230769230769231,0.7142857142857143,0.7142857142857143,0.0004
152,1.1814866065979004,1.4065649509429932,0.6346153846153846,0.8846153846153846,0.42857142857142855,0.7857142857142857,0.0004
153,0.7843329608440399,1.2649543285369873,0.75,0.8653846153846154,0.6428571428571429,0.7857142857142857,0.0004
154,0.9033800959587097,1.2907377481460571,0.8076923076923077,0.8461538461538461,0.5,0.7857142857142857,0.0004
155,0.937950998544693,1.1691458225250244,0.6923076923076923,0.8461538461538461,0.5714285714285714,0.8571428571428571,0.0004
156,0.8907294273376465,1.4594159126281738,0.8076923076923077,0.8653846153846154,0.5714285714285714,0.7857142857142857,0.0004
157,0.9330167174339294,1.317241907119751,0.7692307692307693,0.8653846153846154,0.6428571428571429,0.8571428571428571,0.0004
158,1.0637803673744202,1.4440007209777832,0.6923076923076923,0.8461538461538461,0.42857142857142855,0.8571428571428571,0.0004
159,0.8119727373123169,1.4338817596435547,0.75,0.9423076923076923,0.5714285714285714,0.7857142857142857,0.0004
160,1.0198455154895782,1.5726397037506104,0.7307692307692307,0.9230769230769231,0.5,0.7142857142857143,0.0004
161,0.7413538694381714,1.2201653718948364,0.8269230769230769,0.9038461538461539,0.6428571428571429,0.8571428571428571,0.0004
162,0.8221442103385925,0.9114764928817749,0.7692307692307693,0.9038461538461539,0.7142857142857143,0.7857142857142857,0.0004
163,0.8279658257961273,1.0136127471923828,0.7307692307692307,0.8846153846153846,0.7142857142857143,0.7142857142857143,0.0004
164,0.8077060282230377,1.842810869216919,0.8076923076923077,0.9615384615384616,0.5,0.7142857142857143,0.0004
165,0.8717829287052155,1.297532081604004,0.7307692307692307,0.9038461538461539,0.7142857142857143,0.7142857142857143,0.0004
166,0.8761665523052216,1.4720550775527954,0.8076923076923077,0.8846153846153846,0.5714285714285714,0.8571428571428571,0.0004
167,0.7755583822727203,1.2871472835540771,0.8076923076923077,0.9038461538461539,0.6428571428571429,0.7142857142857143,0.0004
168,0.8073071837425232,1.270999789237976,0.7692307692307693,0.9423076923076923,0.42857142857142855,0.8571428571428571,0.0004
169,0.9377263188362122,1.3734586238861084,0.7115384615384616,0.9230769230769231,0.5714285714285714,0.7857142857142857,0.0004
170,0.8446037173271179,1.538346767425537,0.7692307692307693,0.9423076923076923,0.5,0.7857142857142857,0.0004
171,0.7867435812950134,1.4920340776443481,0.7884615384615384,0.8653846153846154,0.5714285714285714,0.7142857142857143,0.0004
172,1.0856367945671082,0.9625088572502136,0.6923076923076923,0.8846153846153846,0.7857142857142857,0.7142857142857143,0.0004
173,0.9095667004585266,1.0697393417358398,0.75,0.8653846153846154,0.7142857142857143,0.6428571428571429,0.0004
174,0.8647981286048889,1.1492891311645508,0.7307692307692307,0.9038461538461539,0.7142857142857143,0.7857142857142857,0.0004
175,0.8246535956859589,0.9951025247573853,0.8076923076923077,0.8846153846153846,0.7142857142857143,0.7857142857142857,0.0004
176,0.7705451250076294,1.035926103591919,0.7692307692307693,0.9423076923076923,0.6428571428571429,0.8571428571428571,0.0004
177,0.8944736123085022,1.4963022470474243,0.7692307692307693,0.8846153846153846,0.5714285714285714,0.8571428571428571,0.0004
178,0.9515161514282227,1.2953414916992188,0.6538461538461539,0.9230769230769231,0.6428571428571429,0.7857142857142857,0.0004
179,0.7290305197238922,1.338231086730957,0.8269230769230769,0.8653846153846154,0.6428571428571429,0.8571428571428571,0.0004
180,0.7829029560089111,1.5078246593475342,0.75,0.9423076923076923,0.6428571428571429,0.6428571428571429,0.0004
181,0.731639176607132,1.242400884628296,0.8076923076923077,0.8269230769230769,0.5714285714285714,0.7857142857142857,0.0004
182,0.7425887882709503,1.6130954027175903,0.7692307692307693,0.8846153846153846,0.5,0.6428571428571429,0.0004
183,0.9393976926803589,1.1785907745361328,0.7884615384615384,0.7884615384615384,0.7142857142857143,0.8571428571428571,0.0004
184,1.0081411004066467,1.1034822463989258,0.6730769230769231,0.8846153846153846,0.42857142857142855,1.0,0.0004
185,1.1367100477218628,1.4397351741790771,0.6153846153846154,0.8269230769230769,0.5,0.7857142857142857,0.0004
186,1.0437609553337097,0.8309918642044067,0.6730769230769231,0.8461538461538461,0.7857142857142857,0.8571428571428571,0.0004
187,0.9185490012168884,1.1979374885559082,0.7884615384615384,0.8269230769230769,0.7857142857142857,0.6428571428571429,0.0004
188,0.7528651058673859,1.0303367376327515,0.75,0.9038461538461539,0.6428571428571429,0.8571428571428571,0.0004
189,0.8453582525253296,1.2237184047698975,0.8076923076923077,0.8269230769230769,0.6428571428571429,0.6428571428571429,0.0004
190,1.2557510137557983,0.785576581954956,0.6730769230769231,0.8269230769230769,0.7857142857142857,0.9285714285714286,0.0004
191,1.0857106745243073,0.7593722343444824,0.6923076923076923,0.7884615384615384,0.9285714285714286,0.7857142857142857,0.0004
192,0.8128727376461029,0.9708755612373352,0.7884615384615384,0.8846153846153846,0.6428571428571429,0.8571428571428571,0.0004
193,1.003922939300537,1.3803791999816895,0.6730769230769231,0.9038461538461539,0.5,0.7857142857142857,0.0004
194,0.774180680513382,1.284611701965332,0.8269230769230769,0.8846153846153846,0.5714285714285714,0.8571428571428571,0.0004
195,1.0042933225631714,1.1766746044158936,0.6923076923076923,0.8846153846153846,0.5714285714285714,0.7857142857142857,0.0004
196,0.7575756907463074,1.2519896030426025,0.7884615384615384,0.9230769230769231,0.5714285714285714,0.7857142857142857,0.0004
197,0.8978356122970581,0.9825074076652527,0.7692307692307693,0.9038461538461539,0.8571428571428571,0.7142857142857143,0.0004
198,0.7975188493728638,1.0703339576721191,0.7692307692307693,0.8846153846153846,0.5714285714285714,0.7857142857142857,0.0004
199,0.7706632912158966,0.8314292430877686,0.8076923076923077,0.8653846153846154,0.7142857142857143,0.8571428571428571,0.0004
200,1.0590124428272247,1.108323097229004,0.6730769230769231,0.8653846153846154,0.5,0.9285714285714286,0.0004
201,0.8300519585609436,1.2920236587524414,0.8269230769230769,0.8076923076923077,0.6428571428571429,0.7142857142857143,0.0004
202,0.8475213050842285,1.2952464818954468,0.8076923076923077,0.8461538461538461,0.42857142857142855,0.8571428571428571,0.0004
203,0.6663902103900909,1.0622224807739258,0.8653846153846154,0.9230769230769231,0.6428571428571429,0.8571428571428571,0.0004
204,1.032967984676361,1.0718945264816284,0.7115384615384616,0.8461538461538461,0.7142857142857143,0.7857142857142857,0.0004
205,0.751173585653305,0.9608111381530762,0.8461538461538461,0.9038461538461539,0.7142857142857143,0.7857142857142857,0.0004
206,0.9316175580024719,0.8974014520645142,0.7692307692307693,0.9038461538461539,0.7857142857142857,0.7857142857142857,0.0004
207,1.0086087882518768,0.9862125515937805,0.7692307692307693,0.9038461538461539,0.7142857142857143,0.7857142857142857,0.0004
208,0.7203337550163269,0.7214629054069519,0.7884615384615384,0.8653846153846154,0.8571428571428571,0.9285714285714286,0.0004
209,0.6632996797561646,0.7315208911895752,0.8461538461538461,0.8846153846153846,0.7857142857142857,0.8571428571428571,0.0004
210,0.6876863837242126,1.0784063339233398,0.8269230769230769,0.8846153846153846,0.6428571428571429,0.8571428571428571,0.0004
211,0.6578802764415741,0.8462873697280884,0.8269230769230769,0.8846153846153846,0.7857142857142857,0.7857142857142857,0.0004
212,0.7954860627651215,1.185417652130127,0.7692307692307693,0.9230769230769231,0.7142857142857143,0.7142857142857143,0.0004
213,0.8238470554351807,1.2728501558303833,0.7692307692307693,0.9615384615384616,0.7142857142857143,0.8571428571428571,0.0004
214,0.8577128350734711,1.5760807991027832,0.7115384615384616,0.8076923076923077,0.5,0.7857142857142857,0.0004
215,0.8200642466545105,0.8823313117027283,0.7884615384615384,0.8846153846153846,0.6428571428571429,0.9285714285714286,0.0004
216,0.8435749411582947,1.1232116222381592,0.7884615384615384,0.9230769230769231,0.6428571428571429,0.8571428571428571,0.0004
217,0.8139070868492126,1.059833288192749,0.75,0.9615384615384616,0.7857142857142857,0.7142857142857143,0.0004
218,0.6280659437179565,1.044344425201416,0.8653846153846154,0.9038461538461539,0.7857142857142857,0.6428571428571429,0.0004
219,0.7655761241912842,1.369800090789795,0.75,0.9038461538461539,0.5714285714285714,0.7142857142857143,0.0004
220,0.8279919326305389,1.0438683032989502,0.7692307692307693,0.9230769230769231,0.7857142857142857,0.7857142857142857,0.0004
221,0.8842324018478394,1.1490497589111328,0.7692307692307693,0.9230769230769231,0.6428571428571429,0.7857142857142857,0.0004
222,0.8197572529315948,0.8395997881889343,0.7307692307692307,0.8846153846153846,0.7857142857142857,0.7857142857142857,0.0004
223,0.7274220287799835,1.2153849601745605,0.8076923076923077,0.9038461538461539,0.6428571428571429,0.7857142857142857,0.0004
224,0.6285208165645599,1.154783844947815,0.8076923076923077,0.9230769230769231,0.6428571428571429,0.7142857142857143,0.0004
225,0.7512081563472748,1.2215012311935425,0.8076923076923077,0.9038461538461539,0.7142857142857143,0.7857142857142857,0.0004
226,0.9258700907230377,1.106633186340332,0.75,0.8653846153846154,0.7142857142857143,0.6428571428571429,0.0004
227,0.7250530421733856,0.8891647458076477,0.8461538461538461,0.9230769230769231,0.7857142857142857,0.7857142857142857,0.0004
228,0.7795100808143616,1.0776723623275757,0.7884615384615384,0.8846153846153846,0.7142857142857143,0.8571428571428571,0.0004
229,0.7797607481479645,1.1843554973602295,0.75,0.9038461538461539,0.6428571428571429,0.8571428571428571,0.0004
230,0.7228274047374725,1.5789765119552612,0.8269230769230769,0.8461538461538461,0.5714285714285714,0.7142857142857143,0.0004
231,0.6186777055263519,0.9021164178848267,0.8461538461538461,0.9038461538461539,0.7857142857142857,0.7857142857142857,0.0004
232,0.764995276927948,1.1160142421722412,0.8076923076923077,0.8653846153846154,0.7142857142857143,0.7857142857142857,0.0004
233,0.6839320063591003,0.9333139657974243,0.8076923076923077,0.8653846153846154,0.7857142857142857,0.7857142857142857,0.0004
234,0.6390385329723358,1.191885232925415,0.8461538461538461,0.8846153846153846,0.5714285714285714,0.7857142857142857,0.0004
235,0.7975193560123444,1.0896894931793213,0.8076923076923077,0.8846153846153846,0.7142857142857143,0.9285714285714286,0.0004
236,0.8182626068592072,0.9663763046264648,0.7884615384615384,0.9038461538461539,0.7857142857142857,0.8571428571428571,0.0004
237,0.7692157030105591,1.1035212278366089,0.8269230769230769,0.9230769230769231,0.6428571428571429,0.8571428571428571,0.0004
238,0.9022676348686218,1.2722089290618896,0.7115384615384616,0.9038461538461539,0.7142857142857143,0.6428571428571429,0.0004
239,0.7558752298355103,1.1235673427581787,0.75,0.8846153846153846,0.8571428571428571,0.8571428571428571,0.0004
240,0.9223124980926514,1.8560547828674316,0.7115384615384616,0.8461538461538461,0.5,0.7142857142857143,0.0004
241,0.6742042005062103,0.9667505025863647,0.7884615384615384,0.9038461538461539,0.6428571428571429,0.7857142857142857,0.0004
242,0.7800927758216858,0.7865469455718994,0.8076923076923077,0.8461538461538461,0.7857142857142857,0.8571428571428571,0.0004
243,0.5349391996860504,1.1583161354064941,0.8076923076923077,0.9423076923076923,0.6428571428571429,0.8571428571428571,0.0004
244,0.7222961485385895,1.352096438407898,0.8076923076923077,0.9038461538461539,0.42857142857142855,0.8571428571428571,0.0004
245,0.8078510463237762,0.8493375182151794,0.8076923076923077,0.9038461538461539,0.7142857142857143,0.8571428571428571,0.0004
246,0.774014800786972,0.7795921564102173,0.8461538461538461,0.9423076923076923,0.8571428571428571,0.7142857142857143,0.0004
247,0.6027268767356873,1.6353955268859863,0.7692307692307693,0.9423076923076923,0.42857142857142855,0.7857142857142857,0.0004
248,0.7702728509902954,1.1105079650878906,0.7307692307692307,0.9230769230769231,0.6428571428571429,0.7857142857142857,0.0004
249,0.7513107061386108,1.0946264266967773,0.8461538461538461,0.9230769230769231,0.7142857142857143,0.7857142857142857,0.0004
250,0.6664721667766571,1.1339507102966309,0.7884615384615384,0.9230769230769231,0.6428571428571429,0.7857142857142857,0.0004
251,0.6097823828458786,0.7997963428497314,0.8653846153846154,0.9038461538461539,0.7857142857142857,0.8571428571428571,0.0004
252,0.7504055202007294,0.9357106685638428,0.8461538461538461,0.9038461538461539,0.7142857142857143,0.7857142857142857,0.0004
253,0.7827102541923523,1.1252069473266602,0.8269230769230769,0.9230769230769231,0.6428571428571429,0.8571428571428571,0.0004
254,0.8210940659046173,1.1114530563354492,0.75,0.8846153846153846,0.7142857142857143,0.7142857142857143,0.0004
255,0.6035266220569611,1.3207998275756836,0.8461538461538461,0.8653846153846154,0.7142857142857143,0.7857142857142857,0.0004
256,0.8490047454833984,1.4039697647094727,0.75,0.9038461538461539,0.5714285714285714,0.7857142857142857,0.0004
257,0.6859541237354279,1.0728051662445068,0.8269230769230769,0.8846153846153846,0.7142857142857143,0.8571428571428571,0.0004
258,0.7225406765937805,1.1756607294082642,0.7692307692307693,0.9230769230769231,0.7857142857142857,0.7857142857142857,0.0004
259,0.8647420704364777,1.1800345182418823,0.7307692307692307,0.9230769230769231,0.7857142857142857,0.7857142857142857,0.0004
260,0.5773070752620697,1.2887063026428223,0.8653846153846154,0.9230769230769231,0.6428571428571429,0.7857142857142857,0.0004
261,0.8530193567276001,0.7573323249816895,0.7884615384615384,0.9038461538461539,0.7857142857142857,0.9285714285714286,0.0004
262,0.523116260766983,1.0620099306106567,0.8653846153846154,0.9615384615384616,0.7142857142857143,0.7857142857142857,0.0004
263,0.6768040955066681,0.9594812393188477,0.7884615384615384,0.9423076923076923,0.7142857142857143,0.7857142857142857,0.0004
264,0.861144483089447,1.0416314601898193,0.7692307692307693,0.8846153846153846,0.7142857142857143,0.7857142857142857,0.0004
265,0.8679346442222595,1.8879202604293823,0.7884615384615384,0.8653846153846154,0.21428571428571427,0.7857142857142857,0.0004
266,0.6715821325778961,1.0505849123001099,0.8269230769230769,0.8653846153846154,0.6428571428571429,0.7857142857142857,0.0004
267,0.5718483626842499,0.8101116418838501,0.8461538461538461,0.9230769230769231,0.9285714285714286,0.8571428571428571,0.0004
268,0.6618036478757858,0.9005582928657532,0.7884615384615384,0.9038461538461539,0.7142857142857143,0.9285714285714286,0.0004
269,0.5699183940887451,1.122507929801941,0.7884615384615384,0.9615384615384616,0.6428571428571429,0.7857142857142857,0.0004
270,0.777340292930603,0.9132108688354492,0.7884615384615384,0.8846153846153846,0.7857142857142857,0.9285714285714286,0.0004
271,0.6528986394405365,1.0617576837539673,0.8076923076923077,0.9230769230769231,0.5714285714285714,0.9285714285714286,0.0004
272,0.620043620467186,0.8176147937774658,0.8846153846153846,0.8846153846153846,0.8571428571428571,0.9285714285714286,0.0004
273,0.6193036139011383,0.7331255674362183,0.8076923076923077,0.9230769230769231,0.7142857142857143,0.9285714285714286,0.0004
274,0.7828478813171387,0.798090934753418,0.8076923076923077,0.8653846153846154,0.7857142857142857,0.7857142857142857,0.0004
275,0.533316120505333,1.3194739818572998,0.8076923076923077,0.9615384615384616,0.5714285714285714,0.7142857142857143,0.0004
276,0.8752498626708984,1.1542243957519531,0.75,0.8846153846153846,0.5,0.7857142857142857,0.0004
277,0.6990346610546112,0.6846724152565002,0.8076923076923077,0.9615384615384616,0.7142857142857143,0.9285714285714286,0.0004
278,0.7224438786506653,1.1837871074676514,0.7692307692307693,0.8653846153846154,0.5714285714285714,0.8571428571428571,0.0004
279,0.8068273663520813,1.300320029258728,0.7884615384615384,0.8653846153846154,0.7142857142857143,0.6428571428571429,0.0004
280,0.791724443435669,0.9932243824005127,0.8076923076923077,0.8269230769230769,0.7857142857142857,0.8571428571428571,0.0004
281,0.5560580343008041,0.5858405828475952,0.8846153846153846,0.9038461538461539,0.8571428571428571,1.0,0.0004
282,0.7747751474380493,1.341335415840149,0.7692307692307693,0.8461538461538461,0.5714285714285714,0.8571428571428571,0.0004
283,0.7320311367511749,0.7907170653343201,0.7884615384615384,0.9038461538461539,0.7857142857142857,0.9285714285714286,0.0004
284,0.8775916695594788,0.7074474692344666,0.7115384615384616,0.9230769230769231,0.8571428571428571,0.8571428571428571,0.0004
285,0.5404123067855835,0.6699440479278564,0.8076923076923077,0.9807692307692307,0.7142857142857143,0.9285714285714286,0.0004
286,0.8356311768293381,1.1420655250549316,0.7884615384615384,0.9038461538461539,0.7142857142857143,0.7142857142857143,0.0004
287,0.6780426800251007,0.8783873319625854,0.8076923076923077,0.8653846153846154,0.6428571428571429,0.9285714285714286,0.0004
288,0.790004312992096,1.3259034156799316,0.7115384615384616,0.9038461538461539,0.6428571428571429,0.7857142857142857,0.0004
289,0.5927462577819824,1.3740947246551514,0.8846153846153846,0.9038461538461539,0.6428571428571429,0.7857142857142857,0.0004
290,1.02909654378891,1.0497241020202637,0.7307692307692307,0.8076923076923077,0.7857142857142857,0.8571428571428571,0.0004
291,0.5860359072685242,1.3875095844268799,0.7884615384615384,0.9230769230769231,0.35714285714285715,0.8571428571428571,0.0004
292,0.7542919814586639,0.8707764148712158,0.7692307692307693,0.9038461538461539,0.7857142857142857,0.8571428571428571,0.0004
293,0.642745316028595,0.9150660634040833,0.8076923076923077,0.8846153846153846,0.7857142857142857,0.7142857142857143,0.0004
294,0.6411640346050262,1.2681858539581299,0.8269230769230769,0.8653846153846154,0.6428571428571429,0.7857142857142857,0.0004
295,0.9644802808761597,1.0808615684509277,0.8076923076923077,0.8076923076923077,0.7857142857142857,0.7857142857142857,0.0004
296,0.7809732258319855,1.0933709144592285,0.7884615384615384,0.8846153846153846,0.7142857142857143,0.7142857142857143,0.0004
297,0.5655654966831207,1.0359828472137451,0.75,0.9807692307692307,0.7857142857142857,0.8571428571428571,0.0004
298,0.9946147501468658,0.9622260332107544,0.7307692307692307,0.8653846153846154,0.7142857142857143,0.8571428571428571,0.0004
299,0.892792284488678,1.0609294176101685,0.7884615384615384,0.8461538461538461,0.7857142857142857,0.7857142857142857,0.0004
300,0.7482897043228149,1.2154489755630493,0.75,0.8846153846153846,0.7142857142857143,0.7857142857142857,0.0004
301,0.7106698751449585,1.0617505311965942,0.8269230769230769,0.8846153846153846,0.7142857142857143,0.8571428571428571,0.0004
302,0.6353520750999451,0.9583674669265747,0.8269230769230769,0.9423076923076923,0.7142857142857143,0.7142857142857143,0.0004
303,0.716622844338417,1.235327959060669,0.8269230769230769,0.9423076923076923,0.6428571428571429,0.7857142857142857,0.0004
304,0.7149196267127991,1.0344257354736328,0.8269230769230769,0.9038461538461539,0.7142857142857143,0.8571428571428571,0.0004
305,0.656504213809967,0.9596553444862366,0.8269230769230769,0.9038461538461539,0.6428571428571429,0.8571428571428571,0.0004
306,0.5851233303546906,1.2631605863571167,0.8653846153846154,0.9038461538461539,0.5714285714285714,0.7142857142857143,0.0004
307,0.5794801115989685,0.8708966374397278,0.8269230769230769,0.8653846153846154,0.6428571428571429,0.9285714285714286,0.0004
308,0.6809529066085815,0.8355183601379395,0.7307692307692307,0.9615384615384616,0.6428571428571429,0.8571428571428571,0.0004
309,0.6881735324859619,0.8870477676391602,0.8076923076923077,0.8846153846153846,0.7857142857142857,0.7857142857142857,0.0004
310,0.7699570655822754,0.9737822413444519,0.8269230769230769,0.8461538461538461,0.7142857142857143,0.8571428571428571,0.0004
311,0.6983674466609955,0.7957479953765869,0.8076923076923077,0.9423076923076923,0.6428571428571429,0.8571428571428571,0.0004
312,0.5395435392856598,0.9352895021438599,0.8269230769230769,0.9038461538461539,0.6428571428571429,0.7857142857142857,0.0004
313,0.7090888917446136,1.0345814228057861,0.8461538461538461,0.8846153846153846,0.6428571428571429,0.7857142857142857,0.0004
314,0.7013019025325775,1.0092839002609253,0.75,0.9038461538461539,0.7857142857142857,0.9285714285714286,0.0004
315,0.6813969314098358,0.8129117488861084,0.7884615384615384,0.9615384615384616,0.6428571428571429,0.9285714285714286,0.0004
316,0.6680057644844055,0.9384539127349854,0.8076923076923077,0.9615384615384616,0.6428571428571429,0.8571428571428571,0.0004
317,0.6575892269611359,1.2250429391860962,0.8076923076923077,0.8653846153846154,0.6428571428571429,0.9285714285714286,0.0004
318,0.6771848201751709,1.2744050025939941,0.8461538461538461,0.8846153846153846,0.5714285714285714,0.9285714285714286,0.0004
319,0.954369992017746,1.1046584844589233,0.7115384615384616,0.8269230769230769,0.7142857142857143,0.7857142857142857,0.0004
320,0.6887191832065582,0.8789279460906982,0.7884615384615384,0.9423076923076923,0.7142857142857143,0.8571428571428571,0.0004
321,0.5558875650167465,1.332848072052002,0.8653846153846154,0.9038461538461539,0.5714285714285714,0.7142857142857143,0.0004
322,0.6430438160896301,0.9182177782058716,0.8269230769230769,0.9230769230769231,0.6428571428571429,0.7857142857142857,0.0004
323,0.731786847114563,0.8791256546974182,0.8076923076923077,0.8846153846153846,0.7142857142857143,0.6428571428571429,0.0004
324,0.5802172422409058,1.2962559461593628,0.8269230769230769,0.9038461538461539,0.6428571428571429,0.7857142857142857,0.0004
325,0.6533720791339874,0.9892972707748413,0.8269230769230769,0.9230769230769231,0.7857142857142857,0.7857142857142857,0.0004
326,0.5865430235862732,1.1816604137420654,0.7884615384615384,0.9423076923076923,0.6428571428571429,0.8571428571428571,0.0004
327,0.5397334396839142,0.7925559282302856,0.8461538461538461,0.8846153846153846,0.7857142857142857,0.7142857142857143,0.0004
328,0.8435229659080505,0.6088529229164124,0.75,0.9230769230769231,0.8571428571428571,0.7857142857142857,0.0004
329,0.6760907471179962,1.1339291334152222,0.7884615384615384,0.9230769230769231,0.5714285714285714,0.8571428571428571,0.0004
330,0.5069757699966431,1.4285837411880493,0.8653846153846154,0.9423076923076923,0.5,0.6428571428571429,0.0004
331,0.48826155066490173,1.1390737295150757,0.8461538461538461,0.9615384615384616,0.6428571428571429,0.7857142857142857,0.0004
332,0.7003913521766663,1.143790364265442,0.7884615384615384,0.8653846153846154,0.6428571428571429,0.8571428571428571,0.0004
333,0.5911592841148376,1.214505672454834,0.8846153846153846,0.8846153846153846,0.5714285714285714,0.9285714285714286,0.0004
334,0.57846799492836,0.8383774757385254,0.8269230769230769,0.9230769230769231,0.7142857142857143,0.8571428571428571,0.0004
335,0.6104191541671753,1.1258220672607422,0.8461538461538461,0.8653846153846154,0.6428571428571429,0.8571428571428571,0.0004
336,0.6988536417484283,0.8557263016700745,0.8461538461538461,0.9038461538461539,0.7857142857142857,0.7857142857142857,0.0004
337,0.6974422037601471,1.5064550638198853,0.7884615384615384,0.9038461538461539,0.5,0.9285714285714286,0.0004
338,0.5071341693401337,1.6728472709655762,0.8461538461538461,0.9230769230769231,0.5714285714285714,0.7857142857142857,0.0004
339,0.5348321795463562,1.1727410554885864,0.8653846153846154,0.9423076923076923,0.7142857142857143,0.7857142857142857,0.0004
340,0.45155900716781616,1.7450006008148193,0.8653846153846154,0.9038461538461539,0.6428571428571429,0.7857142857142857,0.0004
341,0.5227190852165222,1.0384492874145508,0.8653846153846154,0.9230769230769231,0.5714285714285714,0.9285714285714286,0.0004
342,0.6529762148857117,1.0297925472259521,0.8461538461538461,0.8846153846153846,0.7142857142857143,0.7142857142857143,0.0004
343,0.6105526983737946,0.7210865020751953,0.7884615384615384,0.9807692307692307,0.7142857142857143,0.8571428571428571,0.0004
344,0.8645309805870056,1.293381690979004,0.7884615384615384,0.8653846153846154,0.5714285714285714,0.8571428571428571,0.0004
345,0.636494517326355,1.511176586151123,0.8461538461538461,0.9038461538461539,0.6428571428571429,0.7857142857142857,0.0004
346,0.6104954779148102,1.0558719635009766,0.8653846153846154,0.8653846153846154,0.6428571428571429,0.7857142857142857,0.0004
347,0.6645908355712891,1.192592740058899,0.7884615384615384,0.9230769230769231,0.7142857142857143,0.7857142857142857,0.0004
348,0.5940337479114532,0.9427669048309326,0.8653846153846154,0.9230769230769231,0.7857142857142857,0.7142857142857143,0.0004
349,0.7419245839118958,1.1889474391937256,0.8076923076923077,0.8846153846153846,0.42857142857142855,0.9285714285714286,0.0004
350,0.7498717308044434,0.784134566783905,0.8269230769230769,0.8846153846153846,0.8571428571428571,0.7857142857142857,0.0004
351,0.7240531146526337,1.5745337009429932,0.8076923076923077,0.9038461538461539,0.42857142857142855,0.8571428571428571,0.0004
352,0.4326663017272949,1.2448770999908447,0.9230769230769231,0.9230769230769231,0.6428571428571429,0.5714285714285714,0.0004
353,0.7366322875022888,0.9537215232849121,0.8076923076923077,0.8846153846153846,0.7857142857142857,0.7857142857142857,0.0004
354,0.4596250355243683,1.08206307888031,0.8846153846153846,0.9423076923076923,0.7142857142857143,0.7142857142857143,0.0004
355,0.6168956160545349,1.1080414056777954,0.8076923076923077,0.9423076923076923,0.7857142857142857,0.6428571428571429,0.0004
356,0.6865492463111877,1.0506870746612549,0.8076923076923077,0.9038461538461539,0.7142857142857143,0.7142857142857143,0.0004
357,0.6483348160982132,0.8393347263336182,0.8461538461538461,0.8846153846153846,0.7857142857142857,0.8571428571428571,0.0004
358,0.43361131846904755,0.9561559557914734,0.9038461538461539,0.9230769230769231,0.6428571428571429,0.7857142857142857,0.0004
359,0.7451580762863159,0.8148671984672546,0.8269230769230769,0.8846153846153846,0.7857142857142857,0.9285714285714286,0.0004
360,0.7935689687728882,0.7830965518951416,0.7692307692307693,0.8653846153846154,0.7142857142857143,0.7857142857142857,0.0004
361,0.7336673140525818,1.3342738151550293,0.7692307692307693,0.9038461538461539,0.6428571428571429,0.7142857142857143,0.0004
362,0.8219716250896454,1.3819242715835571,0.8076923076923077,0.8269230769230769,0.5714285714285714,0.9285714285714286,0.0004
363,0.6203141808509827,1.0044286251068115,0.8269230769230769,0.8846153846153846,0.7857142857142857,0.7142857142857143,0.0004
364,0.7793647050857544,0.8192980289459229,0.8269230769230769,0.8269230769230769,0.7857142857142857,0.8571428571428571,0.0004
365,0.6741247177124023,0.8680046796798706,0.8269230769230769,0.8653846153846154,0.7857142857142857,0.7857142857142857,0.0004
366,0.8179216384887695,1.0346256494522095,0.75,0.9038461538461539,0.6428571428571429,0.8571428571428571,0.0004
367,0.7859188914299011,1.2046312093734741,0.7884615384615384,0.9230769230769231,0.7142857142857143,0.7857142857142857,0.0004
368,0.5201109647750854,1.0874979496002197,0.8461538461538461,0.9038461538461539,0.6428571428571429,0.8571428571428571,0.0004
369,0.715525358915329,1.162026047706604,0.8269230769230769,0.8269230769230769,0.7857142857142857,0.7857142857142857,0.0004
370,0.7603207528591156,1.2390661239624023,0.75,0.8846153846153846,0.5714285714285714,0.8571428571428571,0.0004
371,0.7305846214294434,1.1929962635040283,0.7884615384615384,0.9230769230769231,0.6428571428571429,0.7857142857142857,0.0004
372,0.48800382018089294,1.0291790962219238,0.9038461538461539,0.9230769230769231,0.6428571428571429,0.8571428571428571,0.0004
373,0.8526628613471985,1.3712949752807617,0.6730769230769231,0.9230769230769231,0.5714285714285714,0.7857142857142857,0.0004
374,0.7305464446544647,1.0339233875274658,0.8076923076923077,0.8846153846153846,0.6428571428571429,0.8571428571428571,0.0004
375,0.6544064283370972,1.0843806266784668,0.7692307692307693,0.9230769230769231,0.6428571428571429,0.8571428571428571,0.0004
376,0.7050566971302032,0.9980191588401794,0.8076923076923077,0.9038461538461539,0.7142857142857143,0.8571428571428571,0.0004
377,0.6403550505638123,0.6906825304031372,0.7884615384615384,0.9230769230769231,0.8571428571428571,0.7857142857142857,0.0004
378,0.789393424987793,1.0460445880889893,0.7884615384615384,0.8461538461538461,0.7142857142857143,0.7857142857142857,0.0004
379,0.6595108211040497,1.1809582710266113,0.8653846153846154,0.8846153846153846,0.6428571428571429,0.7857142857142857,0.0004
380,0.788440078496933,1.041014552116394,0.8461538461538461,0.9038461538461539,0.7142857142857143,0.7142857142857143,0.0004
381,0.6614391207695007,0.8153992891311646,0.7692307692307693,0.9423076923076923,0.8571428571428571,0.7857142857142857,0.0004
382,0.6126470565795898,0.8011944890022278,0.7884615384615384,0.8846153846153846,0.8571428571428571,0.7857142857142857,0.0004
383,0.7843457758426666,0.9453250169754028,0.7692307692307693,0.9615384615384616,0.6428571428571429,0.8571428571428571,0.0004
384,0.5931987762451172,0.8755215406417847,0.8461538461538461,0.9038461538461539,0.7142857142857143,0.7857142857142857,0.0004
385,0.5192079991102219,0.8308351039886475,0.8653846153846154,0.9038461538461539,0.7142857142857143,0.9285714285714286,0.0004
386,0.4432128369808197,0.7658918499946594,0.9423076923076923,0.9423076923076923,0.8571428571428571,0.7142857142857143,0.0004
387,0.5896077752113342,1.5440702438354492,0.8461538461538461,0.9230769230769231,0.5,0.8571428571428571,0.0004
388,0.6554833948612213,1.027014136314392,0.8076923076923077,0.8846153846153846,0.8571428571428571,0.7142857142857143,0.0004
389,0.589122474193573,0.8543998599052429,0.8269230769230769,0.9038461538461539,0.6428571428571429,0.9285714285714286,0.0004
390,0.6687902510166168,1.3078980445861816,0.7884615384615384,0.9038461538461539,0.5,0.7857142857142857,0.0004
391,0.5231684148311615,1.2227985858917236,0.9230769230769231,0.9038461538461539,0.6428571428571429,0.7142857142857143,0.0004
392,0.5497375428676605,1.1578865051269531,0.8076923076923077,0.9230769230769231,0.7142857142857143,0.7857142857142857,0.0004
393,0.7193978130817413,1.019739031791687,0.8076923076923077,0.8846153846153846,0.7142857142857143,0.8571428571428571,0.0004
394,0.6382623612880707,1.2643979787826538,0.8076923076923077,0.8846153846153846,0.7142857142857143,0.8571428571428571,0.0004
395,0.5080642700195312,0.9592238664627075,0.8461538461538461,0.8846153846153846,0.7142857142857143,0.7142857142857143,0.0004
396,0.5763323605060577,0.7239301800727844,0.8269230769230769,0.9423076923076923,0.7142857142857143,0.9285714285714286,0.0004
397,0.6023102402687073,1.6382524967193604,0.8269230769230769,0.9038461538461539,0.5,0.7857142857142857,0.0004
398,0.48229658603668213,1.1747674942016602,0.8653846153846154,0.9615384615384616,0.5714285714285714,0.8571428571428571,0.0004
399,0.5357849597930908,0.7178124189376831,0.9038461538461539,0.9038461538461539,0.9285714285714286,0.7857142857142857,0.0004
400,0.7657727003097534,0.6722922325134277,0.7692307692307693,0.8653846153846154,0.8571428571428571,0.8571428571428571,0.0004
401,0.48647499084472656,0.9838367700576782,0.8461538461538461,0.9615384615384616,0.7857142857142857,0.7857142857142857,0.0004
402,0.5078915357589722,0.699491024017334,0.8461538461538461,0.9230769230769231,0.8571428571428571,0.7857142857142857,0.0004
403,0.715941995382309,1.0103857517242432,0.8461538461538461,0.8846153846153846,0.7142857142857143,0.8571428571428571,0.0004
404,0.5503807961940765,1.2531930208206177,0.8653846153846154,0.8846153846153846,0.7857142857142857,0.6428571428571429,0.0004
405,0.8814263939857483,1.1128344535827637,0.75,0.8846153846153846,0.7142857142857143,0.7857142857142857,0.0004
406,0.7899832427501678,0.6649713516235352,0.75,0.9230769230769231,0.8571428571428571,0.7857142857142857,0.0004
407,0.8838978409767151,0.7422788143157959,0.8269230769230769,0.8461538461538461,0.7142857142857143,0.8571428571428571,0.0004
408,0.5869764685630798,0.7550629377365112,0.8269230769230769,0.8846153846153846,0.7857142857142857,0.7857142857142857,0.0004
409,0.6439992487430573,0.9954860210418701,0.8269230769230769,0.9038461538461539,0.7142857142857143,0.7857142857142857,0.0004
410,0.552626833319664,1.072018027305603,0.8846153846153846,0.8653846153846154,0.7142857142857143,0.8571428571428571,0.0004
411,0.8116736114025116,0.7049992680549622,0.7307692307692307,0.8846153846153846,0.7857142857142857,0.7142857142857143,0.0004
412,0.6505168378353119,1.48453688621521,0.8269230769230769,0.9230769230769231,0.5714285714285714,0.8571428571428571,0.0004
413,0.5696948170661926,0.9311251044273376,0.8461538461538461,0.9230769230769231,0.8571428571428571,0.9285714285714286,0.0004
414,0.6138418018817902,1.2037858963012695,0.7692307692307693,0.8653846153846154,0.7142857142857143,0.8571428571428571,0.0004
415,0.6410231590270996,0.9272606372833252,0.7884615384615384,0.9038461538461539,0.6428571428571429,1.0,0.0004
416,0.8437361717224121,1.066049575805664,0.7884615384615384,0.8269230769230769,0.7142857142857143,0.8571428571428571,0.0004
417,0.7145593762397766,0.9118990898132324,0.8461538461538461,0.9230769230769231,0.7857142857142857,0.8571428571428571,0.0004
418,0.5916705429553986,0.8337132334709167,0.8076923076923077,0.9038461538461539,0.7142857142857143,0.8571428571428571,0.0004
419,0.7246670722961426,0.7712337374687195,0.8269230769230769,0.8846153846153846,0.7857142857142857,0.8571428571428571,0.0004
420,0.735819399356842,1.171164870262146,0.7884615384615384,0.8653846153846154,0.6428571428571429,0.8571428571428571,0.0004
421,0.5198622345924377,1.0197761058807373,0.8461538461538461,0.9230769230769231,0.6428571428571429,0.7857142857142857,0.0004
422,0.43245546519756317,1.036445140838623,0.8846153846153846,1.0,0.6428571428571429,1.0,0.0004
423,0.9244607388973236,1.0122334957122803,0.7307692307692307,0.8461538461538461,0.7142857142857143,0.8571428571428571,0.0004
424,0.5418716222047806,0.9752436876296997,0.7884615384615384,0.9038461538461539,0.7142857142857143,0.9285714285714286,0.0004
425,0.7438741028308868,0.8666307926177979,0.75,0.9230769230769231,0.7857142857142857,0.8571428571428571,0.0004
426,0.7158084809780121,0.8766698241233826,0.8269230769230769,0.8461538461538461,0.6428571428571429,0.7857142857142857,0.0004
427,0.5794885903596878,1.112697720527649,0.8461538461538461,0.9230769230769231,0.7142857142857143,0.8571428571428571,0.0004
428,0.6206754744052887,1.0396114587783813,0.8269230769230769,0.9230769230769231,0.7142857142857143,0.7857142857142857,0.0004
429,0.500660315155983,0.9420417547225952,0.8653846153846154,0.9423076923076923,0.7142857142857143,0.8571428571428571,0.0004
430,0.6278024017810822,0.7642214298248291,0.7884615384615384,0.9038461538461539,0.7142857142857143,0.7857142857142857,0.0004
431,0.6485567390918732,1.2884931564331055,0.8076923076923077,0.9230769230769231,0.6428571428571429,0.7857142857142857,0.0004
432,1.0270772576332092,1.111980676651001,0.6538461538461539,0.8846153846153846,0.6428571428571429,0.7142857142857143,0.0004
433,0.654837042093277,1.1727406978607178,0.8076923076923077,0.9038461538461539,0.6428571428571429,0.9285714285714286,0.0004
434,0.6914386451244354,1.17445969581604,0.75,0.9423076923076923,0.6428571428571429,0.7857142857142857,0.0004
435,0.5719673931598663,1.197251796722412,0.8461538461538461,0.9038461538461539,0.5714285714285714,0.8571428571428571,0.0004
436,0.5306017249822617,1.0092490911483765,0.8461538461538461,0.9038461538461539,0.7857142857142857,0.7857142857142857,0.0004
437,0.5902791321277618,1.1116076707839966,0.8269230769230769,0.9230769230769231,0.6428571428571429,0.8571428571428571,0.0004
438,0.686415433883667,1.0747272968292236,0.8076923076923077,0.8846153846153846,0.7142857142857143,0.6428571428571429,0.0004
439,0.5807651579380035,0.9006368517875671,0.7692307692307693,0.9615384615384616,0.7857142857142857,0.8571428571428571,0.0004
440,0.5183679610490799,0.9436948299407959,0.8076923076923077,0.9038461538461539,0.7142857142857143,0.8571428571428571,0.0004
441,0.6556291580200195,1.3804070949554443,0.8461538461538461,0.8653846153846154,0.6428571428571429,0.8571428571428571,0.0004
442,0.588805079460144,1.0667638778686523,0.8461538461538461,0.9038461538461539,0.5714285714285714,0.9285714285714286,0.0004
443,0.5983391106128693,1.1772074699401855,0.8076923076923077,0.9038461538461539,0.7142857142857143,0.6428571428571429,0.0004
444,0.5380519330501556,1.0985329151153564,0.8269230769230769,0.9038461538461539,0.6428571428571429,0.9285714285714286,0.0004
445,0.6463846266269684,1.104429841041565,0.7884615384615384,0.9038461538461539,0.6428571428571429,0.8571428571428571,0.0004
446,0.411949098110199,0.5899001955986023,0.9038461538461539,0.9615384615384616,0.9285714285714286,0.8571428571428571,0.0004
447,0.7005415558815002,1.175741195678711,0.8076923076923077,0.8269230769230769,0.6428571428571429,0.7857142857142857,0.0004
448,0.6776005625724792,1.1167492866516113,0.7692307692307693,0.9230769230769231,0.6428571428571429,0.9285714285714286,0.0004
449,0.7180103063583374,1.2336373329162598,0.7884615384615384,0.9038461538461539,0.7142857142857143,0.7857142857142857,0.0004
450,0.6459937691688538,0.8403816223144531,0.7884615384615384,0.9230769230769231,0.6428571428571429,0.7142857142857143,0.0004
451,0.6763979494571686,0.8298540711402893,0.7884615384615384,0.9230769230769231,0.7857142857142857,0.9285714285714286,0.0004
452,0.606125682592392,1.2721041440963745,0.7884615384615384,0.9038461538461539,0.7142857142857143,0.7857142857142857,0.0004
453,0.48318949341773987,0.8640434741973877,0.9038461538461539,0.9230769230769231,0.7142857142857143,0.7142857142857143,0.0004
454,0.48773616552352905,1.0542306900024414,0.8653846153846154,0.9615384615384616,0.5714285714285714,1.0,0.0004
455,0.6885360479354858,0.8431628942489624,0.8653846153846154,0.9423076923076923,0.6428571428571429,1.0,0.0004
456,0.5380668193101883,1.3626049757003784,0.8846153846153846,0.9038461538461539,0.5,0.7142857142857143,0.0004
457,0.5338891744613647,0.8104920983314514,0.8461538461538461,0.9423076923076923,0.7857142857142857,0.8571428571428571,0.0004
458,0.7527052462100983,1.0106970071792603,0.8653846153846154,0.8653846153846154,0.6428571428571429,0.8571428571428571,0.0004
459,0.5479247272014618,0.89909827709198,0.7884615384615384,0.9230769230769231,0.6428571428571429,0.8571428571428571,0.0004
460,0.5052709877490997,0.8575706481933594,0.8846153846153846,0.9038461538461539,0.6428571428571429,1.0,0.0004
461,0.4171596169471741,0.7494471669197083,0.9038461538461539,0.9615384615384616,0.8571428571428571,0.7142857142857143,0.0004
462,0.5038563013076782,0.8570938110351562,0.8653846153846154,0.9038461538461539,0.7857142857142857,0.8571428571428571,0.0004
463,0.49583858251571655,1.001471996307373,0.9038461538461539,0.9038461538461539,0.7142857142857143,0.7857142857142857,0.0004
464,0.743367463350296,1.467463493347168,0.7884615384615384,0.9038461538461539,0.6428571428571429,0.7857142857142857,0.0004
465,0.5293727219104767,1.2850754261016846,0.9230769230769231,0.9230769230769231,0.7142857142857143,0.8571428571428571,0.0004
466,0.6554966270923615,1.3169047832489014,0.8076923076923077,0.8653846153846154,0.5,0.9285714285714286,0.0004
467,0.6423203349113464,1.0263421535491943,0.8076923076923077,0.9423076923076923,0.6428571428571429,0.7857142857142857,0.0004
468,0.5620851814746857,0.80934739112854,0.8461538461538461,0.9230769230769231,0.7857142857142857,0.7857142857142857,0.0004
469,0.6170107126235962,0.7307116985321045,0.8653846153846154,0.8461538461538461,0.7142857142857143,0.9285714285714286,0.0004
470,0.45067089796066284,0.8608726859092712,0.8846153846153846,0.8846153846153846,0.6428571428571429,0.8571428571428571,0.0004
471,0.564299464225769,1.0947697162628174,0.7884615384615384,0.9423076923076923,0.6428571428571429,0.9285714285714286,0.0004
472,0.57906374335289,1.0195913314819336,0.8461538461538461,0.8653846153846154,0.7857142857142857,0.8571428571428571,0.0004
473,0.6456305682659149,1.4542715549468994,0.8076923076923077,0.8846153846153846,0.6428571428571429,0.8571428571428571,0.0004
474,0.6251277923583984,1.311062216758728,0.7884615384615384,0.9038461538461539,0.6428571428571429,0.8571428571428571,0.0004
475,0.6348759829998016,1.2963123321533203,0.7884615384615384,0.9423076923076923,0.7142857142857143,0.8571428571428571,0.0004
476,0.6054440438747406,0.7317051291465759,0.8076923076923077,0.9038461538461539,0.8571428571428571,0.8571428571428571,0.0004
477,0.5278307795524597,0.813438892364502,0.9423076923076923,0.8653846153846154,0.7857142857142857,0.7142857142857143,0.0004
478,0.5997887849807739,1.2866857051849365,0.7884615384615384,0.9038461538461539,0.5714285714285714,0.8571428571428571,0.0004
479,0.5408948659896851,0.6836187839508057,0.8269230769230769,0.9230769230769231,0.8571428571428571,0.8571428571428571,0.0004
480,0.6444147229194641,0.8145559430122375,0.8076923076923077,0.9423076923076923,0.7142857142857143,0.8571428571428571,0.0004
481,0.6205560266971588,1.2612842321395874,0.8076923076923077,0.9615384615384616,0.7142857142857143,0.7142857142857143,0.0004
482,0.5097591578960419,0.8675005435943604,0.9038461538461539,0.9230769230769231,0.7857142857142857,0.7142857142857143,0.0004
483,0.5816310346126556,1.0710701942443848,0.8076923076923077,0.9230769230769231,0.7142857142857143,0.7857142857142857,0.0004
484,0.7746542096138,0.9889776706695557,0.7884615384615384,0.9038461538461539,0.7857142857142857,0.7857142857142857,0.0004
485,0.6217682361602783,0.553795337677002,0.8076923076923077,0.9615384615384616,0.7857142857142857,0.8571428571428571,0.0004
486,0.5795022249221802,1.3184553384780884,0.8076923076923077,0.8846153846153846,0.5,0.8571428571428571,0.0004
487,0.6152571439743042,0.9061770439147949,0.7692307692307693,0.9423076923076923,0.8571428571428571,0.8571428571428571,0.0004
488,0.6403020620346069,1.7501258850097656,0.8269230769230769,0.9038461538461539,0.5714285714285714,0.6428571428571429,0.0004
489,0.5757228434085846,1.2352010011672974,0.8076923076923077,0.9038461538461539,0.7142857142857143,0.8571428571428571,0.0004
490,0.6136803030967712,1.0187358856201172,0.75,0.9038461538461539,0.6428571428571429,0.9285714285714286,0.0004
491,0.4950725883245468,1.287459135055542,0.8846153846153846,0.9230769230769231,0.7142857142857143,0.7142857142857143,0.0004
492,0.574275016784668,0.9397159814834595,0.9038461538461539,0.8846153846153846,0.7857142857142857,0.8571428571428571,0.0004
493,0.5756614804267883,0.6742256879806519,0.8461538461538461,0.8846153846153846,0.8571428571428571,0.8571428571428571,0.0004
494,0.40039731562137604,1.1271053552627563,0.8846153846153846,0.9038461538461539,0.5714285714285714,0.8571428571428571,0.0004
495,0.6079719960689545,1.0353665351867676,0.8269230769230769,0.9038461538461539,0.8571428571428571,0.8571428571428571,0.0004
496,0.4842010885477066,1.1747772693634033,0.8461538461538461,0.9230769230769231,0.7142857142857143,0.8571428571428571,0.0004
497,0.48904234170913696,1.201392412185669,0.8461538461538461,0.9038461538461539,0.7142857142857143,0.7857142857142857,0.0004
498,0.6998780965805054,1.7786569595336914,0.75,0.8653846153846154,0.6428571428571429,0.7142857142857143,0.0004
499,0.8292849361896515,1.401570200920105,0.8076923076923077,0.8653846153846154,0.5714285714285714,0.7857142857142857,0.0004
500,0.7138517796993256,0.6158655881881714,0.7884615384615384,0.9230769230769231,0.9285714285714286,0.8571428571428571,0.0004
501,0.5101656019687653,1.0958356857299805,0.8653846153846154,0.9038461538461539,0.7142857142857143,0.7857142857142857,0.0004
502,0.40917646884918213,1.1738110780715942,0.9038461538461539,0.9807692307692307,0.6428571428571429,0.9285714285714286,0.0004
503,0.46788278222084045,1.0143139362335205,0.9038461538461539,0.9038461538461539,0.7857142857142857,0.7142857142857143,0.0004
504,0.5298583209514618,0.67789626121521,0.8653846153846154,0.8461538461538461,0.8571428571428571,0.8571428571428571,0.0004
505,0.5151975154876709,0.6644012331962585,0.8846153846153846,0.9230769230769231,0.8571428571428571,0.9285714285714286,0.0004
506,0.4122045040130615,0.6754467487335205,0.9230769230769231,0.9423076923076923,0.8571428571428571,0.8571428571428571,0.0004
507,0.5129227340221405,1.737372636795044,0.8076923076923077,0.9230769230769231,0.6428571428571429,0.7857142857142857,0.0004
508,0.4860484153032303,1.0704911947250366,0.7884615384615384,0.9615384615384616,0.7142857142857143,0.7857142857142857,0.0004
509,0.5053624212741852,1.5225017070770264,0.9038461538461539,0.9038461538461539,0.6428571428571429,0.7857142857142857,0.0004
510,0.5690025091171265,0.8271751403808594,0.8653846153846154,0.9230769230769231,0.7142857142857143,0.9285714285714286,0.0004
511,0.5783723592758179,1.2465565204620361,0.8269230769230769,0.9423076923076923,0.6428571428571429,0.7857142857142857,0.0004
512,0.45750707387924194,1.7220661640167236,0.8653846153846154,0.9615384615384616,0.5,0.8571428571428571,0.0004
513,0.5607989281415939,0.7258676290512085,0.8076923076923077,0.9038461538461539,0.7857142857142857,0.7142857142857143,0.0004
514,0.42291489243507385,0.965491771697998,0.8846153846153846,0.9615384615384616,0.7857142857142857,0.8571428571428571,0.0004
515,0.7395134568214417,1.3311100006103516,0.8076923076923077,0.9038461538461539,0.6428571428571429,0.9285714285714286,0.0004
516,0.6517294347286224,1.342669129371643,0.8461538461538461,0.8461538461538461,0.6428571428571429,0.7142857142857143,0.0004
517,0.6486575901508331,1.0029112100601196,0.8076923076923077,0.9230769230769231,0.7142857142857143,0.7857142857142857,0.0004
518,0.604872077703476,1.1823327541351318,0.8461538461538461,0.9423076923076923,0.6428571428571429,1.0,0.0004
519,0.42421944439411163,0.923363983631134,0.8461538461538461,1.0,0.7142857142857143,1.0,0.0004
520,0.4531383514404297,1.3149161338806152,0.9230769230769231,0.9230769230769231,0.5714285714285714,1.0,0.0004
521,0.3906990885734558,1.7248144149780273,0.8653846153846154,1.0,0.7142857142857143,0.7142857142857143,0.0004
522,0.5657054483890533,0.7374749183654785,0.8653846153846154,0.9230769230769231,0.7857142857142857,0.8571428571428571,0.0004
523,0.5519191920757294,1.0175602436065674,0.7884615384615384,0.9423076923076923,0.7857142857142857,0.9285714285714286,0.0004
524,0.6681651175022125,0.7439681887626648,0.75,0.8846153846153846,0.8571428571428571,0.7857142857142857,0.0004
525,0.45549212396144867,0.6965742111206055,0.8653846153846154,0.9423076923076923,0.8571428571428571,0.8571428571428571,0.0004
526,0.5357125401496887,1.2470722198486328,0.8653846153846154,0.8653846153846154,0.7142857142857143,0.6428571428571429,0.0004
527,0.6206973791122437,0.9082286357879639,0.7884615384615384,0.9230769230769231,0.7142857142857143,0.7857142857142857,0.0004
528,0.5109912902116776,1.0412732362747192,0.8461538461538461,0.9230769230769231,0.7142857142857143,0.7857142857142857,0.0004
529,0.7889798581600189,1.2067022323608398,0.75,0.9038461538461539,0.6428571428571429,0.8571428571428571,0.0004
530,0.6880413442850113,0.5749656558036804,0.8076923076923077,0.9423076923076923,0.7857142857142857,0.9285714285714286,0.0004
531,0.7542704641819,1.1237175464630127,0.8461538461538461,0.8461538461538461,0.5714285714285714,0.8571428571428571,0.0004
532,0.5803087651729584,1.1792243719100952,0.8269230769230769,0.9615384615384616,0.7142857142857143,0.7857142857142857,0.0004
533,0.4985739141702652,1.4822819232940674,0.8846153846153846,0.9423076923076923,0.5714285714285714,0.8571428571428571,0.0004
534,0.5936504006385803,0.7706941366195679,0.8653846153846154,0.8461538461538461,0.8571428571428571,0.7857142857142857,0.0004
535,0.6301842331886292,2.126581907272339,0.7692307692307693,0.9038461538461539,0.42857142857142855,0.8571428571428571,0.0004
536,0.5617531687021255,0.8576956391334534,0.8461538461538461,0.9230769230769231,0.7142857142857143,0.9285714285714286,0.0004
537,0.5538809597492218,1.10305655002594,0.8076923076923077,0.9423076923076923,0.7142857142857143,0.7857142857142857,0.0004
538,0.6281019449234009,0.8483834266662598,0.8076923076923077,0.9615384615384616,0.7857142857142857,0.7857142857142857,0.0004
539,0.5719136297702789,1.001709222793579,0.8076923076923077,0.8846153846153846,0.7857142857142857,0.7857142857142857,0.0004
540,0.5919172316789627,0.9793103337287903,0.9038461538461539,0.9038461538461539,0.7142857142857143,0.9285714285714286,0.0004
541,0.5631616711616516,1.2405283451080322,0.8269230769230769,0.9230769230769231,0.7142857142857143,0.7142857142857143,0.0004
542,0.47946056723594666,0.8355537056922913,0.9038461538461539,0.9230769230769231,0.8571428571428571,0.7857142857142857,0.0004
543,0.6377228498458862,0.613998532295227,0.8461538461538461,0.8653846153846154,0.9285714285714286,0.7142857142857143,0.0004
544,0.8901793956756592,0.8834986686706543,0.8269230769230769,0.8076923076923077,0.7857142857142857,0.8571428571428571,0.0004
545,0.6722550094127655,1.1172113418579102,0.8653846153846154,0.8653846153846154,0.7142857142857143,0.7857142857142857,0.0004
546,0.6520808935165405,0.8984345197677612,0.8269230769230769,0.9230769230769231,0.7857142857142857,0.8571428571428571,0.0004
547,0.6911816596984863,0.9692816734313965,0.8076923076923077,0.8846153846153846,0.7142857142857143,0.7857142857142857,0.0004
548,0.5461751222610474,1.1630160808563232,0.8846153846153846,0.9615384615384616,0.6428571428571429,0.8571428571428571,0.0004
549,0.5244698226451874,0.5047945380210876,0.8269230769230769,0.9038461538461539,0.9285714285714286,0.9285714285714286,0.0004
550,0.5958795249462128,0.8643169403076172,0.8461538461538461,0.9615384615384616,0.7857142857142857,0.7142857142857143,0.0004
551,0.5198536217212677,1.084791898727417,0.8461538461538461,0.9423076923076923,0.7857142857142857,0.7857142857142857,0.0004
552,0.498699814081192,1.042087435722351,0.9038461538461539,0.9038461538461539,0.5,1.0,0.0004
553,0.6516144573688507,0.772760272026062,0.8076923076923077,0.8846153846153846,0.7857142857142857,0.9285714285714286,0.0004
554,0.5525716543197632,0.5872820615768433,0.7692307692307693,0.9423076923076923,0.7857142857142857,0.9285714285714286,0.0004
555,0.6530857086181641,1.1316571235656738,0.8653846153846154,0.8653846153846154,0.6428571428571429,0.7857142857142857,0.0004
556,0.6746161580085754,1.0294994115829468,0.8461538461538461,0.8653846153846154,0.7142857142857143,0.8571428571428571,0.0004
557,0.6295454055070877,1.548902988433838,0.8076923076923077,0.9423076923076923,0.5714285714285714,0.7857142857142857,0.0004
558,0.44567278027534485,0.7545185089111328,0.8653846153846154,0.9615384615384616,0.7142857142857143,0.8571428571428571,0.0004
559,0.5576899498701096,0.9339126348495483,0.8461538461538461,0.9423076923076923,0.6428571428571429,0.7857142857142857,0.0004
560,0.41114719212055206,0.947613000869751,0.9038461538461539,0.9423076923076923,0.7142857142857143,0.7142857142857143,0.0004
561,0.7176539897918701,0.9682405591011047,0.8269230769230769,0.8846153846153846,0.7142857142857143,0.8571428571428571,0.0004
562,0.6268287897109985,1.2588505744934082,0.75,0.8846153846153846,0.5714285714285714,0.7857142857142857,0.0004
563,0.5100494176149368,1.70170259475708,0.9230769230769231,0.9038461538461539,0.6428571428571429,0.7857142857142857,0.0004
564,0.5442356467247009,1.6276997327804565,0.8846153846153846,0.9615384615384616,0.5714285714285714,0.6428571428571429,0.0004
565,0.5457363128662109,0.9058517217636108,0.8653846153846154,0.8653846153846154,0.7857142857142857,0.8571428571428571,0.0004
566,0.6790502369403839,0.5800854563713074,0.7692307692307693,0.8846153846153846,0.9285714285714286,0.7857142857142857,0.0004
567,0.8261240124702454,1.2702546119689941,0.9038461538461539,0.8461538461538461,0.7142857142857143,0.8571428571428571,0.0004
568,0.44563381373882294,0.8769376277923584,0.8653846153846154,0.9423076923076923,0.6428571428571429,0.9285714285714286,0.0004
569,0.5440565645694733,0.8574926257133484,0.8461538461538461,0.9230769230769231,0.7857142857142857,0.8571428571428571,0.0004
570,0.373274028301239,1.3695271015167236,0.9038461538461539,0.9807692307692307,0.7142857142857143,0.7857142857142857,0.0004
571,0.5282304584980011,0.8544270992279053,0.8653846153846154,0.9230769230769231,0.7857142857142857,0.8571428571428571,0.0004
572,0.590266078710556,1.300541877746582,0.8846153846153846,0.8269230769230769,0.7142857142857143,0.8571428571428571,0.0004
573,0.46438655257225037,0.8902498483657837,0.8461538461538461,0.9615384615384616,0.8571428571428571,0.7857142857142857,0.0004
574,0.7008196711540222,1.1445090770721436,0.7884615384615384,0.8846153846153846,0.7857142857142857,0.7857142857142857,0.0004
575,0.6346199810504913,1.3610436916351318,0.7884615384615384,0.8653846153846154,0.5714285714285714,0.9285714285714286,0.0004
576,0.5654674768447876,1.005725622177124,0.9038461538461539,0.8846153846153846,0.7857142857142857,0.7857142857142857,0.0004
577,0.45361533761024475,0.7946330308914185,0.8461538461538461,0.9807692307692307,0.7142857142857143,0.8571428571428571,0.0004
578,0.8132482469081879,1.2726960182189941,0.8269230769230769,0.9423076923076923,0.7857142857142857,0.7857142857142857,0.0004
579,0.5144534260034561,1.5762120485305786,0.8269230769230769,0.9038461538461539,0.5,0.7142857142857143,0.0004
580,0.5938624739646912,0.6858896017074585,0.8076923076923077,0.9230769230769231,0.8571428571428571,0.8571428571428571,0.0004
581,0.7272883802652359,1.2285076379776,0.8461538461538461,0.9038461538461539,0.5714285714285714,0.9285714285714286,0.0004
582,0.5357520282268524,1.3350623846054077,0.8461538461538461,0.9038461538461539,0.5714285714285714,0.9285714285714286,0.0004
583,0.5216225981712341,0.9964154958724976,0.8461538461538461,0.9615384615384616,0.7142857142857143,0.9285714285714286,0.0004
584,0.586421012878418,0.7021649479866028,0.8076923076923077,0.9807692307692307,0.9285714285714286,0.7857142857142857,0.0004
585,0.4653875231742859,1.3785314559936523,0.8653846153846154,0.9423076923076923,0.5,0.9285714285714286,0.0004
586,0.5498831570148468,1.1863943338394165,0.8653846153846154,0.8846153846153846,0.5714285714285714,0.7857142857142857,0.0004
587,0.5960821509361267,1.114527940750122,0.8653846153846154,0.9230769230769231,0.7142857142857143,0.9285714285714286,0.0004
588,1.0566060841083527,0.723486065864563,0.75,0.9038461538461539,0.7142857142857143,0.8571428571428571,0.0004
589,0.7256324291229248,0.8677075505256653,0.8076923076923077,0.9038461538461539,0.8571428571428571,0.7142857142857143,0.0004
590,0.5281516909599304,1.1086554527282715,0.8076923076923077,0.9423076923076923,0.7142857142857143,0.8571428571428571,0.0004
591,0.4005848467350006,0.7500894665718079,0.9230769230769231,0.9423076923076923,0.7142857142857143,0.7857142857142857,0.0004
592,0.47470852732658386,0.9901714324951172,0.9038461538461539,0.9230769230769231,0.5714285714285714,0.9285714285714286,0.0004
593,0.494268462061882,0.9102634787559509,0.8846153846153846,0.8846153846153846,0.6428571428571429,0.8571428571428571,0.0004
594,0.6826183795928955,1.182147741317749,0.8076923076923077,0.9038461538461539,0.6428571428571429,1.0,0.0004
595,0.4344823509454727,0.9617714881896973,0.8461538461538461,0.9423076923076923,0.7857142857142857,0.8571428571428571,0.0004
596,0.49431872367858887,0.8482370376586914,0.9038461538461539,0.9230769230769231,0.7142857142857143,0.7857142857142857,0.0004
597,0.4472416341304779,1.0850651264190674,0.9038461538461539,0.9230769230769231,0.6428571428571429,1.0,0.0004
598,0.4157238304615021,0.9538908004760742,0.8846153846153846,0.9230769230769231,0.6428571428571429,0.8571428571428571,0.0004
599,0.33571232855319977,1.3428456783294678,0.9230769230769231,0.9807692307692307,0.7142857142857143,0.7857142857142857,0.0004
600,0.5155747532844543,0.9222421646118164,0.8846153846153846,0.9615384615384616,0.8571428571428571,0.9285714285714286,0.0004
601,0.49258503317832947,1.2048909664154053,0.8846153846153846,0.9038461538461539,0.6428571428571429,0.8571428571428571,0.0004
602,0.6719907522201538,0.8474289178848267,0.8846153846153846,0.9038461538461539,0.7857142857142857,0.7857142857142857,0.0004
603,0.5086509138345718,1.2980319261550903,0.8846153846153846,0.9038461538461539,0.6428571428571429,0.8571428571428571,0.0004
604,0.4517309069633484,0.6751128435134888,0.9038461538461539,0.9038461538461539,0.7857142857142857,0.8571428571428571,0.0004
605,0.4719826281070709,1.265005350112915,0.9038461538461539,0.9423076923076923,0.6428571428571429,0.7857142857142857,0.0004
606,0.658875048160553,1.2959482669830322,0.8461538461538461,0.9230769230769231,0.5714285714285714,0.9285714285714286,0.0004
607,0.4704601466655731,1.5030814409255981,0.8846153846153846,0.9038461538461539,0.5714285714285714,0.9285714285714286,0.0004
608,0.5674996376037598,1.0231070518493652,0.8653846153846154,0.9230769230769231,0.7857142857142857,0.7857142857142857,0.0004
609,0.6431231200695038,1.307805061340332,0.8461538461538461,0.9423076923076923,0.7857142857142857,0.7857142857142857,0.0004
610,0.40793123841285706,0.8754019141197205,0.8653846153846154,0.9230769230769231,0.7857142857142857,0.9285714285714286,0.0004
611,0.6122345924377441,1.2294117212295532,0.8076923076923077,0.9615384615384616,0.6428571428571429,0.7857142857142857,0.0004
612,0.49091291427612305,1.1861562728881836,0.8461538461538461,1.0,0.7857142857142857,0.9285714285714286,0.0004
613,0.49255143105983734,0.6614712476730347,0.8269230769230769,0.9230769230769231,0.7857142857142857,1.0,0.0004
614,0.4261598140001297,0.9678120613098145,0.9038461538461539,0.9230769230769231,0.7857142857142857,0.7142857142857143,0.0004
615,0.5332917869091034,0.8135078549385071,0.8269230769230769,0.9230769230769231,0.7857142857142857,0.7857142857142857,0.0004
616,0.4585815966129303,1.0517204999923706,0.8461538461538461,0.9423076923076923,0.7857142857142857,0.7142857142857143,0.0004
617,0.5984823107719421,1.022506833076477,0.8461538461538461,0.8653846153846154,0.7857142857142857,0.8571428571428571,0.0004
618,0.6053090393543243,1.4012370109558105,0.8076923076923077,0.9038461538461539,0.7142857142857143,0.7142857142857143,0.0004
619,0.6898300349712372,1.2300081253051758,0.8269230769230769,0.9038461538461539,0.7142857142857143,0.7857142857142857,0.0004
620,0.5651906728744507,1.0689780712127686,0.8846153846153846,0.9038461538461539,0.6428571428571429,0.8571428571428571,0.0004
621,0.6044816672801971,1.266033411026001,0.7884615384615384,0.9615384615384616,0.5714285714285714,0.9285714285714286,0.0004
622,0.5366953760385513,0.9240872859954834,0.9038461538461539,0.9038461538461539,0.6428571428571429,0.8571428571428571,0.0004
623,0.6835726350545883,0.6703528165817261,0.8076923076923077,0.9038461538461539,0.8571428571428571,0.8571428571428571,0.0004
624,0.48086243867874146,1.5540413856506348,0.8653846153846154,0.9807692307692307,0.5,0.7142857142857143,0.0004
625,0.6548553109169006,1.3079780340194702,0.75,0.9230769230769231,0.5714285714285714,0.8571428571428571,0.0004
626,0.6186850070953369,1.089266300201416,0.8461538461538461,0.9038461538461539,0.6428571428571429,0.8571428571428571,0.0004
627,0.5593226253986359,1.011757731437683,0.8653846153846154,0.8461538461538461,0.6428571428571429,0.9285714285714286,0.0004
628,0.5255927741527557,0.7725063562393188,0.8076923076923077,0.9807692307692307,0.7857142857142857,0.8571428571428571,0.0004
629,0.5293142795562744,0.9134118556976318,0.8846153846153846,0.8653846153846154,0.6428571428571429,0.7857142857142857,0.0004
630,0.38557933270931244,1.405805230140686,0.9423076923076923,0.9423076923076923,0.5,0.9285714285714286,0.0004
631,0.7306943535804749,0.9947719573974609,0.7692307692307693,0.8846153846153846,0.6428571428571429,0.9285714285714286,0.0004
632,0.37491677701473236,1.1786949634552002,0.9615384615384616,0.9423076923076923,0.5,0.8571428571428571,0.0004
633,0.33318424224853516,1.056674599647522,0.9230769230769231,0.9615384615384616,0.7142857142857143,0.7857142857142857,0.0004
634,0.7502943277359009,0.8433094024658203,0.8269230769230769,0.8846153846153846,0.7142857142857143,0.7857142857142857,0.0004
635,0.43265846371650696,1.1326038837432861,0.8846153846153846,0.9615384615384616,0.7857142857142857,0.7142857142857143,0.0004
636,0.405627965927124,1.4809715747833252,0.8846153846153846,0.9423076923076923,0.6428571428571429,0.7142857142857143,0.0004
637,0.5833424776792526,1.6115480661392212,0.8076923076923077,0.9615384615384616,0.5,0.8571428571428571,0.0004
638,0.4915449321269989,1.5059311389923096,0.8653846153846154,0.9423076923076923,0.5714285714285714,0.8571428571428571,0.0004
639,0.609994500875473,1.1630748510360718,0.8269230769230769,0.9230769230769231,0.7857142857142857,0.7142857142857143,0.0004
640,0.4941418170928955,0.7667427659034729,0.8653846153846154,0.9230769230769231,0.7142857142857143,0.9285714285714286,0.0004
641,0.7352625727653503,1.0833861827850342,0.8269230769230769,0.8846153846153846,0.6428571428571429,0.7857142857142857,0.0004
642,0.34751665592193604,0.9147037267684937,0.9038461538461539,0.9615384615384616,0.7142857142857143,0.9285714285714286,0.0004
643,0.5498520135879517,0.8680116534233093,0.8653846153846154,0.8846153846153846,0.7857142857142857,0.9285714285714286,0.0004
644,0.44453366100788116,1.3223562240600586,0.9038461538461539,0.9615384615384616,0.6428571428571429,0.7857142857142857,0.0004
645,0.5773039609193802,0.8577255010604858,0.8461538461538461,0.9423076923076923,0.7857142857142857,0.9285714285714286,0.0004
646,0.444292351603508,1.081996202468872,0.9038461538461539,0.9423076923076923,0.6428571428571429,0.8571428571428571,0.0004
647,0.6086037158966064,0.8678874969482422,0.8653846153846154,0.8461538461538461,0.7857142857142857,0.8571428571428571,0.0004
648,0.5665050894021988,1.0762858390808105,0.8846153846153846,0.9230769230769231,0.7142857142857143,0.8571428571428571,0.0004
649,0.5162273645401001,1.1544406414031982,0.8461538461538461,0.9423076923076923,0.7142857142857143,0.7857142857142857,0.0004
650,0.4923069030046463,1.1278342008590698,0.8461538461538461,0.9230769230769231,0.5714285714285714,0.9285714285714286,0.0004
651,0.3835340887308121,0.7851197719573975,0.9038461538461539,0.9423076923076923,0.7142857142857143,0.8571428571428571,0.0004
652,0.4730120003223419,0.9377681016921997,0.8846153846153846,0.9615384615384616,0.7857142857142857,0.7142857142857143,0.0004
653,0.369431272149086,1.1241776943206787,0.9038461538461539,0.9423076923076923,0.7142857142857143,0.7142857142857143,0.0004
654,0.7504625618457794,1.233915090560913,0.7692307692307693,0.9038461538461539,0.6428571428571429,0.7857142857142857,0.0004
655,0.4819430410861969,1.1753942966461182,0.9423076923076923,0.8846153846153846,0.5714285714285714,0.8571428571428571,0.0004
656,0.522886723279953,0.7377125024795532,0.8653846153846154,0.9230769230769231,0.9285714285714286,0.7142857142857143,0.0004
657,0.5408499836921692,1.069097876548767,0.8846153846153846,0.9038461538461539,0.7142857142857143,0.8571428571428571,0.0004
658,0.5376217067241669,0.5880284905433655,0.8461538461538461,0.9230769230769231,0.8571428571428571,0.8571428571428571,0.0004
659,0.728836715221405,1.0140951871871948,0.8076923076923077,0.8461538461538461,0.7857142857142857,0.7857142857142857,0.0004
660,0.4211532473564148,1.0660121440887451,0.9038461538461539,0.9230769230769231,0.7142857142857143,0.8571428571428571,0.0004
661,0.6380703449249268,1.0652178525924683,0.8461538461538461,0.8846153846153846,0.7857142857142857,0.8571428571428571,0.0004
662,0.572665810585022,0.7572824358940125,0.8461538461538461,0.9230769230769231,0.8571428571428571,0.7142857142857143,0.0004
663,0.389766588807106,1.224871039390564,0.8653846153846154,0.9807692307692307,0.7142857142857143,0.8571428571428571,0.0004
664,0.5789206326007843,1.1846888065338135,0.8269230769230769,0.9615384615384616,0.6428571428571429,0.9285714285714286,0.0004
665,0.664407879114151,1.2240418195724487,0.75,0.9423076923076923,0.7142857142857143,0.8571428571428571,0.0004
666,0.5552483201026917,1.1451787948608398,0.8653846153846154,0.9230769230769231,0.7142857142857143,0.9285714285714286,0.0004
667,0.828519880771637,1.6886875629425049,0.8269230769230769,0.8653846153846154,0.6428571428571429,0.7857142857142857,0.0004
668,0.5911101698875427,1.0467491149902344,0.8269230769230769,0.9038461538461539,0.6428571428571429,0.7857142857142857,0.0004
669,0.7332323789596558,1.431080937385559,0.75,0.9038461538461539,0.6428571428571429,0.9285714285714286,0.0004
670,0.4993400275707245,0.9437283277511597,0.8846153846153846,0.8846153846153846,0.6428571428571429,0.8571428571428571,0.0004
671,0.6318731009960175,1.0595017671585083,0.7307692307692307,0.9230769230769231,0.7857142857142857,0.9285714285714286,0.0004
672,0.4887852072715759,0.7802547812461853,0.8461538461538461,0.9230769230769231,0.7142857142857143,0.6428571428571429,0.0004
673,0.510060578584671,0.9736125469207764,0.8076923076923077,0.9615384615384616,0.7857142857142857,0.7857142857142857,0.0004
674,0.4673137217760086,1.13117253780365,0.9038461538461539,0.9230769230769231,0.6428571428571429,0.9285714285714286,0.0004
675,0.6826505064964294,0.9413710832595825,0.7884615384615384,0.9230769230769231,0.7857142857142857,0.7857142857142857,0.0004
676,0.5620701313018799,0.8901820778846741,0.8846153846153846,0.8653846153846154,0.7142857142857143,0.7857142857142857,0.0004
677,0.6336409747600555,1.335509181022644,0.8076923076923077,0.9423076923076923,0.5714285714285714,0.7857142857142857,0.0004
678,0.4802538901567459,1.041626214981079,0.8653846153846154,0.9038461538461539,0.7857142857142857,0.7857142857142857,0.0004
679,0.6371742188930511,1.654045820236206,0.8269230769230769,0.8461538461538461,0.5,0.8571428571428571,0.0004
680,0.40888048708438873,0.9640634059906006,0.8846153846153846,0.9038461538461539,0.7142857142857143,0.9285714285714286,0.0004
681,0.4943447858095169,1.4063996076583862,0.8461538461538461,0.9230769230769231,0.7142857142857143,0.7142857142857143,0.0004
682,0.44931331276893616,1.0758135318756104,0.8461538461538461,0.9423076923076923,0.6428571428571429,0.7857142857142857,0.0004
683,0.6871620416641235,1.2187411785125732,0.8269230769230769,0.9038461538461539,0.6428571428571429,0.7857142857142857,0.0004
684,0.39521031081676483,0.8277001976966858,0.9038461538461539,0.9615384615384616,0.8571428571428571,0.8571428571428571,0.0004
685,0.5129940807819366,0.9089609384536743,0.8653846153846154,0.9615384615384616,0.6428571428571429,0.7857142857142857,0.0004
686,0.5179017037153244,1.3525160551071167,0.8461538461538461,0.8653846153846154,0.5,0.8571428571428571,0.0004
687,0.6053979992866516,1.0928735733032227,0.8461538461538461,0.9230769230769231,0.5714285714285714,0.7857142857142857,0.0004
688,0.5913715064525604,1.4824440479278564,0.8653846153846154,0.8846153846153846,0.6428571428571429,0.9285714285714286,0.0004
689,0.45180246233940125,1.1387304067611694,0.9038461538461539,0.9615384615384616,0.6428571428571429,0.7857142857142857,0.0004
690,0.49150651693344116,0.9313896894454956,0.8269230769230769,0.9423076923076923,0.9285714285714286,0.7857142857142857,0.0004
691,0.6404557526111603,1.4929512739181519,0.8076923076923077,0.9423076923076923,0.5,0.8571428571428571,0.0004
692,0.5083412677049637,1.3960213661193848,0.9038461538461539,0.9038461538461539,0.6428571428571429,0.8571428571428571,0.0004
693,0.6456151753664017,0.9007278680801392,0.8269230769230769,0.9423076923076923,0.7857142857142857,0.7857142857142857,0.0004
694,0.5655187368392944,1.7283295392990112,0.8846153846153846,0.9230769230769231,0.5714285714285714,0.7142857142857143,0.0004
695,0.6382355690002441,1.2935528755187988,0.8461538461538461,0.9423076923076923,0.7857142857142857,0.7142857142857143,0.0004
696,0.35897044837474823,1.0910876989364624,0.9230769230769231,0.9423076923076923,0.8571428571428571,0.7142857142857143,0.0004
697,0.5148163437843323,0.8392196893692017,0.9038461538461539,0.9230769230769231,0.8571428571428571,0.7857142857142857,0.0004
698,0.5410084426403046,1.0059705972671509,0.7884615384615384,0.8653846153846154,0.6428571428571429,0.7142857142857143,0.0004
699,0.5522937029600143,1.0781643390655518,0.9230769230769231,0.9038461538461539,0.7142857142857143,0.8571428571428571,0.0004
700,0.5380074381828308,0.7190645337104797,0.8461538461538461,0.9038461538461539,0.8571428571428571,0.7142857142857143,0.0004
701,0.4448287785053253,1.1997257471084595,0.9038461538461539,0.9038461538461539,0.5714285714285714,0.8571428571428571,0.0004
702,0.4511416554450989,1.48054039478302,0.8846153846153846,0.9615384615384616,0.7142857142857143,0.8571428571428571,0.0004
703,0.4705621302127838,1.621985673904419,0.8653846153846154,0.9615384615384616,0.6428571428571429,0.8571428571428571,0.0004
704,0.459964320063591,0.9322906732559204,0.8846153846153846,0.9423076923076923,0.8571428571428571,0.8571428571428571,0.0004
705,0.7213256657123566,1.0915368795394897,0.8076923076923077,0.9038461538461539,0.7142857142857143,0.9285714285714286,0.0004
706,0.46844080090522766,1.4270461797714233,0.7884615384615384,0.9230769230769231,0.7142857142857143,0.9285714285714286,0.0004
707,0.4429566115140915,1.1140071153640747,0.8653846153846154,0.9230769230769231,0.6428571428571429,0.8571428571428571,0.0004
708,0.6190532147884369,1.4086469411849976,0.8653846153846154,0.9038461538461539,0.5714285714285714,0.9285714285714286,0.0004
709,0.8839519023895264,0.8612234592437744,0.8269230769230769,0.9038461538461539,0.8571428571428571,0.7142857142857143,0.0004
710,0.36152003705501556,1.4121220111846924,0.9615384615384616,0.8846153846153846,0.5714285714285714,0.7857142857142857,0.0004
711,0.47582434117794037,1.2101631164550781,0.8653846153846154,0.9230769230769231,0.5,0.8571428571428571,0.0004
712,0.6001067459583282,0.7752895355224609,0.8461538461538461,0.9230769230769231,0.7142857142857143,0.9285714285714286,0.0004
713,0.284216970205307,0.6206414103507996,0.9230769230769231,0.9615384615384616,0.7857142857142857,0.7857142857142857,0.0004
714,0.33789917826652527,0.5554836392402649,0.9807692307692307,0.9615384615384616,0.8571428571428571,0.8571428571428571,0.0004
715,0.4321446418762207,1.1786240339279175,0.9038461538461539,0.9423076923076923,0.6428571428571429,0.7857142857142857,0.0004
716,0.3429291397333145,0.764927864074707,0.9230769230769231,0.9423076923076923,0.7857142857142857,0.8571428571428571,0.0004
717,0.482329398393631,1.0097243785858154,0.8653846153846154,0.9230769230769231,0.7142857142857143,0.7857142857142857,0.0004
718,0.5318168550729752,1.0116790533065796,0.8269230769230769,0.9615384615384616,0.7857142857142857,0.7142857142857143,0.0004
719,0.535942792892456,1.0672416687011719,0.8846153846153846,0.9038461538461539,0.7142857142857143,0.7142857142857143,0.0004
720,0.5024547576904297,0.8582484722137451,0.8461538461538461,0.9615384615384616,0.6428571428571429,0.8571428571428571,0.0004
721,0.4258963465690613,0.9458287954330444,0.8846153846153846,0.9038461538461539,0.5714285714285714,0.8571428571428571,0.0004
722,0.4029746651649475,0.8623323440551758,0.9038461538461539,0.9807692307692307,0.8571428571428571,0.7142857142857143,0.0004
723,0.32582542300224304,0.8615274429321289,0.9615384615384616,0.9230769230769231,0.5714285714285714,0.9285714285714286,0.0004
724,0.6524792313575745,1.2295467853546143,0.7884615384615384,0.9038461538461539,0.7142857142857143,0.7142857142857143,0.0004
725,0.359032541513443,1.2325557470321655,0.9038461538461539,0.9615384615384616,0.6428571428571429,0.9285714285714286,0.0004
726,0.5155790597200394,1.3618654012680054,0.8269230769230769,0.9423076923076923,0.6428571428571429,0.7142857142857143,0.0004
727,0.45884039998054504,0.9347750544548035,0.8461538461538461,0.9423076923076923,0.8571428571428571,0.7142857142857143,0.0004
728,0.5981870889663696,1.1700319051742554,0.7884615384615384,0.9230769230769231,0.7142857142857143,0.7857142857142857,0.0004
729,0.32164957374334335,0.7779697775840759,0.9423076923076923,0.9615384615384616,0.8571428571428571,0.7142857142857143,0.0004
730,0.5380370616912842,1.7144612073898315,0.8846153846153846,0.9038461538461539,0.5714285714285714,0.8571428571428571,0.0004
731,0.48642922937870026,1.024370551109314,0.8846153846153846,0.9230769230769231,0.6428571428571429,0.9285714285714286,0.0004
732,0.6179152727127075,1.3917118310928345,0.8269230769230769,0.9230769230769231,0.6428571428571429,0.7142857142857143,0.0004
733,0.35449475049972534,1.0403472185134888,0.8846153846153846,0.9615384615384616,0.7142857142857143,0.7857142857142857,0.0004
734,0.4432125985622406,1.7464425563812256,0.8653846153846154,0.9038461538461539,0.7142857142857143,0.7857142857142857,0.0004
735,0.5513963103294373,1.3712265491485596,0.8461538461538461,0.9615384615384616,0.6428571428571429,0.7857142857142857,0.0004
736,0.8262704014778137,1.25236177444458,0.8269230769230769,0.9230769230769231,0.7857142857142857,0.7142857142857143,0.0004
737,0.4864785671234131,1.2824585437774658,0.8653846153846154,0.9423076923076923,0.6428571428571429,0.8571428571428571,0.0004
738,0.36649635434150696,2.319840431213379,0.9230769230769231,0.9423076923076923,0.6428571428571429,0.8571428571428571,0.0004
739,0.4144871234893799,1.6315667629241943,0.8653846153846154,0.9230769230769231,0.5714285714285714,0.7857142857142857,0.0004
740,0.4425862058997154,1.0843945741653442,0.9038461538461539,0.9230769230769231,0.7857142857142857,0.8571428571428571,0.0004
741,0.5853328704833984,1.0693249702453613,0.8076923076923077,1.0,0.6428571428571429,0.8571428571428571,0.0004
742,0.5997977256774902,1.6273536682128906,0.8269230769230769,0.9615384615384616,0.6428571428571429,0.8571428571428571,0.0004
743,0.4945448040962219,1.1550346612930298,0.8461538461538461,0.9423076923076923,0.7142857142857143,0.6428571428571429,0.0004
744,0.5715339779853821,0.937216579914093,0.8461538461538461,0.9230769230769231,0.9285714285714286,0.6428571428571429,0.0004
745,0.3930866867303848,1.2176164388656616,0.9230769230769231,0.9230769230769231,0.7142857142857143,0.7857142857142857,0.0004
746,0.40145763754844666,1.1732020378112793,0.9038461538461539,0.9230769230769231,0.7142857142857143,0.7142857142857143,0.0004
747,0.4231872856616974,0.6804143190383911,0.8846153846153846,0.9615384615384616,0.8571428571428571,0.8571428571428571,0.0004
748,0.6459205448627472,0.7224812507629395,0.8076923076923077,0.8846153846153846,0.8571428571428571,0.7857142857142857,0.0004
749,0.5416782349348068,0.9432332515716553,0.8846153846153846,0.9615384615384616,0.7857142857142857,0.8571428571428571,0.0004
750,0.6512974202632904,0.8944664597511292,0.8269230769230769,0.9615384615384616,0.7857142857142857,0.7857142857142857,0.0004
751,0.46086302399635315,1.0635058879852295,0.8461538461538461,0.9230769230769231,0.6428571428571429,0.7857142857142857,0.0004
752,0.423735111951828,1.5947456359863281,0.8846153846153846,0.9615384615384616,0.42857142857142855,0.9285714285714286,0.0004
753,0.5906005054712296,0.633898913860321,0.8269230769230769,0.9230769230769231,0.8571428571428571,0.7857142857142857,0.0004
754,0.3566156402230263,0.747347354888916,0.9230769230769231,0.9615384615384616,0.8571428571428571,0.9285714285714286,0.0004
755,0.46358639001846313,1.052477240562439,0.8846153846153846,0.9038461538461539,0.5714285714285714,0.7857142857142857,0.0004
756,0.6381632685661316,0.7712417244911194,0.8653846153846154,0.8846153846153846,0.7857142857142857,0.9285714285714286,0.0004
757,0.47694724798202515,1.2655909061431885,0.8653846153846154,0.9230769230769231,0.7142857142857143,0.6428571428571429,0.0004
758,0.44791263341903687,0.8541392683982849,0.8653846153846154,0.9807692307692307,0.7857142857142857,0.7857142857142857,0.0004
759,0.4490627348423004,0.5070852041244507,0.9230769230769231,0.9423076923076923,0.9285714285714286,0.9285714285714286,0.0004
760,0.3955763429403305,1.398481011390686,0.9230769230769231,0.9807692307692307,0.7857142857142857,0.7857142857142857,0.0004
761,0.5305597633123398,0.9905862808227539,0.9038461538461539,0.9038461538461539,0.8571428571428571,0.5714285714285714,0.0004
762,0.5180104672908783,0.8203475475311279,0.9230769230769231,0.9230769230769231,0.8571428571428571,0.7142857142857143,0.0004
763,0.47244763374328613,0.9817094206809998,0.8461538461538461,0.9423076923076923,0.8571428571428571,0.7857142857142857,0.0004
764,0.5165680795907974,0.9633526802062988,0.7692307692307693,0.9230769230769231,0.8571428571428571,0.5714285714285714,0.0004
765,0.5113682746887207,0.9817341566085815,0.9230769230769231,0.8846153846153846,0.7142857142857143,0.7857142857142857,0.0004
766,0.4457165002822876,1.1651309728622437,0.9230769230769231,0.9807692307692307,0.5,0.7857142857142857,0.0004
767,0.4049081355333328,0.5383782386779785,0.8653846153846154,0.9615384615384616,0.8571428571428571,0.8571428571428571,0.0004
768,0.3227134943008423,1.587307333946228,0.9423076923076923,0.9230769230769231,0.5714285714285714,0.6428571428571429,0.0004
769,0.55195352435112,0.7895697355270386,0.8076923076923077,0.9423076923076923,0.7142857142857143,0.8571428571428571,0.0004
770,0.4313800185918808,0.9913399815559387,0.9423076923076923,0.9230769230769231,0.7857142857142857,0.8571428571428571,0.0004
771,0.4971812814474106,1.6785932779312134,0.8269230769230769,0.9615384615384616,0.6428571428571429,0.7857142857142857,0.0004
772,0.30486100912094116,1.3030275106430054,0.9423076923076923,0.9230769230769231,0.7142857142857143,0.7857142857142857,0.0004
773,0.4819706678390503,1.0163416862487793,0.8461538461538461,0.9230769230769231,0.7142857142857143,0.9285714285714286,0.0004
774,0.492109477519989,0.79163658618927,0.8846153846153846,0.8846153846153846,0.8571428571428571,0.8571428571428571,0.0004
775,0.4744478762149811,1.62617826461792,0.8269230769230769,0.9230769230769231,0.5714285714285714,0.8571428571428571,0.0004
776,0.361861914396286,1.12797212600708,0.8846153846153846,0.9807692307692307,0.7142857142857143,0.7142857142857143,0.0004
777,0.45825695991516113,0.9782595634460449,0.8846153846153846,0.9423076923076923,0.7857142857142857,0.8571428571428571,0.0004
778,0.5656034648418427,1.8286601305007935,0.8653846153846154,0.8846153846153846,0.5714285714285714,0.8571428571428571,0.0004
779,0.4617719501256943,1.0156558752059937,0.8846153846153846,1.0,0.5714285714285714,0.8571428571428571,0.0004
780,0.2911732643842697,1.1111353635787964,0.9423076923076923,0.9615384615384616,0.7857142857142857,0.7142857142857143,0.0004
781,0.5854737162590027,1.4265344142913818,0.8076923076923077,0.9038461538461539,0.6428571428571429,0.7857142857142857,0.0004
782,0.6519064903259277,1.2006707191467285,0.8653846153846154,0.9230769230769231,0.7142857142857143,1.0,0.0004
783,0.498501718044281,1.4144139289855957,0.8269230769230769,0.9423076923076923,0.7142857142857143,0.9285714285714286,0.0004
784,0.5643598735332489,0.9394748210906982,0.8269230769230769,0.9423076923076923,0.7857142857142857,0.7142857142857143,0.0004
785,0.42334266006946564,0.7913704514503479,0.8461538461538461,0.9423076923076923,0.8571428571428571,0.7857142857142857,0.0004
786,0.5217105746269226,1.674751877784729,0.8461538461538461,0.9615384615384616,0.6428571428571429,0.6428571428571429,0.0004
787,0.4368198662996292,0.9610533714294434,0.9230769230769231,0.9423076923076923,0.7857142857142857,0.7142857142857143,0.0004
788,0.5525223016738892,1.1824753284454346,0.8461538461538461,0.9423076923076923,0.7857142857142857,0.7142857142857143,0.0004
789,0.5996772944927216,0.727149486541748,0.8653846153846154,0.9230769230769231,0.7142857142857143,1.0,0.0004
790,0.33164460211992264,1.096781611442566,0.8846153846153846,1.0,0.7142857142857143,0.8571428571428571,0.0004
791,0.5087395012378693,0.9765383005142212,0.8461538461538461,0.9423076923076923,0.7857142857142857,0.8571428571428571,0.0004
792,0.5672696232795715,1.9332482814788818,0.8653846153846154,0.9038461538461539,0.35714285714285715,0.7857142857142857,0.0004
793,0.5025037527084351,1.0405123233795166,0.8846153846153846,0.9038461538461539,0.6428571428571429,0.9285714285714286,0.0004
794,0.33747023344039917,1.2732117176055908,0.9230769230769231,0.9423076923076923,0.6428571428571429,0.7142857142857143,0.0004
795,0.5011283159255981,1.564042329788208,0.8846153846153846,0.9230769230769231,0.6428571428571429,0.9285714285714286,0.0004
796,0.43400849401950836,1.4317758083343506,0.8653846153846154,0.9807692307692307,0.6428571428571429,0.8571428571428571,0.0004
797,0.5274892896413803,0.8619487881660461,0.8461538461538461,0.9423076923076923,0.7142857142857143,0.7857142857142857,0.0004
798,0.3216262757778168,1.351413607597351,0.9423076923076923,0.9230769230769231,0.6428571428571429,0.7857142857142857,0.0004
799,0.37647178769111633,0.8646351099014282,0.9038461538461539,0.9038461538461539,0.7857142857142857,0.7857142857142857,0.0004
800,0.31503812968730927,1.387529730796814,0.9230769230769231,0.9807692307692307,0.6428571428571429,0.7857142857142857,0.0004
801,0.5209423899650574,1.133772611618042,0.8269230769230769,0.9615384615384616,0.8571428571428571,0.7857142857142857,0.0004
802,0.4727808088064194,1.2333462238311768,0.8653846153846154,0.9230769230769231,0.6428571428571429,0.7142857142857143,0.0004
803,0.4986973702907562,1.0836832523345947,0.8653846153846154,0.9423076923076923,0.6428571428571429,0.9285714285714286,0.0004
804,0.39119279384613037,1.624732494354248,0.9230769230769231,0.9615384615384616,0.5714285714285714,0.7142857142857143,0.0004
805,0.4518839418888092,0.9494267702102661,0.8269230769230769,0.9807692307692307,0.6428571428571429,1.0,0.0004
806,0.3595942556858063,1.2054662704467773,0.9230769230769231,0.9230769230769231,0.7142857142857143,0.7857142857142857,0.0004
807,0.4869803935289383,1.2067633867263794,0.8653846153846154,0.9230769230769231,0.7857142857142857,0.7857142857142857,0.0004
808,0.375598281621933,0.5626444816589355,0.8653846153846154,1.0,0.8571428571428571,1.0,0.0004
809,0.6121015250682831,1.0535916090011597,0.8269230769230769,0.9615384615384616,0.7142857142857143,0.8571428571428571,0.0004
810,0.29953208565711975,1.1651581525802612,0.9423076923076923,0.9615384615384616,0.6428571428571429,0.9285714285714286,0.0004
811,0.4273120164871216,0.8644485473632812,0.8846153846153846,0.9615384615384616,0.7857142857142857,0.6428571428571429,0.0004
812,0.32759790122509,1.2039191722869873,0.9038461538461539,0.9615384615384616,0.5714285714285714,0.8571428571428571,0.0004
813,0.4737679064273834,1.120107650756836,0.9038461538461539,0.9615384615384616,0.7857142857142857,0.7142857142857143,0.0004
814,0.3198396563529968,1.3588703870773315,0.9038461538461539,0.9423076923076923,0.7142857142857143,0.7857142857142857,0.0004
815,0.5637025833129883,1.0902278423309326,0.8461538461538461,0.9038461538461539,0.7857142857142857,0.7142857142857143,0.0004
816,0.38345733284950256,0.6450161933898926,0.9038461538461539,0.9615384615384616,0.7857142857142857,0.9285714285714286,0.0004
817,0.5153379142284393,0.9370464086532593,0.8846153846153846,0.9423076923076923,0.7857142857142857,0.7142857142857143,0.0004
818,0.5447093695402145,1.0513843297958374,0.8653846153846154,0.9038461538461539,0.7857142857142857,0.7857142857142857,0.0004
819,0.49067914485931396,0.7947474718093872,0.8269230769230769,0.8846153846153846,0.8571428571428571,0.7857142857142857,0.0004
820,0.4084024876356125,0.7232739925384521,0.8846153846153846,0.9423076923076923,0.8571428571428571,0.7857142857142857,0.0004
821,0.3891967236995697,1.8956630229949951,0.9423076923076923,0.9230769230769231,0.5714285714285714,0.7142857142857143,0.0004
822,0.5287897139787674,0.9186369776725769,0.7692307692307693,0.9423076923076923,0.8571428571428571,0.7857142857142857,0.0004
823,0.5857878923416138,1.136846899986267,0.8461538461538461,0.8846153846153846,0.8571428571428571,0.7857142857142857,0.0004
824,0.44693031907081604,1.8133214712142944,0.8653846153846154,0.9423076923076923,0.5714285714285714,0.8571428571428571,0.0004
825,0.40717343986034393,0.6063417196273804,0.8653846153846154,0.9423076923076923,0.9285714285714286,0.8571428571428571,0.0004
826,0.5225998908281326,0.9648903608322144,0.7692307692307693,0.9615384615384616,0.7142857142857143,0.7142857142857143,0.0004
827,0.5857552587985992,0.5942023992538452,0.8461538461538461,0.9230769230769231,0.7857142857142857,0.9285714285714286,0.0004
828,0.38442856073379517,1.2131884098052979,0.9038461538461539,0.9230769230769231,0.7142857142857143,0.7857142857142857,0.0004
829,0.37655363976955414,0.8391828536987305,0.8846153846153846,0.9423076923076923,0.8571428571428571,0.7142857142857143,0.0004
830,0.5394903719425201,0.8685035705566406,0.8076923076923077,0.9423076923076923,0.6428571428571429,0.7857142857142857,0.0004
831,0.4670794606208801,1.4412102699279785,0.8653846153846154,0.9230769230769231,0.5714285714285714,0.9285714285714286,0.0004
832,0.494506299495697,0.5873011350631714,0.8461538461538461,0.9615384615384616,0.8571428571428571,0.8571428571428571,0.0004
833,0.39557141065597534,1.209811806678772,0.9230769230769231,0.9423076923076923,0.7857142857142857,0.7142857142857143,0.0004
834,0.3739166855812073,1.3624074459075928,0.8461538461538461,0.9807692307692307,0.7142857142857143,0.8571428571428571,0.0004
835,0.5040857493877411,0.9300954341888428,0.9615384615384616,0.8653846153846154,0.7142857142857143,0.8571428571428571,0.0004
836,0.42552371323108673,0.565178394317627,0.8461538461538461,0.9615384615384616,0.8571428571428571,0.8571428571428571,0.0004
837,0.582671046257019,1.1976240873336792,0.8653846153846154,0.9230769230769231,0.7142857142857143,0.9285714285714286,0.0004
838,0.3982938826084137,0.7087684869766235,0.9423076923076923,0.9230769230769231,0.7857142857142857,0.7857142857142857,0.0004
839,0.3799659311771393,1.188903570175171,0.9423076923076923,0.9615384615384616,0.6428571428571429,0.9285714285714286,0.0004
840,0.5088719576597214,1.6810897588729858,0.9038461538461539,0.9230769230769231,0.5714285714285714,0.8571428571428571,0.0004
841,0.5923144519329071,1.2768317461013794,0.9230769230769231,0.9615384615384616,0.5714285714285714,0.7857142857142857,0.0004
842,0.37615713477134705,0.7091942429542542,0.9423076923076923,0.9423076923076923,0.8571428571428571,0.9285714285714286,0.0004
843,0.3995140343904495,0.9586907625198364,0.9230769230769231,0.9230769230769231,0.7142857142857143,0.9285714285714286,0.0004
844,0.3805268704891205,0.8988676071166992,0.9038461538461539,0.9423076923076923,0.7142857142857143,0.7857142857142857,0.0004
845,0.5633796453475952,1.153907299041748,0.8269230769230769,0.9423076923076923,0.7142857142857143,0.7857142857142857,0.0004
846,0.5735940933227539,1.162765383720398,0.8846153846153846,0.9230769230769231,0.6428571428571429,0.8571428571428571,0.0004
847,0.453199103474617,0.9175618886947632,0.9230769230769231,0.9230769230769231,0.7142857142857143,0.8571428571428571,0.0004
848,0.5570969879627228,1.3321008682250977,0.8076923076923077,0.9423076923076923,0.7142857142857143,0.7142857142857143,0.0004
849,0.34918907284736633,1.0455495119094849,0.8846153846153846,0.9615384615384616,0.7857142857142857,0.7142857142857143,0.0004
850,0.40439969301223755,0.5871860980987549,0.9230769230769231,0.9230769230769231,0.9285714285714286,0.9285714285714286,0.0004
851,0.37800560891628265,1.333148717880249,0.9615384615384616,0.9230769230769231,0.6428571428571429,0.8571428571428571,0.0004
852,0.5283962488174438,0.9634122848510742,0.8846153846153846,0.9423076923076923,0.7857142857142857,0.7857142857142857,0.0004
853,0.45697779953479767,0.9961674213409424,0.8461538461538461,0.9807692307692307,0.7142857142857143,0.8571428571428571,0.0004
854,0.7034936547279358,1.8964518308639526,0.7692307692307693,0.9615384615384616,0.5714285714285714,0.7142857142857143,0.0004
855,0.4588804543018341,0.8397743701934814,0.9038461538461539,0.9230769230769231,0.7142857142857143,0.8571428571428571,0.0004
856,0.344801589846611,1.01283860206604,0.8653846153846154,1.0,0.7142857142857143,0.7857142857142857,0.0004
857,0.5572362542152405,1.2812492847442627,0.8461538461538461,0.8846153846153846,0.6428571428571429,0.8571428571428571,0.0004
858,0.44637954235076904,1.0898988246917725,0.9038461538461539,0.9230769230769231,0.5714285714285714,0.7857142857142857,0.0004
859,0.3445402681827545,1.2049959897994995,0.9038461538461539,1.0,0.6428571428571429,0.8571428571428571,0.0004
860,0.6488972157239914,0.8966759443283081,0.8076923076923077,0.9423076923076923,0.7142857142857143,0.7857142857142857,0.0004
861,0.7689907550811768,1.2868595123291016,0.7307692307692307,0.9423076923076923,0.7142857142857143,0.8571428571428571,0.0004
862,0.3760954588651657,0.6082684397697449,0.9230769230769231,0.9230769230769231,0.8571428571428571,0.8571428571428571,0.0004
863,0.4111034870147705,1.1635088920593262,0.8653846153846154,0.9615384615384616,0.7142857142857143,0.7857142857142857,0.0004
864,0.5725431144237518,0.8445714712142944,0.8653846153846154,0.9423076923076923,0.7857142857142857,0.7857142857142857,0.0004
865,0.7477992475032806,1.1052535772323608,0.8076923076923077,0.9038461538461539,0.7857142857142857,0.7142857142857143,0.0004
866,0.5115436613559723,1.3929113149642944,0.8461538461538461,0.9423076923076923,0.5714285714285714,0.7857142857142857,0.0004
867,0.4053850620985031,0.90029376745224,0.8846153846153846,0.9615384615384616,0.7857142857142857,0.7142857142857143,0.0004
868,0.5927369296550751,1.0234191417694092,0.7692307692307693,0.9615384615384616,0.7142857142857143,0.7857142857142857,0.0004
869,0.45500119030475616,1.4175844192504883,0.8461538461538461,0.9230769230769231,0.7142857142857143,0.5714285714285714,0.0004
870,0.45639459788799286,1.9774105548858643,0.8846153846153846,0.9423076923076923,0.5,0.7142857142857143,0.0004
871,0.4681667983531952,1.1352062225341797,0.8846153846153846,0.9230769230769231,0.7142857142857143,0.7142857142857143,0.0004
872,0.4357456564903259,0.7393168807029724,0.8846153846153846,0.9038461538461539,0.8571428571428571,0.7857142857142857,0.0004
873,0.4929748475551605,1.297529935836792,0.8846153846153846,0.9038461538461539,0.6428571428571429,0.7857142857142857,0.0004
874,0.6621025800704956,0.861127495765686,0.8076923076923077,0.9038461538461539,0.8571428571428571,0.7142857142857143,0.0004
875,0.5150911509990692,0.9578747749328613,0.8653846153846154,0.9038461538461539,0.6428571428571429,0.7857142857142857,0.0004
876,0.7073941826820374,0.9174498915672302,0.75,0.8846153846153846,0.7857142857142857,0.9285714285714286,0.0004
877,0.4130815863609314,0.8526136875152588,0.8846153846153846,0.9807692307692307,0.8571428571428571,0.7857142857142857,0.0004
878,0.45021802932024,0.861422061920166,0.9230769230769231,0.9230769230769231,0.6428571428571429,0.9285714285714286,0.0004
879,0.39852848649024963,1.2189905643463135,0.8461538461538461,0.9230769230769231,0.7857142857142857,0.6428571428571429,0.0004
880,0.5320623517036438,1.186833381652832,0.8269230769230769,0.9230769230769231,0.7142857142857143,0.7857142857142857,0.0004
881,0.40327712893486023,0.9879197478294373,0.9038461538461539,0.9423076923076923,0.7142857142857143,0.7857142857142857,0.0004
882,0.41731829941272736,1.4349428415298462,0.8653846153846154,0.9615384615384616,0.6428571428571429,0.8571428571428571,0.0004
883,0.3371048718690872,0.8951296210289001,0.9230769230769231,0.9615384615384616,0.7857142857142857,0.8571428571428571,0.0004
884,0.3174969404935837,0.7794266939163208,0.9038461538461539,0.9423076923076923,0.9285714285714286,0.7857142857142857,0.0004
885,0.43915779888629913,0.9273290634155273,0.8461538461538461,0.9807692307692307,0.7857142857142857,0.7857142857142857,0.0004
886,0.41719281673431396,1.302748203277588,0.8461538461538461,0.9615384615384616,0.7857142857142857,0.7142857142857143,0.0004
887,0.5105565786361694,1.268375277519226,0.7692307692307693,0.9230769230769231,0.5714285714285714,0.7857142857142857,0.0004
888,0.7170984447002411,1.2275044918060303,0.7884615384615384,0.9038461538461539,0.7142857142857143,0.6428571428571429,0.0004
889,0.4614335298538208,0.9360657930374146,0.8461538461538461,0.9423076923076923,0.6428571428571429,0.9285714285714286,0.0004
890,0.28875716030597687,0.9091989994049072,0.9038461538461539,1.0,0.7142857142857143,0.9285714285714286,0.0004
891,0.38569942116737366,0.9542248249053955,0.9038461538461539,0.9423076923076923,0.6428571428571429,1.0,0.0004
892,0.4520278573036194,1.3519384860992432,0.8461538461538461,0.9423076923076923,0.5714285714285714,0.7857142857142857,0.0004
893,0.5257626324892044,0.7597589492797852,0.8076923076923077,0.9423076923076923,0.9285714285714286,0.7142857142857143,0.0004
894,0.5360107123851776,0.829116702079773,0.8846153846153846,0.9230769230769231,0.8571428571428571,0.8571428571428571,0.0004
895,0.5092319548130035,1.1040101051330566,0.8846153846153846,0.9038461538461539,0.7142857142857143,0.8571428571428571,0.0004
896,0.3730096220970154,1.0708320140838623,0.9423076923076923,0.8846153846153846,0.7857142857142857,0.7142857142857143,0.0004
897,0.3346383646130562,1.1574376821517944,0.9615384615384616,0.9038461538461539,0.6428571428571429,0.8571428571428571,0.0004
898,0.48596322536468506,0.9200919270515442,0.8461538461538461,0.9615384615384616,0.7857142857142857,0.9285714285714286,0.0004
899,0.34896647930145264,0.6033920049667358,0.9230769230769231,0.9230769230769231,0.7857142857142857,0.8571428571428571,0.0004
900,0.28066494315862656,1.0466338396072388,0.9423076923076923,1.0,0.7857142857142857,0.7857142857142857,0.0004
901,0.4695844501256943,0.9449813365936279,0.9038461538461539,0.9038461538461539,0.7142857142857143,0.8571428571428571,0.0004
902,0.42061014473438263,1.4475080966949463,0.8653846153846154,0.9615384615384616,0.6428571428571429,0.6428571428571429,0.0004
903,0.372387170791626,1.2676482200622559,0.8653846153846154,0.9423076923076923,0.7857142857142857,0.7857142857142857,0.0004
904,0.5710942149162292,0.8133950233459473,0.7884615384615384,0.9230769230769231,0.7857142857142857,0.8571428571428571,0.0004
905,0.40115827322006226,0.9930784702301025,0.9038461538461539,0.9423076923076923,0.7857142857142857,0.9285714285714286,0.0004
906,0.37372395396232605,1.2528820037841797,0.8653846153846154,0.9615384615384616,0.7857142857142857,0.7142857142857143,0.0004
907,0.398074135184288,0.544025182723999,0.8269230769230769,0.9615384615384616,0.8571428571428571,0.8571428571428571,0.0004
908,0.5773220062255859,0.8329957127571106,0.8461538461538461,0.9038461538461539,0.8571428571428571,0.8571428571428571,0.0004
909,0.37135837972164154,0.9334020018577576,0.9423076923076923,0.9230769230769231,0.7142857142857143,0.8571428571428571,0.0004
910,0.6226780712604523,0.7947227954864502,0.8461538461538461,0.9423076923076923,0.8571428571428571,0.9285714285714286,0.0004
911,0.30395184457302094,0.9655821919441223,0.9615384615384616,0.9615384615384616,0.7857142857142857,0.8571428571428571,0.0004
912,0.37293416261672974,0.8291143178939819,0.8846153846153846,0.9615384615384616,0.7857142857142857,0.7857142857142857,0.0004
913,0.32322095334529877,1.6327522993087769,0.9230769230769231,0.9615384615384616,0.7142857142857143,0.6428571428571429,0.0004
914,0.3945937007665634,1.5756125450134277,0.9038461538461539,0.9038461538461539,0.5714285714285714,0.7142857142857143,0.0004
915,0.7012081146240234,1.0320141315460205,0.8076923076923077,0.9423076923076923,0.7142857142857143,0.9285714285714286,0.0004
916,0.5893712639808655,0.855317234992981,0.8461538461538461,0.9615384615384616,0.7142857142857143,0.9285714285714286,0.0004
917,0.5832110643386841,1.0436389446258545,0.8653846153846154,0.9038461538461539,0.8571428571428571,0.7142857142857143,0.0004
918,0.3207605332136154,1.311320185661316,0.8846153846153846,0.9423076923076923,0.7142857142857143,0.7857142857142857,0.0004
919,0.5066098421812057,1.1030646562576294,0.8076923076923077,0.9807692307692307,0.8571428571428571,0.6428571428571429,0.0004
920,0.5823387205600739,1.0716543197631836,0.8269230769230769,0.9230769230769231,0.7857142857142857,0.7857142857142857,0.0004
921,0.40530309826135635,0.8386931419372559,0.8846153846153846,0.9423076923076923,0.7857142857142857,0.8571428571428571,0.0004
922,0.4558328539133072,1.1052688360214233,0.9038461538461539,0.9230769230769231,0.7857142857142857,0.8571428571428571,0.0004
923,0.3802584111690521,1.5316152572631836,0.8653846153846154,0.9615384615384616,0.5714285714285714,0.6428571428571429,0.0004
924,0.36038578301668167,0.923358142375946,0.9230769230769231,0.9807692307692307,0.7142857142857143,0.7857142857142857,0.0004
925,0.36442986130714417,1.7967103719711304,0.8846153846153846,0.9615384615384616,0.7142857142857143,0.8571428571428571,0.0004
926,0.31327078491449356,0.8446158766746521,0.8461538461538461,0.9807692307692307,0.7142857142857143,0.8571428571428571,0.0004
927,0.5902820825576782,1.1941907405853271,0.8461538461538461,0.9423076923076923,0.7142857142857143,0.7857142857142857,0.0004
928,0.3908824771642685,1.1212817430496216,0.9230769230769231,0.9038461538461539,0.5714285714285714,0.7857142857142857,0.0004
929,0.5238334536552429,0.9648046493530273,0.8269230769230769,0.9423076923076923,0.7857142857142857,0.7142857142857143,0.0004
930,0.36531568318605423,1.2144112586975098,0.9423076923076923,0.9615384615384616,0.5714285714285714,0.8571428571428571,0.0004
931,0.3720308244228363,0.7793500423431396,0.9038461538461539,0.9230769230769231,0.7142857142857143,0.7857142857142857,0.0004
932,0.3966989517211914,1.2457830905914307,0.8461538461538461,0.9423076923076923,0.7142857142857143,0.8571428571428571,0.0004
933,0.3545473664999008,1.1552152633666992,0.9230769230769231,0.9807692307692307,0.5714285714285714,0.7857142857142857,0.0004
934,0.4355187714099884,1.0664819478988647,0.9038461538461539,0.9038461538461539,0.7142857142857143,0.7857142857142857,0.0004
935,0.32749542593955994,1.1798629760742188,0.9230769230769231,0.9615384615384616,0.5714285714285714,0.9285714285714286,0.0004
936,0.6731930077075958,0.9201004505157471,0.8461538461538461,0.9423076923076923,0.7857142857142857,0.7857142857142857,0.0004
937,0.416327565908432,0.877585232257843,0.9038461538461539,0.9423076923076923,0.7857142857142857,0.7142857142857143,0.0004
938,0.34178683161735535,1.056692123413086,0.8846153846153846,0.9807692307692307,0.6428571428571429,0.8571428571428571,0.0004
939,0.3569318801164627,0.8608498573303223,0.8653846153846154,0.9615384615384616,0.7857142857142857,0.7857142857142857,0.0004
940,0.49397726356983185,0.756791889667511,0.9038461538461539,0.8846153846153846,0.7142857142857143,0.8571428571428571,0.0004
941,0.31806203722953796,1.4581310749053955,0.8846153846153846,0.9807692307692307,0.5714285714285714,0.9285714285714286,0.0004
942,0.3849741518497467,1.069912075996399,0.8846153846153846,0.9423076923076923,0.7857142857142857,0.7857142857142857,0.0004
943,0.4355541914701462,0.8005136251449585,0.9230769230769231,0.9423076923076923,0.7142857142857143,0.8571428571428571,0.0004
944,0.38059136271476746,0.9049782752990723,0.9423076923076923,0.9423076923076923,0.7857142857142857,0.7142857142857143,0.0004
945,0.624496340751648,0.6285319328308105,0.7692307692307693,0.9038461538461539,0.7142857142857143,1.0,0.0004
946,0.5547738075256348,0.7144434452056885,0.8653846153846154,0.9423076923076923,0.7857142857142857,0.9285714285714286,0.0004
947,0.3349701166152954,1.0073013305664062,0.8653846153846154,0.9615384615384616,0.7857142857142857,0.8571428571428571,0.0004
948,0.612756609916687,1.2011001110076904,0.8076923076923077,0.9230769230769231,0.7857142857142857,0.7142857142857143,0.0004
949,0.6325513571500778,0.7480780482292175,0.75,0.8461538461538461,0.7857142857142857,0.9285714285714286,0.0004
950,0.315544530749321,0.6819545030593872,0.8846153846153846,1.0,0.7857142857142857,0.7857142857142857,0.0004
951,0.4551319032907486,0.9058060646057129,0.8846153846153846,0.9423076923076923,0.7857142857142857,0.7142857142857143,0.0004
952,0.4838029742240906,0.929665744304657,0.8269230769230769,0.9615384615384616,0.7857142857142857,0.7857142857142857,0.0004
953,0.44468946754932404,0.879653811454773,0.9230769230769231,0.9038461538461539,0.8571428571428571,0.7857142857142857,0.0004
954,0.3813573122024536,0.8565676212310791,0.8076923076923077,0.9807692307692307,0.7857142857142857,0.7142857142857143,0.0004
955,0.48565052449703217,1.1066280603408813,0.8846153846153846,0.8846153846153846,0.6428571428571429,0.7142857142857143,0.0004
956,0.4479173421859741,0.7611128091812134,0.8846153846153846,0.9807692307692307,0.7857142857142857,0.8571428571428571,0.0004
957,0.3309544622898102,0.8462674617767334,0.9230769230769231,0.9615384615384616,0.7857142857142857,0.7857142857142857,0.0004
958,0.4919764995574951,0.7771637439727783,0.8846153846153846,0.9038461538461539,0.7857142857142857,0.8571428571428571,0.0004
959,0.3285828307271004,0.8165355324745178,0.9038461538461539,0.9807692307692307,0.9285714285714286,0.7857142857142857,0.0004
960,0.5940369367599487,2.2125322818756104,0.7692307692307693,0.9423076923076923,0.5,0.7142857142857143,0.0004
961,0.2982446253299713,0.7828825116157532,0.9230769230769231,0.9423076923076923,0.8571428571428571,0.7857142857142857,0.0004
962,0.44916367530822754,1.1793129444122314,0.8461538461538461,0.9423076923076923,0.7857142857142857,0.7142857142857143,0.0004
963,0.4093708246946335,0.7385411262512207,0.9038461538461539,0.9615384615384616,0.9285714285714286,0.7142857142857143,0.0004
964,0.35130538046360016,1.32956862449646,0.8846153846153846,0.9615384615384616,0.6428571428571429,0.7857142857142857,0.0004
965,0.26154693961143494,0.7881714105606079,0.9038461538461539,0.9615384615384616,0.7857142857142857,0.7857142857142857,0.0004
966,0.30847035348415375,1.3387668132781982,0.9038461538461539,0.9423076923076923,0.6428571428571429,0.7142857142857143,0.0004
967,0.5192387253046036,1.7497429847717285,0.8653846153846154,0.9230769230769231,0.6428571428571429,0.7142857142857143,0.0004
968,0.40821030735969543,1.0192484855651855,0.9230769230769231,0.9615384615384616,0.5714285714285714,0.9285714285714286,0.0004
969,0.37694956362247467,1.1012773513793945,0.9038461538461539,0.9615384615384616,0.6428571428571429,0.7857142857142857,0.0004
970,0.49684034287929535,1.3875998258590698,0.8269230769230769,0.9615384615384616,0.7142857142857143,0.7857142857142857,0.0004
971,0.5401073098182678,1.0768344402313232,0.8653846153846154,0.9615384615384616,0.7142857142857143,0.8571428571428571,0.0004
972,0.2889074236154556,0.9392509460449219,0.9230769230769231,0.9807692307692307,0.7142857142857143,0.9285714285714286,0.0004
973,0.448627308011055,0.7451515197753906,0.8653846153846154,0.9230769230769231,0.7142857142857143,0.8571428571428571,0.0004
974,0.6021231114864349,1.0626097917556763,0.8461538461538461,0.8846153846153846,0.5,1.0,0.0004
975,0.5931980311870575,1.4693318605422974,0.7884615384615384,0.9615384615384616,0.6428571428571429,0.7857142857142857,0.0004
976,0.3937697857618332,1.1465556621551514,0.9038461538461539,0.8846153846153846,0.6428571428571429,0.7142857142857143,0.0004
977,0.5928887724876404,0.6901578903198242,0.8846153846153846,0.9038461538461539,0.7857142857142857,0.7857142857142857,0.0004
978,0.33302030712366104,1.1557754278182983,0.9423076923076923,0.9423076923076923,0.7142857142857143,0.6428571428571429,0.0004
