epoch,train_loss,val_loss,train_acc_action,train_acc_status,val_acc_action,val_acc_status,learning_rate
1,1.8103142976760864,1.8322937488555908,0.36538461538461536,0.17307692307692307,0.21428571428571427,0.14285714285714285,0.0004
2,1.7982622981071472,1.8221256732940674,0.36538461538461536,0.17307692307692307,0.21428571428571427,0.5,0.0004
3,1.783115804195404,1.812145471572876,0.36538461538461536,0.5769230769230769,0.21428571428571427,0.8571428571428571,0.0004
4,1.7747553586959839,1.8004920482635498,0.36538461538461536,0.8269230769230769,0.21428571428571427,0.8571428571428571,0.0004
5,1.7578756213188171,1.7820651531219482,0.36538461538461536,0.8269230769230769,0.21428571428571427,0.8571428571428571,0.0004
6,1.75387704372406,1.7674355506896973,0.36538461538461536,0.8269230769230769,0.21428571428571427,0.8571428571428571,0.0004
7,1.7168509364128113,1.7582213878631592,0.36538461538461536,0.8269230769230769,0.21428571428571427,0.8571428571428571,0.0004
8,1.6466885805130005,1.7016825675964355,0.36538461538461536,0.8269230769230769,0.21428571428571427,0.8571428571428571,0.0004
9,1.6343046426773071,1.6842504739761353,0.36538461538461536,0.8269230769230769,0.21428571428571427,0.8571428571428571,0.0004
10,1.5496571063995361,1.6902084350585938,0.36538461538461536,0.8269230769230769,0.21428571428571427,0.8571428571428571,0.0004
11,1.5814002752304077,1.6864873170852661,0.36538461538461536,0.8269230769230769,0.21428571428571427,0.8571428571428571,0.0004
12,1.5627766847610474,1.705371379852295,0.36538461538461536,0.8269230769230769,0.21428571428571427,0.8571428571428571,0.0004
13,1.6588754057884216,1.6613833904266357,0.36538461538461536,0.8269230769230769,0.21428571428571427,0.8571428571428571,0.0004
14,1.5762126445770264,1.5909456014633179,0.36538461538461536,0.8269230769230769,0.21428571428571427,0.8571428571428571,0.0004
15,1.5618520975112915,1.5523386001586914,0.36538461538461536,0.8269230769230769,0.21428571428571427,0.8571428571428571,0.0004
16,1.5237059593200684,1.5463478565216064,0.36538461538461536,0.8269230769230769,0.21428571428571427,0.8571428571428571,0.0004
17,1.5141099095344543,1.5231659412384033,0.36538461538461536,0.8269230769230769,0.21428571428571427,0.8571428571428571,0.0004
18,1.5373620986938477,1.559964656829834,0.36538461538461536,0.8269230769230769,0.21428571428571427,0.8571428571428571,0.0004
19,1.5733975172042847,1.5289502143859863,0.36538461538461536,0.8269230769230769,0.21428571428571427,0.8571428571428571,0.0004
20,1.559445559978485,1.532612681388855,0.36538461538461536,0.8269230769230769,0.21428571428571427,0.8571428571428571,0.0004
21,1.54037606716156,1.5598642826080322,0.36538461538461536,0.8269230769230769,0.21428571428571427,0.8571428571428571,0.0004
22,1.548178255558014,1.5285722017288208,0.34615384615384615,0.8269230769230769,0.21428571428571427,0.8571428571428571,0.0004
23,1.523948848247528,1.494646430015564,0.36538461538461536,0.8269230769230769,0.21428571428571427,0.8571428571428571,0.0004
24,1.5173528790473938,1.5229359865188599,0.36538461538461536,0.8269230769230769,0.21428571428571427,0.8571428571428571,0.0004
25,1.512292742729187,1.507472038269043,0.36538461538461536,0.8269230769230769,0.21428571428571427,0.8571428571428571,0.0004
26,1.5220428109169006,1.5168938636779785,0.36538461538461536,0.8269230769230769,0.21428571428571427,0.8571428571428571,0.0004
27,1.5307196974754333,1.5959551334381104,0.36538461538461536,0.8269230769230769,0.21428571428571427,0.8571428571428571,0.0004
28,1.5136105418205261,1.5692709684371948,0.36538461538461536,0.8269230769230769,0.21428571428571427,0.8571428571428571,0.0004
29,1.5451621413230896,1.5359678268432617,0.36538461538461536,0.8269230769230769,0.21428571428571427,0.8571428571428571,0.0004
30,1.492453157901764,1.4467475414276123,0.36538461538461536,0.8269230769230769,0.21428571428571427,0.8571428571428571,0.0004
31,1.461298406124115,1.5838488340377808,0.36538461538461536,0.8269230769230769,0.21428571428571427,0.8571428571428571,0.0004
32,1.4553512334823608,1.5585534572601318,0.36538461538461536,0.8269230769230769,0.21428571428571427,0.8571428571428571,0.0004
33,1.4444093704223633,1.4732956886291504,0.36538461538461536,0.8269230769230769,0.21428571428571427,0.8571428571428571,0.0004
34,1.459216833114624,1.4403562545776367,0.36538461538461536,0.8269230769230769,0.21428571428571427,0.8571428571428571,0.0004
35,1.4275875687599182,1.536806583404541,0.36538461538461536,0.8269230769230769,0.21428571428571427,0.8571428571428571,0.0004
36,1.3921001553535461,1.6966890096664429,0.36538461538461536,0.8269230769230769,0.21428571428571427,0.8571428571428571,0.0004
37,1.3509994149208069,1.4554246664047241,0.36538461538461536,0.8269230769230769,0.21428571428571427,0.8571428571428571,0.0004
38,1.4748305082321167,1.6426717042922974,0.36538461538461536,0.8269230769230769,0.21428571428571427,0.8571428571428571,0.0004
39,1.3295722007751465,1.6284539699554443,0.36538461538461536,0.8269230769230769,0.21428571428571427,0.8571428571428571,0.0004
40,1.5846667289733887,1.633209228515625,0.36538461538461536,0.8269230769230769,0.21428571428571427,0.8571428571428571,0.0004
41,1.6935378313064575,1.626938819885254,0.36538461538461536,0.8269230769230769,0.21428571428571427,0.8571428571428571,0.0004
42,1.6515473127365112,1.6049572229385376,0.36538461538461536,0.8269230769230769,0.21428571428571427,0.8571428571428571,0.0004
43,1.600896179676056,1.579063057899475,0.36538461538461536,0.8269230769230769,0.21428571428571427,0.8571428571428571,0.0004
44,1.636749029159546,1.5527211427688599,0.36538461538461536,0.8269230769230769,0.21428571428571427,0.8571428571428571,0.0004
45,1.5214300155639648,1.534665822982788,0.36538461538461536,0.8269230769230769,0.21428571428571427,0.8571428571428571,0.0004
46,1.4828595519065857,1.4699853658676147,0.36538461538461536,0.8269230769230769,0.21428571428571427,0.8571428571428571,0.0004
47,1.5145899057388306,1.5113694667816162,0.36538461538461536,0.8269230769230769,0.21428571428571427,0.8571428571428571,0.0004
48,1.5452112555503845,1.4970712661743164,0.36538461538461536,0.8269230769230769,0.21428571428571427,0.8571428571428571,0.0004
49,1.5042091012001038,1.563621997833252,0.36538461538461536,0.8269230769230769,0.21428571428571427,0.8571428571428571,0.0004
50,1.4778635501861572,1.5423054695129395,0.36538461538461536,0.8269230769230769,0.21428571428571427,0.8571428571428571,0.0004
51,1.4778167009353638,1.5667372941970825,0.36538461538461536,0.8269230769230769,0.21428571428571427,0.8571428571428571,0.0004
52,1.436743140220642,1.4888579845428467,0.36538461538461536,0.8269230769230769,0.21428571428571427,0.8571428571428571,0.0004
53,1.5213415026664734,1.537121057510376,0.36538461538461536,0.8269230769230769,0.21428571428571427,0.8571428571428571,0.0004
54,1.436560869216919,1.5359244346618652,0.36538461538461536,0.8269230769230769,0.21428571428571427,0.8571428571428571,0.0004
55,1.516020119190216,1.6002508401870728,0.36538461538461536,0.8269230769230769,0.21428571428571427,0.8571428571428571,0.0004
56,1.4214916825294495,1.6441773176193237,0.36538461538461536,0.8269230769230769,0.21428571428571427,0.8571428571428571,0.0004
57,1.4258650541305542,1.6076871156692505,0.36538461538461536,0.8653846153846154,0.21428571428571427,0.7857142857142857,0.0004
58,1.4401772022247314,1.5626895427703857,0.36538461538461536,0.8461538461538461,0.21428571428571427,0.8571428571428571,0.0004
59,1.4975907802581787,1.614675521850586,0.36538461538461536,0.8653846153846154,0.21428571428571427,0.8571428571428571,0.0004
60,1.4025920629501343,1.6779370307922363,0.34615384615384615,0.8269230769230769,0.21428571428571427,0.7142857142857143,0.0004
61,1.3718397617340088,1.628232479095459,0.40384615384615385,0.8846153846153846,0.21428571428571427,0.8571428571428571,0.0004
62,1.3993075489997864,1.484933853149414,0.46153846153846156,0.8269230769230769,0.2857142857142857,0.8571428571428571,0.0004
63,1.5157966017723083,1.5372297763824463,0.40384615384615385,0.8653846153846154,0.2857142857142857,0.8571428571428571,0.0004
64,1.4626294374465942,1.4822660684585571,0.4423076923076923,0.9038461538461539,0.2857142857142857,0.8571428571428571,0.0004
65,1.42355877161026,1.5906035900115967,0.4423076923076923,0.8846153846153846,0.21428571428571427,0.8571428571428571,0.0004
66,1.3226715326309204,1.4898340702056885,0.4807692307692308,0.9038461538461539,0.35714285714285715,0.8571428571428571,0.0004
67,1.331146240234375,1.6689101457595825,0.5,0.9230769230769231,0.2857142857142857,0.7142857142857143,0.0004
68,1.4493421912193298,1.6046682596206665,0.5,0.7884615384615384,0.21428571428571427,0.7142857142857143,0.0004
69,1.4672779440879822,1.358384370803833,0.4807692307692308,0.6538461538461539,0.5,0.7857142857142857,0.0004
70,1.5647339224815369,1.4917999505996704,0.38461538461538464,0.6538461538461539,0.35714285714285715,0.6428571428571429,0.0004
71,1.4617246985435486,1.6230369806289673,0.46153846153846156,0.6730769230769231,0.35714285714285715,0.6428571428571429,0.0004
72,1.4345699548721313,1.5547900199890137,0.5,0.7884615384615384,0.2857142857142857,0.6428571428571429,0.0004
73,1.3381162881851196,1.4935078620910645,0.5,0.8653846153846154,0.35714285714285715,0.7857142857142857,0.0004
74,1.340709924697876,1.3341453075408936,0.4807692307692308,0.8653846153846154,0.5,0.8571428571428571,0.0004
75,1.2579917311668396,1.5072084665298462,0.5769230769230769,0.9038461538461539,0.21428571428571427,0.8571428571428571,0.0004
76,1.3885793685913086,1.489187240600586,0.46153846153846156,0.8269230769230769,0.35714285714285715,0.8571428571428571,0.0004
77,1.2886609435081482,1.577110767364502,0.46153846153846156,0.8269230769230769,0.2857142857142857,0.8571428571428571,0.0004
78,1.5860892534255981,1.4866890907287598,0.38461538461538464,0.8269230769230769,0.2857142857142857,0.8571428571428571,0.0004
79,1.3208165764808655,1.770238995552063,0.4807692307692308,0.8269230769230769,0.21428571428571427,0.8571428571428571,0.0004
80,1.3995407819747925,1.677770972251892,0.4230769230769231,0.8269230769230769,0.21428571428571427,0.8571428571428571,0.0004
81,1.484520435333252,1.5128605365753174,0.4423076923076923,0.8269230769230769,0.2857142857142857,0.8571428571428571,0.0004
82,1.1802031993865967,1.7690670490264893,0.5192307692307693,0.8269230769230769,0.21428571428571427,0.8571428571428571,0.0004
83,1.3896461725234985,1.8417026996612549,0.46153846153846156,0.8269230769230769,0.21428571428571427,0.8571428571428571,0.0004
84,1.3542393445968628,1.6854639053344727,0.46153846153846156,0.8269230769230769,0.21428571428571427,0.8571428571428571,0.0004
85,1.309470772743225,1.685170292854309,0.4807692307692308,0.8269230769230769,0.21428571428571427,0.8571428571428571,0.0004
86,1.2690173983573914,1.783818006515503,0.46153846153846156,0.8461538461538461,0.21428571428571427,0.7857142857142857,0.0004
87,1.5220755338668823,1.403037667274475,0.4423076923076923,0.8846153846153846,0.2857142857142857,0.9285714285714286,0.0004
88,1.396303117275238,1.3895552158355713,0.46153846153846156,0.8653846153846154,0.2857142857142857,0.9285714285714286,0.0004
89,1.15334552526474,1.3786380290985107,0.5,0.9615384615384616,0.2857142857142857,0.9285714285714286,0.0004
90,1.3843364119529724,1.3667454719543457,0.4423076923076923,0.8653846153846154,0.2857142857142857,0.9285714285714286,0.0004
91,1.1880704760551453,1.626255989074707,0.4807692307692308,0.9423076923076923,0.21428571428571427,0.8571428571428571,0.0004
92,1.3836844563484192,1.613963007926941,0.46153846153846156,0.8653846153846154,0.21428571428571427,0.8571428571428571,0.0004
93,1.1943899393081665,1.6545957326889038,0.4807692307692308,0.9423076923076923,0.2857142857142857,0.7857142857142857,0.0004
94,1.2369697093963623,1.4936245679855347,0.4807692307692308,0.9423076923076923,0.2857142857142857,0.8571428571428571,0.0004
95,1.6617286801338196,1.60154390335083,0.36538461538461536,0.8076923076923077,0.21428571428571427,0.8571428571428571,0.0004
96,1.428800106048584,1.3297858238220215,0.4423076923076923,0.9038461538461539,0.2857142857142857,0.9285714285714286,0.0004
97,1.4895721673965454,1.3297202587127686,0.4230769230769231,0.8461538461538461,0.2857142857142857,0.9285714285714286,0.0004
98,1.3563125133514404,1.6475327014923096,0.46153846153846156,0.9038461538461539,0.2857142857142857,0.7857142857142857,0.0004
99,1.363932490348816,1.8872795104980469,0.46153846153846156,0.8846153846153846,0.21428571428571427,0.7142857142857143,0.0004
100,1.197664737701416,1.7261980772018433,0.4807692307692308,0.9423076923076923,0.21428571428571427,0.7857142857142857,0.0004
101,1.3473232984542847,1.336806297302246,0.46153846153846156,0.9038461538461539,0.2857142857142857,0.9285714285714286,0.0004
102,1.4568148255348206,1.3391900062561035,0.4423076923076923,0.8653846153846154,0.2857142857142857,0.9285714285714286,0.0004
103,1.2997810244560242,1.7100216150283813,0.46153846153846156,0.9230769230769231,0.21428571428571427,0.7857142857142857,0.0004
104,1.3922922015190125,1.4940078258514404,0.4807692307692308,0.8846153846153846,0.2857142857142857,0.8571428571428571,0.0004
105,1.365327775478363,1.3645426034927368,0.4807692307692308,0.9038461538461539,0.2857142857142857,0.9285714285714286,0.0004
106,1.4237972497940063,1.4901671409606934,0.4230769230769231,0.8846153846153846,0.2857142857142857,0.8571428571428571,0.0004
107,1.4265778064727783,1.5778043270111084,0.4230769230769231,0.8846153846153846,0.21428571428571427,0.8571428571428571,0.0004
108,1.561733603477478,1.574540376663208,0.36538461538461536,0.8076923076923077,0.21428571428571427,0.8571428571428571,0.0004
109,1.459604263305664,1.5699830055236816,0.4230769230769231,0.8653846153846154,0.21428571428571427,0.8571428571428571,0.0004
110,1.4058262705802917,1.3584530353546143,0.4423076923076923,0.8846153846153846,0.2857142857142857,0.9285714285714286,0.0004
111,1.489718735218048,1.4794511795043945,0.40384615384615385,0.8461538461538461,0.2857142857142857,0.8571428571428571,0.0004
112,1.271596372127533,1.5547243356704712,0.4807692307692308,0.9230769230769231,0.21428571428571427,0.8571428571428571,0.0004
113,1.4355526566505432,1.4740347862243652,0.4230769230769231,0.8653846153846154,0.2857142857142857,0.8571428571428571,0.0004
114,1.4574536681175232,1.5456297397613525,0.40384615384615385,0.8653846153846154,0.21428571428571427,0.8571428571428571,0.0004
115,1.367371141910553,1.3483246564865112,0.46153846153846156,0.9038461538461539,0.2857142857142857,0.9285714285714286,0.0004
116,1.327123999595642,1.3484830856323242,0.4423076923076923,0.9038461538461539,0.2857142857142857,0.9285714285714286,0.0004
117,1.2450841069221497,1.4705735445022583,0.5,0.9423076923076923,0.2857142857142857,0.8571428571428571,0.0004
118,1.3306153416633606,1.470790147781372,0.46153846153846156,0.9230769230769231,0.2857142857142857,0.8571428571428571,0.0004
119,1.359253704547882,1.3430777788162231,0.4423076923076923,0.8846153846153846,0.2857142857142857,0.9285714285714286,0.0004
120,1.3095853328704834,1.5451244115829468,0.46153846153846156,0.8846153846153846,0.21428571428571427,0.8571428571428571,0.0004
121,1.3629925847053528,1.615665078163147,0.4423076923076923,0.9038461538461539,0.2857142857142857,0.7857142857142857,0.0004
122,1.3736479878425598,1.4827663898468018,0.4423076923076923,0.9038461538461539,0.2857142857142857,0.8571428571428571,0.0004
123,1.3973734378814697,1.485398292541504,0.46153846153846156,0.8846153846153846,0.2857142857142857,0.8571428571428571,0.0004
124,1.2772889137268066,1.8822479248046875,0.4807692307692308,0.9230769230769231,0.14285714285714285,0.7142857142857143,0.0004
125,1.363362193107605,1.34025239944458,0.46153846153846156,0.8846153846153846,0.35714285714285715,0.8571428571428571,0.0004
126,1.1569188237190247,1.5212339162826538,0.5384615384615384,0.9230769230769231,0.2857142857142857,0.7857142857142857,0.0004
127,1.4095866084098816,1.505349040031433,0.4423076923076923,0.8653846153846154,0.2857142857142857,0.8571428571428571,0.0004
128,1.5172014832496643,1.745558261871338,0.46153846153846156,0.8076923076923077,0.21428571428571427,0.7857142857142857,0.0004
129,1.4820222854614258,1.6753886938095093,0.4423076923076923,0.7884615384615384,0.35714285714285715,0.7142857142857143,0.0004
130,1.4210698008537292,1.258752465248108,0.4807692307692308,0.8076923076923077,0.35714285714285715,0.9285714285714286,0.0004
131,1.297721266746521,1.651637315750122,0.5192307692307693,0.8846153846153846,0.35714285714285715,0.7142857142857143,0.0004
132,1.3842352628707886,1.6675682067871094,0.5192307692307693,0.8269230769230769,0.2857142857142857,0.7142857142857143,0.0004
133,1.2354544401168823,1.5349547863006592,0.5384615384615384,0.8846153846153846,0.2857142857142857,0.7857142857142857,0.0004
134,1.2992573380470276,1.6600353717803955,0.5384615384615384,0.8461538461538461,0.21428571428571427,0.7857142857142857,0.0004
135,1.3166651129722595,1.5072271823883057,0.4807692307692308,0.8653846153846154,0.35714285714285715,0.7857142857142857,0.0004
136,1.2626994252204895,1.626416563987732,0.5384615384615384,0.8653846153846154,0.35714285714285715,0.7142857142857143,0.0004
137,1.5283864736557007,1.6485207080841064,0.4423076923076923,0.75,0.2857142857142857,0.7142857142857143,0.0004
138,1.1812263131141663,1.6246285438537598,0.5384615384615384,0.9038461538461539,0.2857142857142857,0.7857142857142857,0.0004
139,1.419433355331421,1.7641735076904297,0.5,0.8076923076923077,0.35714285714285715,0.6428571428571429,0.0004
140,1.1989610195159912,1.5325896739959717,0.5384615384615384,0.8846153846153846,0.2857142857142857,0.7857142857142857,0.0004
141,1.2287766337394714,2.1339378356933594,0.4807692307692308,0.9038461538461539,0.14285714285714285,0.5714285714285714,0.0004
142,1.184405505657196,1.7835931777954102,0.5576923076923077,0.8846153846153846,0.2857142857142857,0.7142857142857143,0.0004
143,1.280357003211975,1.5085755586624146,0.46153846153846156,0.8461538461538461,0.35714285714285715,0.7857142857142857,0.0004
144,1.283386766910553,1.6815106868743896,0.5384615384615384,0.8076923076923077,0.2857142857142857,0.7857142857142857,0.0004
145,1.1846075654029846,2.0626397132873535,0.5769230769230769,0.8461538461538461,0.21428571428571427,0.6428571428571429,0.0004
146,1.3857401013374329,1.5177589654922485,0.5192307692307693,0.7884615384615384,0.35714285714285715,0.7857142857142857,0.0004
147,1.4487695097923279,1.749529242515564,0.46153846153846156,0.7692307692307693,0.35714285714285715,0.6428571428571429,0.0004
148,1.2452714443206787,1.7551324367523193,0.5192307692307693,0.8461538461538461,0.35714285714285715,0.6428571428571429,0.0004
149,1.4186275601387024,1.9459689855575562,0.4807692307692308,0.8461538461538461,0.2857142857142857,0.6428571428571429,0.0004
150,1.4803869724273682,2.0647342205047607,0.4423076923076923,0.7884615384615384,0.21428571428571427,0.5714285714285714,0.0004
151,1.3398088216781616,2.0938522815704346,0.4807692307692308,0.8269230769230769,0.14285714285714285,0.6428571428571429,0.0004
152,1.3280546069145203,1.6354827880859375,0.4807692307692308,0.8461538461538461,0.35714285714285715,0.7142857142857143,0.0004
153,1.1711439490318298,1.4380097389221191,0.5769230769230769,0.8653846153846154,0.2857142857142857,0.9285714285714286,0.0004
154,1.3623830676078796,1.5400810241699219,0.5192307692307693,0.8653846153846154,0.2857142857142857,0.8571428571428571,0.0004
155,1.505634069442749,1.7605539560317993,0.4423076923076923,0.7692307692307693,0.2857142857142857,0.7142857142857143,0.0004
156,1.2545130848884583,1.3363615274429321,0.5192307692307693,0.8461538461538461,0.42857142857142855,0.7857142857142857,0.0004
157,1.3333731293678284,1.471724271774292,0.5192307692307693,0.8269230769230769,0.35714285714285715,0.7142857142857143,0.0004
158,1.3156033754348755,1.838266372680664,0.5192307692307693,0.8269230769230769,0.21428571428571427,0.7142857142857143,0.0004
159,1.3378612995147705,1.1479116678237915,0.5,0.8846153846153846,0.42857142857142855,0.9285714285714286,0.0004
160,1.2823128700256348,1.5217132568359375,0.5,0.8653846153846154,0.35714285714285715,0.7857142857142857,0.0004
161,1.212483525276184,1.3642189502716064,0.5,0.9038461538461539,0.35714285714285715,0.8571428571428571,0.0004
162,1.3619298338890076,2.0352730751037598,0.4807692307692308,0.8846153846153846,0.14285714285714285,0.6428571428571429,0.0004
163,1.507724404335022,1.41084885597229,0.4230769230769231,0.8269230769230769,0.35714285714285715,0.8571428571428571,0.0004
164,1.2208841443061829,1.914022445678711,0.5,0.8846153846153846,0.14285714285714285,0.7142857142857143,0.0004
165,1.3620611429214478,1.5122019052505493,0.46153846153846156,0.9038461538461539,0.2857142857142857,0.8571428571428571,0.0004
166,1.156209111213684,1.4005552530288696,0.5,0.9615384615384616,0.35714285714285715,0.8571428571428571,0.0004
167,1.421381652355194,1.650044560432434,0.4423076923076923,0.9038461538461539,0.21428571428571427,0.8571428571428571,0.0004
168,1.3695159554481506,1.970080018043518,0.4423076923076923,0.8846153846153846,0.14285714285714285,0.6428571428571429,0.0004
169,1.2306603789329529,1.6062743663787842,0.5,0.9423076923076923,0.2857142857142857,0.7857142857142857,0.0004
170,1.4413800239562988,1.4839237928390503,0.4230769230769231,0.8653846153846154,0.2857142857142857,0.8571428571428571,0.0004
171,1.409647822380066,1.6119167804718018,0.4423076923076923,0.8846153846153846,0.21428571428571427,0.8571428571428571,0.0004
172,1.3437496423721313,1.3599858283996582,0.4423076923076923,0.9038461538461539,0.2857142857142857,0.9285714285714286,0.0004
173,1.4325085878372192,1.3656716346740723,0.4423076923076923,0.8653846153846154,0.2857142857142857,0.9285714285714286,0.0004
174,1.2164748311042786,1.364877462387085,0.5,0.9615384615384616,0.2857142857142857,0.9285714285714286,0.0004
175,1.2336028218269348,1.7035226821899414,0.4807692307692308,0.9423076923076923,0.21428571428571427,0.7857142857142857,0.0004
176,1.1589500308036804,1.5751965045928955,0.5,0.9615384615384616,0.21428571428571427,0.8571428571428571,0.0004
177,1.4635950326919556,1.5708122253417969,0.4230769230769231,0.8846153846153846,0.21428571428571427,0.8571428571428571,0.0004
178,1.3558635115623474,1.3359875679016113,0.46153846153846156,0.8846153846153846,0.2857142857142857,0.9285714285714286,0.0004
179,1.350700855255127,1.3666343688964844,0.46153846153846156,0.8846153846153846,0.2857142857142857,0.9285714285714286,0.0004
180,1.54623144865036,1.4740126132965088,0.4230769230769231,0.8461538461538461,0.2857142857142857,0.8571428571428571,0.0004
181,1.2888492941856384,1.5637435913085938,0.4807692307692308,0.9038461538461539,0.21428571428571427,0.8571428571428571,0.0004
182,1.274478018283844,1.563667893409729,0.4807692307692308,0.9423076923076923,0.21428571428571427,0.8571428571428571,0.0004
183,1.2526195645332336,1.5624449253082275,0.5,0.9423076923076923,0.21428571428571427,0.8571428571428571,0.0004
184,1.2277746796607971,1.625020980834961,0.4807692307692308,0.9423076923076923,0.2857142857142857,0.7857142857142857,0.0004
185,1.3011338710784912,1.565032720565796,0.46153846153846156,0.9230769230769231,0.21428571428571427,0.8571428571428571,0.0004
186,1.1787306666374207,1.3381516933441162,0.5,0.9615384615384616,0.2857142857142857,0.9285714285714286,0.0004
187,1.4128308296203613,1.4996895790100098,0.4230769230769231,0.8846153846153846,0.2857142857142857,0.8571428571428571,0.0004
188,1.353758454322815,1.7367154359817505,0.4423076923076923,0.8846153846153846,0.21428571428571427,0.7857142857142857,0.0004
189,1.1554558277130127,1.5722073316574097,0.5192307692307693,0.9615384615384616,0.21428571428571427,0.8571428571428571,0.0004
190,1.3878749012947083,1.7491298913955688,0.4423076923076923,0.8846153846153846,0.21428571428571427,0.7857142857142857,0.0004
191,1.259813666343689,1.5783557891845703,0.46153846153846156,0.9230769230769231,0.21428571428571427,0.8571428571428571,0.0004
192,1.5413150787353516,1.5173091888427734,0.38461538461538464,0.8461538461538461,0.2857142857142857,0.8571428571428571,0.0004
193,1.4186649322509766,1.5794622898101807,0.46153846153846156,0.8846153846153846,0.21428571428571427,0.8571428571428571,0.0004
194,1.3903750777244568,1.336491346359253,0.46153846153846156,0.9038461538461539,0.2857142857142857,0.9285714285714286,0.0004
195,1.4147493243217468,1.7611011266708374,0.4230769230769231,0.8846153846153846,0.21428571428571427,0.7857142857142857,0.0004
196,1.4363847970962524,1.5810441970825195,0.4230769230769231,0.8846153846153846,0.21428571428571427,0.8571428571428571,0.0004
197,1.3885554075241089,1.3428224325180054,0.4423076923076923,0.8846153846153846,0.2857142857142857,0.9285714285714286,0.0004
198,1.3813811540603638,1.5790541172027588,0.4423076923076923,0.8846153846153846,0.21428571428571427,0.8571428571428571,0.0004
199,1.221175193786621,1.3431847095489502,0.4807692307692308,0.9230769230769231,0.2857142857142857,0.9285714285714286,0.0004
200,1.563669502735138,1.5136324167251587,0.40384615384615385,0.8461538461538461,0.2857142857142857,0.8571428571428571,0.0004
201,1.210681676864624,1.3434642553329468,0.5,0.9423076923076923,0.2857142857142857,0.9285714285714286,0.0004
202,1.4633473753929138,1.513130784034729,0.40384615384615385,0.8653846153846154,0.2857142857142857,0.8571428571428571,0.0004
203,1.3693108558654785,1.504093050956726,0.46153846153846156,0.8846153846153846,0.2857142857142857,0.8571428571428571,0.0004
204,1.2165124416351318,1.5693808794021606,0.4807692307692308,0.9423076923076923,0.21428571428571427,0.8571428571428571,0.0004
205,1.3080826997756958,1.5020687580108643,0.46153846153846156,0.9230769230769231,0.2857142857142857,0.8571428571428571,0.0004
206,1.431011438369751,1.559883952140808,0.4230769230769231,0.8653846153846154,0.21428571428571427,0.8571428571428571,0.0004
207,1.3705494403839111,1.7245995998382568,0.46153846153846156,0.9038461538461539,0.21428571428571427,0.7857142857142857,0.0004
208,1.4586332440376282,1.5589629411697388,0.4230769230769231,0.8653846153846154,0.21428571428571427,0.8571428571428571,0.0004
209,1.3705527782440186,1.7196978330612183,0.4423076923076923,0.9038461538461539,0.21428571428571427,0.7857142857142857,0.0004
210,1.4268170595169067,1.3293266296386719,0.4230769230769231,0.8653846153846154,0.2857142857142857,0.9285714285714286,0.0004
211,1.1594263315200806,1.551192045211792,0.5,0.9615384615384616,0.21428571428571427,0.8571428571428571,0.0004
212,1.3610635995864868,1.3307453393936157,0.4423076923076923,0.9038461538461539,0.2857142857142857,0.9285714285714286,0.0004
213,1.484132468700409,1.5507354736328125,0.4230769230769231,0.8461538461538461,0.21428571428571427,0.8571428571428571,0.0004
214,1.2962182760238647,1.3329594135284424,0.46153846153846156,0.9038461538461539,0.2857142857142857,0.9285714285714286,0.0004
215,1.4401748776435852,1.7106308937072754,0.4423076923076923,0.8846153846153846,0.21428571428571427,0.7857142857142857,0.0004
216,1.2354047894477844,1.6811294555664062,0.5,0.9423076923076923,0.21428571428571427,0.7857142857142857,0.0004
217,1.422060251235962,1.5665295124053955,0.4230769230769231,0.8846153846153846,0.21428571428571427,0.8571428571428571,0.0004
218,1.4033215045928955,1.735884428024292,0.4423076923076923,0.9038461538461539,0.21428571428571427,0.7857142857142857,0.0004
219,1.2222352623939514,1.3455030918121338,0.4807692307692308,0.9423076923076923,0.2857142857142857,0.9285714285714286,0.0004
220,1.3956078886985779,1.3461968898773193,0.4230769230769231,0.8846153846153846,0.2857142857142857,0.9285714285714286,0.0004
221,1.382556438446045,1.7474989891052246,0.4230769230769231,0.8846153846153846,0.21428571428571427,0.7857142857142857,0.0004
222,1.4361603260040283,1.5699292421340942,0.4230769230769231,0.8653846153846154,0.21428571428571427,0.8571428571428571,0.0004
223,1.3802274465560913,1.3469679355621338,0.4230769230769231,0.8846153846153846,0.2857142857142857,0.9285714285714286,0.0004
224,1.2558348178863525,1.3439996242523193,0.4807692307692308,0.9423076923076923,0.2857142857142857,0.9285714285714286,0.0004
225,1.227203369140625,1.5262478590011597,0.4807692307692308,0.9230769230769231,0.2857142857142857,0.8571428571428571,0.0004
226,1.296953558921814,1.567748785018921,0.4807692307692308,0.9038461538461539,0.21428571428571427,0.8571428571428571,0.0004
227,1.2279611825942993,1.3343546390533447,0.4807692307692308,0.9423076923076923,0.2857142857142857,0.9285714285714286,0.0004
228,1.355873465538025,1.3345377445220947,0.4423076923076923,0.8846153846153846,0.2857142857142857,0.9285714285714286,0.0004
229,1.5956316590309143,1.5694407224655151,0.36538461538461536,0.8269230769230769,0.21428571428571427,0.8571428571428571,0.0004
230,1.4053523540496826,1.3351848125457764,0.4230769230769231,0.8846153846153846,0.2857142857142857,0.9285714285714286,0.0004
231,1.4193316102027893,1.769128441810608,0.4423076923076923,0.8846153846153846,0.21428571428571427,0.7857142857142857,0.0004
232,1.4638667702674866,1.5613489151000977,0.4423076923076923,0.8846153846153846,0.21428571428571427,0.8571428571428571,0.0004
233,1.2519880533218384,1.3232979774475098,0.46153846153846156,0.9230769230769231,0.2857142857142857,0.9285714285714286,0.0004
234,1.3031885027885437,1.7610728740692139,0.46153846153846156,0.9038461538461539,0.21428571428571427,0.7857142857142857,0.0004
235,1.1626255512237549,1.5522018671035767,0.5,0.9615384615384616,0.21428571428571427,0.8571428571428571,0.0004
236,1.294676423072815,1.530173897743225,0.4423076923076923,0.9038461538461539,0.2857142857142857,0.8571428571428571,0.0004
237,1.2697427868843079,1.7824243307113647,0.4807692307692308,0.9230769230769231,0.21428571428571427,0.7857142857142857,0.0004
238,1.3110648393630981,1.7575863599777222,0.46153846153846156,0.9038461538461539,0.21428571428571427,0.7857142857142857,0.0004
239,1.1497405767440796,1.3159984350204468,0.5,0.9615384615384616,0.2857142857142857,0.9285714285714286,0.0004
240,1.296330988407135,1.784408450126648,0.46153846153846156,0.9230769230769231,0.21428571428571427,0.7857142857142857,0.0004
241,1.1512513756752014,1.7704267501831055,0.5192307692307693,0.9615384615384616,0.2857142857142857,0.7857142857142857,0.0004
242,1.269802749156952,2.0417428016662598,0.46153846153846156,0.9230769230769231,0.21428571428571427,0.7142857142857143,0.0004
243,1.3339229822158813,1.8139238357543945,0.46153846153846156,0.9038461538461539,0.21428571428571427,0.7857142857142857,0.0004
244,1.352527678012848,1.8207175731658936,0.46153846153846156,0.9038461538461539,0.21428571428571427,0.7857142857142857,0.0004
245,1.5583156943321228,1.6978404521942139,0.40384615384615385,0.8461538461538461,0.2857142857142857,0.7857142857142857,0.0004
246,1.2126066088676453,1.592650294303894,0.46153846153846156,0.9230769230769231,0.21428571428571427,0.8571428571428571,0.0004
247,1.5264074206352234,2.0331764221191406,0.4230769230769231,0.8653846153846154,0.21428571428571427,0.7142857142857143,0.0004
248,1.3139647245407104,1.5508174896240234,0.4807692307692308,0.9230769230769231,0.2857142857142857,0.8571428571428571,0.0004
249,1.296541690826416,1.810776710510254,0.4423076923076923,0.9038461538461539,0.21428571428571427,0.7857142857142857,0.0004
250,1.4298453330993652,1.8577401638031006,0.46153846153846156,0.8846153846153846,0.21428571428571427,0.7142857142857143,0.0004
251,1.6553902626037598,1.69097101688385,0.4230769230769231,0.8076923076923077,0.5,0.6428571428571429,0.0004
252,1.4391876459121704,2.360921859741211,0.5,0.8076923076923077,0.2857142857142857,0.42857142857142855,0.0004
253,1.6419378519058228,2.2854039669036865,0.4807692307692308,0.7115384615384616,0.42857142857142855,0.35714285714285715,0.0004
254,1.8954792022705078,2.2556159496307373,0.4807692307692308,0.5192307692307693,0.2857142857142857,0.2857142857142857,0.0004
255,2.164520740509033,1.8712522983551025,0.38461538461538464,0.38461538461538464,0.42857142857142855,0.35714285714285715,0.0004
256,1.9964649677276611,2.0712995529174805,0.38461538461538464,0.38461538461538464,0.35714285714285715,0.21428571428571427,0.0004
257,2.0464500188827515,1.9838128089904785,0.3076923076923077,0.2692307692307692,0.35714285714285715,0.21428571428571427,0.0004
258,2.0140639543533325,1.6953924894332886,0.34615384615384615,0.21153846153846154,0.42857142857142855,0.42857142857142855,0.0004
259,1.8360142707824707,1.9248018264770508,0.34615384615384615,0.3269230769230769,0.35714285714285715,0.21428571428571427,0.0004
260,1.8284515738487244,1.866774320602417,0.36538461538461536,0.2692307692307692,0.35714285714285715,0.21428571428571427,0.0004
261,1.840888798236847,1.7739691734313965,0.3076923076923077,0.28846153846153844,0.35714285714285715,0.5714285714285714,0.0004
262,1.7604272961616516,1.7178153991699219,0.3269230769230769,0.46153846153846156,0.42857142857142855,0.8571428571428571,0.0004
263,1.7262380719184875,1.7493219375610352,0.3269230769230769,0.7884615384615384,0.35714285714285715,0.8571428571428571,0.0004
264,1.6715729236602783,1.7035363912582397,0.40384615384615385,0.8269230769230769,0.2857142857142857,0.8571428571428571,0.0004
265,1.690761685371399,1.6536439657211304,0.34615384615384615,0.8269230769230769,0.5,0.8571428571428571,0.0004
266,1.6474369764328003,1.6750288009643555,0.40384615384615385,0.8269230769230769,0.2857142857142857,0.8571428571428571,0.0004
267,1.6005998849868774,1.6623830795288086,0.46153846153846156,0.8269230769230769,0.21428571428571427,0.8571428571428571,0.0004
268,1.5964698195457458,1.5663881301879883,0.34615384615384615,0.8269230769230769,0.21428571428571427,0.8571428571428571,0.0004
269,1.5970373153686523,1.5476984977722168,0.38461538461538464,0.8269230769230769,0.2857142857142857,0.8571428571428571,0.0004
270,1.4974228143692017,1.476229190826416,0.4230769230769231,0.8269230769230769,0.42857142857142855,0.8571428571428571,0.0004
271,1.5397815108299255,1.477330207824707,0.3269230769230769,0.8269230769230769,0.42857142857142855,0.8571428571428571,0.0004
272,1.5854284763336182,1.4930237531661987,0.3076923076923077,0.8269230769230769,0.42857142857142855,0.8571428571428571,0.0004
273,1.5257291197776794,1.5339603424072266,0.3076923076923077,0.8269230769230769,0.42857142857142855,0.8571428571428571,0.0004
274,1.567150592803955,1.5349602699279785,0.3076923076923077,0.8269230769230769,0.42857142857142855,0.8571428571428571,0.0004
275,1.5830163955688477,1.4777814149856567,0.3076923076923077,0.8269230769230769,0.42857142857142855,0.8571428571428571,0.0004
276,1.5511548519134521,1.5117464065551758,0.3076923076923077,0.8269230769230769,0.2857142857142857,0.8571428571428571,0.0004
277,1.5374947786331177,1.4963295459747314,0.4230769230769231,0.8269230769230769,0.2857142857142857,0.8571428571428571,0.0004
278,1.5113197565078735,1.5378522872924805,0.40384615384615385,0.8269230769230769,0.21428571428571427,0.8571428571428571,0.0004
279,1.4963996410369873,1.5000898838043213,0.36538461538461536,0.8269230769230769,0.2857142857142857,0.8571428571428571,0.0004
280,1.533423364162445,1.560712456703186,0.40384615384615385,0.8269230769230769,0.21428571428571427,0.8571428571428571,0.0004
281,1.4975581765174866,1.543175220489502,0.34615384615384615,0.8269230769230769,0.21428571428571427,0.8571428571428571,0.0004
282,1.521321415901184,1.5324689149856567,0.38461538461538464,0.8269230769230769,0.21428571428571427,0.8571428571428571,0.0004
283,1.535453736782074,1.5504122972488403,0.36538461538461536,0.8269230769230769,0.21428571428571427,0.8571428571428571,0.0004
284,1.5408872365951538,1.5063607692718506,0.36538461538461536,0.8269230769230769,0.21428571428571427,0.8571428571428571,0.0004
285,1.5236643552780151,1.5149931907653809,0.34615384615384615,0.8269230769230769,0.21428571428571427,0.8571428571428571,0.0004
286,1.5390223860740662,1.5343592166900635,0.36538461538461536,0.8269230769230769,0.21428571428571427,0.8571428571428571,0.0004
287,1.4987686276435852,1.5494070053100586,0.34615384615384615,0.8269230769230769,0.21428571428571427,0.8571428571428571,0.0004
288,1.5135934352874756,1.5413954257965088,0.38461538461538464,0.8269230769230769,0.21428571428571427,0.8571428571428571,0.0004
289,1.4931052327156067,1.5024645328521729,0.36538461538461536,0.8269230769230769,0.2857142857142857,0.8571428571428571,0.0004
290,1.4926807284355164,1.492502212524414,0.34615384615384615,0.8269230769230769,0.2857142857142857,0.8571428571428571,0.0004
291,1.4793891310691833,1.5571774244308472,0.40384615384615385,0.8269230769230769,0.2857142857142857,0.8571428571428571,0.0004
292,1.4766113758087158,1.5704779624938965,0.36538461538461536,0.8269230769230769,0.2857142857142857,0.8571428571428571,0.0004
293,1.4415889978408813,1.5028553009033203,0.38461538461538464,0.8269230769230769,0.21428571428571427,0.8571428571428571,0.0004
294,1.497506558895111,1.5736020803451538,0.40384615384615385,0.8269230769230769,0.21428571428571427,0.8571428571428571,0.0004
295,1.4679149389266968,1.4984452724456787,0.3269230769230769,0.8269230769230769,0.2857142857142857,0.8571428571428571,0.0004
296,1.5156328082084656,1.5098943710327148,0.40384615384615385,0.8269230769230769,0.5,0.8571428571428571,0.0004
297,1.471650779247284,1.5550965070724487,0.3269230769230769,0.8269230769230769,0.42857142857142855,0.8571428571428571,0.0004
298,1.4771310687065125,1.489055871963501,0.4423076923076923,0.8269230769230769,0.21428571428571427,0.8571428571428571,0.0004
299,1.4576655626296997,1.432455062866211,0.40384615384615385,0.8269230769230769,0.42857142857142855,0.8571428571428571,0.0004
300,1.4132904410362244,1.6402108669281006,0.36538461538461536,0.8269230769230769,0.42857142857142855,0.8571428571428571,0.0004
301,1.442212462425232,1.4121716022491455,0.38461538461538464,0.8269230769230769,0.35714285714285715,0.8571428571428571,0.0004
302,1.3803160190582275,1.5751698017120361,0.36538461538461536,0.8269230769230769,0.2857142857142857,0.8571428571428571,0.0004
303,1.4326658248901367,1.7316043376922607,0.38461538461538464,0.8269230769230769,0.2857142857142857,0.8571428571428571,0.0004
304,1.4061888456344604,1.6457290649414062,0.34615384615384615,0.8269230769230769,0.07142857142857142,0.8571428571428571,0.0004
305,1.4113515615463257,1.481451392173767,0.3269230769230769,0.8269230769230769,0.35714285714285715,0.8571428571428571,0.0004
306,1.5111798644065857,1.6465812921524048,0.3076923076923077,0.8269230769230769,0.35714285714285715,0.8571428571428571,0.0004
307,1.689441442489624,1.6701922416687012,0.2692307692307692,0.8269230769230769,0.42857142857142855,0.8571428571428571,0.0004
308,1.5663358569145203,1.4333093166351318,0.38461538461538464,0.8269230769230769,0.5714285714285714,0.8571428571428571,0.0004
309,1.4982165694236755,1.5625070333480835,0.38461538461538464,0.8269230769230769,0.2857142857142857,0.8571428571428571,0.0004
310,1.4271143674850464,1.5090125799179077,0.3076923076923077,0.8269230769230769,0.21428571428571427,0.8571428571428571,0.0004
311,1.459951639175415,1.4577422142028809,0.36538461538461536,0.8269230769230769,0.21428571428571427,0.8571428571428571,0.0004
312,1.3833220601081848,1.5700099468231201,0.36538461538461536,0.8269230769230769,0.21428571428571427,0.8571428571428571,0.0004
313,1.405576765537262,1.6018316745758057,0.36538461538461536,0.8269230769230769,0.21428571428571427,0.8571428571428571,0.0004
314,1.436584711074829,1.67025887966156,0.36538461538461536,0.8269230769230769,0.21428571428571427,0.8571428571428571,0.0004
315,1.5363113284111023,1.4930592775344849,0.34615384615384615,0.8269230769230769,0.21428571428571427,0.8571428571428571,0.0004
316,1.3821163773536682,1.4699758291244507,0.38461538461538464,0.8269230769230769,0.21428571428571427,0.8571428571428571,0.0004
317,1.4057353138923645,1.706831455230713,0.36538461538461536,0.8269230769230769,0.21428571428571427,0.8571428571428571,0.0004
318,1.467295229434967,1.4195882081985474,0.36538461538461536,0.8269230769230769,0.14285714285714285,0.8571428571428571,0.0004
319,1.3815102577209473,1.6686336994171143,0.38461538461538464,0.8269230769230769,0.21428571428571427,0.8571428571428571,0.0004
320,1.371102750301361,1.5547866821289062,0.36538461538461536,0.8269230769230769,0.21428571428571427,0.8571428571428571,0.0004
321,1.3224400281906128,1.445706844329834,0.40384615384615385,0.8269230769230769,0.42857142857142855,0.8571428571428571,0.0004
322,1.447659969329834,1.595590591430664,0.36538461538461536,0.8269230769230769,0.42857142857142855,0.8571428571428571,0.0004
323,1.512685775756836,1.6310787200927734,0.3269230769230769,0.8269230769230769,0.42857142857142855,0.8571428571428571,0.0004
324,1.3808009028434753,1.4499928951263428,0.38461538461538464,0.8269230769230769,0.35714285714285715,0.8571428571428571,0.0004
325,1.3501091003417969,1.4639203548431396,0.28846153846153844,0.8269230769230769,0.2857142857142857,0.9285714285714286,0.0004
326,1.396288812160492,1.862952709197998,0.3076923076923077,0.8461538461538461,0.2857142857142857,0.6428571428571429,0.0004
327,1.48995840549469,1.595236897468567,0.3269230769230769,0.8461538461538461,0.35714285714285715,0.8571428571428571,0.0004
328,1.3664559125900269,1.5689282417297363,0.3269230769230769,0.8846153846153846,0.21428571428571427,0.8571428571428571,0.0004
329,1.323044240474701,1.8059213161468506,0.4230769230769231,0.8461538461538461,0.2857142857142857,0.6428571428571429,0.0004
330,1.580288589000702,1.568756341934204,0.3269230769230769,0.8269230769230769,0.2857142857142857,0.7142857142857143,0.0004
331,1.4612759947776794,1.339062213897705,0.38461538461538464,0.8461538461538461,0.35714285714285715,0.9285714285714286,0.0004
332,1.4572963118553162,1.394094467163086,0.38461538461538464,0.9038461538461539,0.42857142857142855,0.8571428571428571,0.0004
333,1.3815365433692932,1.5321599245071411,0.34615384615384615,0.8269230769230769,0.35714285714285715,0.8571428571428571,0.0004
334,1.3868973851203918,1.7621403932571411,0.34615384615384615,0.8269230769230769,0.35714285714285715,0.8571428571428571,0.0004
335,1.2649590373039246,1.6742138862609863,0.4230769230769231,0.8269230769230769,0.42857142857142855,0.8571428571428571,0.0004
336,1.3503147959709167,1.5239266157150269,0.38461538461538464,0.8269230769230769,0.35714285714285715,0.8571428571428571,0.0004
337,1.496987521648407,1.5189096927642822,0.38461538461538464,0.8269230769230769,0.2857142857142857,0.8571428571428571,0.0004
338,1.3524134159088135,1.678985595703125,0.28846153846153844,0.8269230769230769,0.21428571428571427,0.8571428571428571,0.0004
339,1.314331293106079,1.6489968299865723,0.38461538461538464,0.8269230769230769,0.2857142857142857,0.8571428571428571,0.0004
340,1.3473767638206482,1.629697561264038,0.38461538461538464,0.8269230769230769,0.21428571428571427,0.8571428571428571,0.0004
341,1.4207121133804321,1.6860384941101074,0.38461538461538464,0.8269230769230769,0.21428571428571427,0.8571428571428571,0.0004
342,1.3445260524749756,1.7137848138809204,0.36538461538461536,0.8269230769230769,0.21428571428571427,0.8571428571428571,0.0004
343,1.2910472750663757,1.7638154029846191,0.36538461538461536,0.8269230769230769,0.21428571428571427,0.8571428571428571,0.0004
344,1.4073599576950073,1.7054744958877563,0.36538461538461536,0.8269230769230769,0.21428571428571427,0.8571428571428571,0.0004
345,1.4737659692764282,1.7678122520446777,0.34615384615384615,0.8269230769230769,0.21428571428571427,0.8571428571428571,0.0004
346,1.3473296165466309,1.8299639225006104,0.40384615384615385,0.8269230769230769,0.21428571428571427,0.8571428571428571,0.0004
347,1.459133505821228,1.8063544034957886,0.36538461538461536,0.8269230769230769,0.21428571428571427,0.8571428571428571,0.0004
348,1.406842827796936,1.5396699905395508,0.36538461538461536,0.8269230769230769,0.2857142857142857,0.8571428571428571,0.0004
349,1.451393961906433,1.5247673988342285,0.4230769230769231,0.8269230769230769,0.21428571428571427,0.8571428571428571,0.0004
350,1.2546393871307373,1.5046828985214233,0.46153846153846156,0.8269230769230769,0.21428571428571427,0.8571428571428571,0.0004
351,1.3806899785995483,1.5756382942199707,0.46153846153846156,0.8269230769230769,0.2857142857142857,0.8571428571428571,0.0004
352,1.4179181456565857,1.4664392471313477,0.4423076923076923,0.8269230769230769,0.21428571428571427,0.9285714285714286,0.0004
353,1.4509774446487427,1.8205480575561523,0.4423076923076923,0.8269230769230769,0.14285714285714285,0.7857142857142857,0.0004
354,1.4828442335128784,1.6861591339111328,0.38461538461538464,0.8269230769230769,0.21428571428571427,0.7857142857142857,0.0004
355,1.2438976764678955,1.4913866519927979,0.5192307692307693,0.9615384615384616,0.21428571428571427,0.8571428571428571,0.0004
356,1.4577789306640625,1.5398591756820679,0.38461538461538464,0.8269230769230769,0.21428571428571427,0.7857142857142857,0.0004
357,1.3791126012802124,1.6168739795684814,0.46153846153846156,0.8846153846153846,0.2857142857142857,0.7142857142857143,0.0004
358,1.3410964012145996,1.5995656251907349,0.4230769230769231,0.8846153846153846,0.21428571428571427,0.7142857142857143,0.0004
359,1.4243968725204468,1.7061818838119507,0.38461538461538464,0.8076923076923077,0.2857142857142857,0.7142857142857143,0.0004
360,1.4306117296218872,1.4665346145629883,0.36538461538461536,0.8461538461538461,0.2857142857142857,0.8571428571428571,0.0004
361,1.4360466599464417,1.4205248355865479,0.40384615384615385,0.8076923076923077,0.2857142857142857,0.8571428571428571,0.0004
362,1.3566839694976807,1.3510957956314087,0.4807692307692308,0.8461538461538461,0.42857142857142855,0.9285714285714286,0.0004
363,1.2707210183143616,1.7102315425872803,0.46153846153846156,0.9038461538461539,0.2857142857142857,0.8571428571428571,0.0004
364,1.3951879739761353,1.3994300365447998,0.38461538461538464,0.8269230769230769,0.42857142857142855,0.9285714285714286,0.0004
365,1.2468864917755127,1.4119999408721924,0.5192307692307693,0.9230769230769231,0.35714285714285715,0.8571428571428571,0.0004
366,1.3795436024665833,1.4970779418945312,0.4423076923076923,0.8846153846153846,0.2857142857142857,0.8571428571428571,0.0004
367,1.2843879461288452,1.68262779712677,0.5,0.9230769230769231,0.35714285714285715,0.7857142857142857,0.0004
368,1.4569393396377563,1.5397045612335205,0.40384615384615385,0.8846153846153846,0.35714285714285715,0.8571428571428571,0.0004
369,1.543794333934784,1.7182371616363525,0.3269230769230769,0.8461538461538461,0.35714285714285715,0.8571428571428571,0.0004
370,1.451865553855896,1.5495944023132324,0.38461538461538464,0.8461538461538461,0.35714285714285715,0.8571428571428571,0.0004
371,1.4849407076835632,1.3985025882720947,0.46153846153846156,0.8846153846153846,0.2857142857142857,0.9285714285714286,0.0004
372,1.310948133468628,1.3916051387786865,0.4807692307692308,0.9230769230769231,0.2857142857142857,0.9285714285714286,0.0004
373,1.2480087280273438,1.8654145002365112,0.5,0.9230769230769231,0.21428571428571427,0.7857142857142857,0.0004
374,1.1847683787345886,1.376004934310913,0.5192307692307693,0.9423076923076923,0.2857142857142857,0.9285714285714286,0.0004
375,1.3707314133644104,1.306948184967041,0.4230769230769231,0.8461538461538461,0.2857142857142857,0.9285714285714286,0.0004
376,1.1865590810775757,1.3003315925598145,0.4807692307692308,0.9423076923076923,0.2857142857142857,0.9285714285714286,0.0004
377,1.1500214338302612,2.17720365524292,0.46153846153846156,0.9423076923076923,0.14285714285714285,0.6428571428571429,0.0004
378,1.230162262916565,1.6110395193099976,0.46153846153846156,0.9230769230769231,0.2857142857142857,0.8571428571428571,0.0004
379,1.352082073688507,1.5750315189361572,0.4807692307692308,0.9038461538461539,0.21428571428571427,0.8571428571428571,0.0004
380,1.1904239654541016,1.3206815719604492,0.5576923076923077,0.9230769230769231,0.35714285714285715,0.9285714285714286,0.0004
381,1.333538293838501,1.3192741870880127,0.46153846153846156,0.9038461538461539,0.42857142857142855,0.8571428571428571,0.0004
382,1.2601956129074097,1.3782062530517578,0.5192307692307693,0.9038461538461539,0.35714285714285715,0.9285714285714286,0.0004
383,1.3366215825080872,1.5696463584899902,0.4230769230769231,0.8653846153846154,0.35714285714285715,0.8571428571428571,0.0004
384,1.155148983001709,1.636179804801941,0.5192307692307693,0.9615384615384616,0.42857142857142855,0.8571428571428571,0.0004
385,1.089841902256012,1.3318045139312744,0.5384615384615384,0.9807692307692307,0.42857142857142855,0.9285714285714286,0.0004
386,1.2854857444763184,1.521105408668518,0.5,0.9038461538461539,0.35714285714285715,0.8571428571428571,0.0004
387,1.2079052925109863,1.5468664169311523,0.5,0.9230769230769231,0.42857142857142855,0.8571428571428571,0.0004
388,1.1163766384124756,1.5631293058395386,0.5192307692307693,0.9615384615384616,0.5,0.8571428571428571,0.0004
389,1.2731010913848877,1.6246330738067627,0.4807692307692308,0.9038461538461539,0.2857142857142857,0.8571428571428571,0.0004
390,1.3199610114097595,1.5908160209655762,0.4807692307692308,0.9230769230769231,0.35714285714285715,0.8571428571428571,0.0004
391,1.385461449623108,1.577798843383789,0.4423076923076923,0.8846153846153846,0.35714285714285715,0.8571428571428571,0.0004
392,1.2894421815872192,1.392696738243103,0.4230769230769231,0.9038461538461539,0.35714285714285715,0.9285714285714286,0.0004
393,1.357076644897461,1.684298038482666,0.4807692307692308,0.9038461538461539,0.2857142857142857,0.8571428571428571,0.0004
394,1.3703455328941345,1.384554386138916,0.4230769230769231,0.8653846153846154,0.2857142857142857,0.9285714285714286,0.0004
395,1.1906591653823853,1.6163840293884277,0.5192307692307693,0.9423076923076923,0.2857142857142857,0.8571428571428571,0.0004
396,1.34370356798172,1.517409324645996,0.4230769230769231,0.9038461538461539,0.21428571428571427,0.8571428571428571,0.0004
397,1.0846711993217468,1.679591178894043,0.5576923076923077,0.9615384615384616,0.21428571428571427,0.8571428571428571,0.0004
398,1.240054190158844,1.5182459354400635,0.5384615384615384,0.9038461538461539,0.35714285714285715,0.8571428571428571,0.0004
399,1.2385568022727966,1.6663109064102173,0.4807692307692308,0.9230769230769231,0.35714285714285715,0.7857142857142857,0.0004
400,1.2851908206939697,1.3310949802398682,0.5192307692307693,0.9038461538461539,0.2857142857142857,0.9285714285714286,0.0004
401,1.5704152584075928,1.617779016494751,0.36538461538461536,0.8461538461538461,0.2857142857142857,0.8571428571428571,0.0004
402,1.3519123196601868,1.9916915893554688,0.5,0.8846153846153846,0.21428571428571427,0.7142857142857143,0.0004
403,1.4249863624572754,1.4789793491363525,0.46153846153846156,0.8653846153846154,0.35714285714285715,0.8571428571428571,0.0004
404,1.2760603427886963,1.477339506149292,0.5192307692307693,0.8846153846153846,0.35714285714285715,0.8571428571428571,0.0004
405,1.5896236896514893,1.3938192129135132,0.46153846153846156,0.8076923076923077,0.42857142857142855,0.8571428571428571,0.0004
406,1.3440285921096802,2.0111377239227295,0.4807692307692308,0.8653846153846154,0.21428571428571427,0.6428571428571429,0.0004
407,1.5634678602218628,1.9045295715332031,0.4230769230769231,0.8076923076923077,0.35714285714285715,0.5714285714285714,0.0004
408,1.387776792049408,1.594367265701294,0.46153846153846156,0.7692307692307693,0.42857142857142855,0.7142857142857143,0.0004
409,1.4076272249221802,1.8857874870300293,0.5576923076923077,0.8461538461538461,0.35714285714285715,0.6428571428571429,0.0004
410,1.405864655971527,1.5856235027313232,0.4807692307692308,0.75,0.42857142857142855,0.6428571428571429,0.0004
411,1.303806185722351,1.577545166015625,0.4423076923076923,0.8269230769230769,0.5,0.7857142857142857,0.0004
412,1.2530093789100647,1.73581862449646,0.4423076923076923,0.8653846153846154,0.2857142857142857,0.7857142857142857,0.0004
413,1.332874059677124,1.780869722366333,0.4230769230769231,0.9038461538461539,0.2857142857142857,0.7142857142857143,0.0004
414,1.2413265705108643,1.3784587383270264,0.5384615384615384,0.9038461538461539,0.6428571428571429,0.9285714285714286,0.0004
415,1.3728615641593933,1.399775505065918,0.46153846153846156,0.9230769230769231,0.5,0.9285714285714286,0.0004
416,1.509966254234314,1.664371371269226,0.46153846153846156,0.9038461538461539,0.2857142857142857,0.8571428571428571,0.0004
417,1.2167744040489197,1.7286031246185303,0.4230769230769231,0.9230769230769231,0.2857142857142857,0.7857142857142857,0.0004
418,1.2080247402191162,1.6762409210205078,0.5769230769230769,0.9615384615384616,0.21428571428571427,0.8571428571428571,0.0004
419,1.2345693707466125,1.8495807647705078,0.5384615384615384,0.9423076923076923,0.14285714285714285,0.7142857142857143,0.0004
420,1.3704655170440674,1.3596247434616089,0.4423076923076923,0.8846153846153846,0.2857142857142857,0.9285714285714286,0.0004
421,1.3164622783660889,1.78046452999115,0.4230769230769231,0.9038461538461539,0.21428571428571427,0.7857142857142857,0.0004
422,1.4516803622245789,1.6048669815063477,0.38461538461538464,0.7884615384615384,0.21428571428571427,0.8571428571428571,0.0004
423,1.2550618648529053,1.821152925491333,0.5,0.8846153846153846,0.21428571428571427,0.6428571428571429,0.0004
424,1.2599915266036987,1.4663947820663452,0.5384615384615384,0.9423076923076923,0.2857142857142857,0.8571428571428571,0.0004
425,1.3198569416999817,1.6697843074798584,0.46153846153846156,0.8846153846153846,0.21428571428571427,0.7857142857142857,0.0004
426,1.2559818029403687,1.4262003898620605,0.5,0.9038461538461539,0.2857142857142857,0.9285714285714286,0.0004
427,1.2928104996681213,1.6727652549743652,0.4807692307692308,0.9230769230769231,0.35714285714285715,0.8571428571428571,0.0004
428,1.143023669719696,1.4534645080566406,0.6346153846153846,0.9807692307692307,0.2857142857142857,0.8571428571428571,0.0004
429,1.2318561673164368,1.5505871772766113,0.5,0.9423076923076923,0.2857142857142857,0.7857142857142857,0.0004
430,1.2832744717597961,1.3761273622512817,0.6153846153846154,0.9423076923076923,0.5,0.9285714285714286,0.0004
431,1.2067802548408508,1.4253737926483154,0.5,0.9615384615384616,0.42857142857142855,0.8571428571428571,0.0004
432,1.3125259280204773,1.3805466890335083,0.4423076923076923,0.8846153846153846,0.5,0.9285714285714286,0.0004
433,1.2435373067855835,1.6234389543533325,0.4423076923076923,0.9230769230769231,0.35714285714285715,0.7857142857142857,0.0004
434,1.1694616675376892,1.4846729040145874,0.5,0.9807692307692307,0.35714285714285715,0.8571428571428571,0.0004
435,1.2139946818351746,1.7068135738372803,0.5,0.9615384615384616,0.5,0.7857142857142857,0.0004
436,1.3665693998336792,1.7175626754760742,0.4807692307692308,0.9038461538461539,0.42857142857142855,0.7857142857142857,0.0004
437,1.261318027973175,1.6748039722442627,0.5384615384615384,0.9230769230769231,0.2857142857142857,0.8571428571428571,0.0004
438,1.434060513973236,1.7183243036270142,0.46153846153846156,0.8846153846153846,0.2857142857142857,0.7857142857142857,0.0004
439,1.2825182676315308,1.3772978782653809,0.4807692307692308,0.9230769230769231,0.2857142857142857,0.9285714285714286,0.0004
440,1.261511206626892,1.5911335945129395,0.5,0.9230769230769231,0.21428571428571427,0.8571428571428571,0.0004
441,1.1896705031394958,1.4670078754425049,0.5576923076923077,0.9423076923076923,0.35714285714285715,0.8571428571428571,0.0004
442,1.4825093746185303,1.296572208404541,0.4230769230769231,0.8653846153846154,0.42857142857142855,0.9285714285714286,0.0004
443,1.2174637913703918,1.537431001663208,0.5,0.9230769230769231,0.21428571428571427,0.8571428571428571,0.0004
444,1.2295846343040466,1.3141422271728516,0.5,0.9230769230769231,0.35714285714285715,0.9285714285714286,0.0004
445,1.2895258069038391,1.316267728805542,0.5,0.9230769230769231,0.42857142857142855,0.9285714285714286,0.0004
446,1.262755572795868,1.5395443439483643,0.4807692307692308,0.9230769230769231,0.2857142857142857,0.8571428571428571,0.0004
447,1.371870994567871,1.4320495128631592,0.4230769230769231,0.9038461538461539,0.42857142857142855,0.8571428571428571,0.0004
448,1.0994905829429626,1.2838506698608398,0.5384615384615384,0.9807692307692307,0.42857142857142855,0.9285714285714286,0.0004
449,1.2290054559707642,1.3245644569396973,0.5,0.9230769230769231,0.21428571428571427,0.9285714285714286,0.0004
450,1.3181610107421875,1.7172374725341797,0.4423076923076923,0.8653846153846154,0.5,0.7857142857142857,0.0004
451,1.0791411995887756,1.59561026096344,0.5384615384615384,0.9807692307692307,0.35714285714285715,0.8571428571428571,0.0004
452,1.0727909207344055,1.3292677402496338,0.5961538461538461,0.9807692307692307,0.5,0.9285714285714286,0.0004
453,1.2284291982650757,1.3637913465499878,0.5,0.9230769230769231,0.35714285714285715,0.9285714285714286,0.0004
454,1.3825940489768982,1.3641915321350098,0.4230769230769231,0.8653846153846154,0.5,0.8571428571428571,0.0004
455,1.1167256832122803,2.0248522758483887,0.5384615384615384,0.9615384615384616,0.42857142857142855,0.6428571428571429,0.0004
456,1.3222577571868896,1.4556078910827637,0.46153846153846156,0.8846153846153846,0.5,0.8571428571428571,0.0004
457,1.1773220300674438,1.3692998886108398,0.4807692307692308,0.9423076923076923,0.5,0.8571428571428571,0.0004
458,1.1710146069526672,1.579085350036621,0.5576923076923077,0.9230769230769231,0.2857142857142857,0.7857142857142857,0.0004
459,1.1705555319786072,1.8272535800933838,0.5769230769230769,0.9423076923076923,0.2857142857142857,0.7142857142857143,0.0004
460,1.2199445962905884,1.5810203552246094,0.5384615384615384,0.9230769230769231,0.2857142857142857,0.7857142857142857,0.0004
461,1.189159333705902,1.370336651802063,0.5384615384615384,0.9230769230769231,0.5714285714285714,0.8571428571428571,0.0004
462,1.1202966570854187,1.4177186489105225,0.5769230769230769,0.9230769230769231,0.42857142857142855,0.8571428571428571,0.0004
463,1.3503633737564087,1.5663666725158691,0.4230769230769231,0.8846153846153846,0.35714285714285715,0.8571428571428571,0.0004
464,1.1058673858642578,1.258324146270752,0.5,0.9423076923076923,0.2857142857142857,0.9285714285714286,0.0004
465,1.2160397171974182,1.5298815965652466,0.4807692307692308,0.9230769230769231,0.2857142857142857,0.8571428571428571,0.0004
466,1.036350131034851,1.428797960281372,0.5769230769230769,0.9615384615384616,0.42857142857142855,0.8571428571428571,0.0004
467,1.1517844796180725,1.1776355504989624,0.5,0.9423076923076923,0.42857142857142855,0.9285714285714286,0.0004
468,1.2272908687591553,1.4707098007202148,0.5,0.9038461538461539,0.42857142857142855,0.7857142857142857,0.0004
469,1.0437917113304138,1.274835467338562,0.5576923076923077,0.9615384615384616,0.42857142857142855,0.8571428571428571,0.0004
470,1.4119598269462585,1.6411707401275635,0.5,0.8653846153846154,0.35714285714285715,0.7857142857142857,0.0004
471,1.1356027722358704,1.810589075088501,0.5192307692307693,0.9423076923076923,0.2857142857142857,0.7857142857142857,0.0004
472,1.175007939338684,1.1849032640457153,0.5,0.9230769230769231,0.5,0.9285714285714286,0.0004
473,1.3979389071464539,1.2194766998291016,0.5192307692307693,0.8461538461538461,0.35714285714285715,0.9285714285714286,0.0004
474,1.2632468342781067,1.4306018352508545,0.4807692307692308,0.9038461538461539,0.5,0.8571428571428571,0.0004
475,1.2008036375045776,1.4295283555984497,0.5384615384615384,0.9423076923076923,0.42857142857142855,0.8571428571428571,0.0004
476,1.2234947681427002,1.6346098184585571,0.5384615384615384,0.9423076923076923,0.21428571428571427,0.7857142857142857,0.0004
477,1.1513552069664001,1.1496528387069702,0.5,0.9423076923076923,0.42857142857142855,0.9285714285714286,0.0004
478,0.9559194445610046,1.4570382833480835,0.6346153846153846,1.0,0.42857142857142855,0.8571428571428571,0.0004
479,1.0309088826179504,1.4877886772155762,0.5384615384615384,0.9615384615384616,0.35714285714285715,0.8571428571428571,0.0004
480,1.2629667520523071,1.1138068437576294,0.4423076923076923,0.9038461538461539,0.5,0.9285714285714286,0.0004
481,0.9585019648075104,1.1298619508743286,0.5576923076923077,0.9807692307692307,0.5,0.9285714285714286,0.0004
482,1.235655128955841,1.6832892894744873,0.46153846153846156,0.9230769230769231,0.2857142857142857,0.7857142857142857,0.0004
483,1.2057232856750488,1.6125062704086304,0.4807692307692308,0.9615384615384616,0.5,0.7857142857142857,0.0004
484,1.1612379550933838,1.2752132415771484,0.4807692307692308,0.9423076923076923,0.5,0.9285714285714286,0.0004
485,1.0738852620124817,1.5010515451431274,0.5576923076923077,0.9615384615384616,0.42857142857142855,0.8571428571428571,0.0004
486,1.2887762784957886,1.4573578834533691,0.5384615384615384,0.9038461538461539,0.35714285714285715,0.8571428571428571,0.0004
487,1.3242868185043335,1.561833381652832,0.4423076923076923,0.9038461538461539,0.21428571428571427,0.8571428571428571,0.0004
488,1.2889952659606934,1.461694598197937,0.46153846153846156,0.9038461538461539,0.35714285714285715,0.8571428571428571,0.0004
489,1.1661397814750671,1.5652406215667725,0.5,0.9615384615384616,0.21428571428571427,0.8571428571428571,0.0004
490,1.2674092650413513,1.512710452079773,0.5192307692307693,0.9230769230769231,0.2857142857142857,0.8571428571428571,0.0004
491,1.2124910950660706,1.2708765268325806,0.5,0.9230769230769231,0.35714285714285715,0.9285714285714286,0.0004
492,1.3236021995544434,1.534118890762329,0.46153846153846156,0.9230769230769231,0.21428571428571427,0.8571428571428571,0.0004
493,1.282375454902649,1.54739511013031,0.5384615384615384,0.9038461538461539,0.35714285714285715,0.8571428571428571,0.0004
494,1.5285017490386963,1.4279167652130127,0.5,0.8461538461538461,0.5,0.8571428571428571,0.0004
495,1.2151301503181458,1.743910551071167,0.5,0.9230769230769231,0.2857142857142857,0.7857142857142857,0.0004
496,1.4721770882606506,1.297978162765503,0.38461538461538464,0.8461538461538461,0.2857142857142857,0.9285714285714286,0.0004
497,1.3415136337280273,1.864168405532837,0.46153846153846156,0.8846153846153846,0.35714285714285715,0.7142857142857143,0.0004
498,1.29975026845932,1.2794722318649292,0.4807692307692308,0.8846153846153846,0.35714285714285715,0.9285714285714286,0.0004
499,1.161376416683197,1.5020108222961426,0.5576923076923077,0.9230769230769231,0.21428571428571427,0.8571428571428571,0.0004
500,1.188473880290985,1.4758051633834839,0.6346153846153846,0.9230769230769231,0.2857142857142857,0.8571428571428571,0.0004
501,1.2540521621704102,1.5530648231506348,0.4807692307692308,0.9038461538461539,0.42857142857142855,0.7857142857142857,0.0004
502,1.2892608046531677,1.5928468704223633,0.4423076923076923,0.8846153846153846,0.42857142857142855,0.7857142857142857,0.0004
503,1.3828336000442505,1.3620356321334839,0.46153846153846156,0.8269230769230769,0.35714285714285715,0.8571428571428571,0.0004
504,1.37240868806839,1.3811877965927124,0.40384615384615385,0.8461538461538461,0.21428571428571427,0.9285714285714286,0.0004
505,1.2715591192245483,1.235753059387207,0.5576923076923077,0.8846153846153846,0.7142857142857143,0.8571428571428571,0.0004
506,1.2330368161201477,1.3000985383987427,0.4423076923076923,0.9230769230769231,0.42857142857142855,0.9285714285714286,0.0004
507,1.3311171531677246,1.1813584566116333,0.4807692307692308,0.8653846153846154,0.5714285714285714,0.8571428571428571,0.0004
508,1.3347579836845398,1.3323211669921875,0.4423076923076923,0.8653846153846154,0.5714285714285714,0.8571428571428571,0.0004
509,1.2289077639579773,1.4008183479309082,0.5384615384615384,0.8846153846153846,0.35714285714285715,0.8571428571428571,0.0004
510,1.30788254737854,1.4431910514831543,0.5,0.8461538461538461,0.5714285714285714,0.7857142857142857,0.0004
511,1.299018919467926,1.6331279277801514,0.46153846153846156,0.8653846153846154,0.42857142857142855,0.7857142857142857,0.0004
512,1.2253637909889221,1.3665908575057983,0.5,0.8461538461538461,0.5,0.8571428571428571,0.0004
513,1.3144539594650269,1.1922715902328491,0.4423076923076923,0.8461538461538461,0.42857142857142855,0.9285714285714286,0.0004
514,1.2814262509346008,1.3419028520584106,0.5384615384615384,0.8653846153846154,0.35714285714285715,0.8571428571428571,0.0004
515,1.2745375633239746,1.3956950902938843,0.4807692307692308,0.8653846153846154,0.42857142857142855,0.8571428571428571,0.0004
516,1.275578498840332,1.2851041555404663,0.4807692307692308,0.8461538461538461,0.6428571428571429,0.8571428571428571,0.0004
517,1.39449542760849,1.3703217506408691,0.4423076923076923,0.8846153846153846,0.5,0.8571428571428571,0.0004
518,1.3519361019134521,1.1377848386764526,0.46153846153846156,0.9038461538461539,0.6428571428571429,0.8571428571428571,0.0004
519,1.1767987608909607,1.6063441038131714,0.5384615384615384,0.9038461538461539,0.42857142857142855,0.8571428571428571,0.0004
520,1.1017240285873413,1.2115980386734009,0.5,0.9230769230769231,0.5714285714285714,0.8571428571428571,0.0004
521,1.0796239972114563,1.7014902830123901,0.6153846153846154,0.8846153846153846,0.42857142857142855,0.8571428571428571,0.0004
522,1.2350066900253296,1.8200395107269287,0.5384615384615384,0.8269230769230769,0.35714285714285715,0.7857142857142857,0.0004
523,1.2763279676437378,1.2258888483047485,0.5384615384615384,0.8653846153846154,0.35714285714285715,0.8571428571428571,0.0004
524,1.2948635816574097,1.7115459442138672,0.5576923076923077,0.8461538461538461,0.5714285714285714,0.8571428571428571,0.0004
525,1.1615161299705505,1.4411070346832275,0.4807692307692308,0.9038461538461539,0.42857142857142855,0.8571428571428571,0.0004
526,1.1091787815093994,1.2664635181427002,0.46153846153846156,0.9038461538461539,0.35714285714285715,0.8571428571428571,0.0004
527,1.1487407684326172,1.2586474418640137,0.5384615384615384,0.8653846153846154,0.5,0.8571428571428571,0.0004
528,0.9868159294128418,1.545623779296875,0.5576923076923077,0.9423076923076923,0.35714285714285715,0.8571428571428571,0.0004
529,1.2014091610908508,1.7867834568023682,0.5961538461538461,0.9038461538461539,0.35714285714285715,0.8571428571428571,0.0004
530,1.2026070952415466,1.6687228679656982,0.5384615384615384,0.9038461538461539,0.5,0.8571428571428571,0.0004
531,1.0071603059768677,1.6832854747772217,0.6538461538461539,0.9807692307692307,0.2857142857142857,0.8571428571428571,0.0004
532,1.179243266582489,1.322225570678711,0.5192307692307693,0.9423076923076923,0.5,0.9285714285714286,0.0004
533,1.1748283505439758,1.7741570472717285,0.5769230769230769,0.9230769230769231,0.42857142857142855,0.7857142857142857,0.0004
534,1.2234830260276794,1.527479648590088,0.5384615384615384,0.9038461538461539,0.5714285714285714,0.6428571428571429,0.0004
535,1.3960916996002197,1.329740285873413,0.5961538461538461,0.8846153846153846,0.7142857142857143,0.7857142857142857,0.0004
536,1.2358777523040771,1.2590429782867432,0.6153846153846154,0.9615384615384616,0.5714285714285714,0.8571428571428571,0.0004
537,1.1397700309753418,1.8181335926055908,0.5769230769230769,0.9038461538461539,0.5714285714285714,0.7857142857142857,0.0004
538,1.028476893901825,1.2729419469833374,0.4807692307692308,0.9230769230769231,0.42857142857142855,0.9285714285714286,0.0004
539,1.047396719455719,2.0890724658966064,0.5192307692307693,0.9423076923076923,0.21428571428571427,0.7857142857142857,0.0004
540,1.2711125016212463,1.4875550270080566,0.5576923076923077,0.8653846153846154,0.42857142857142855,0.8571428571428571,0.0004
541,1.3770609498023987,1.203284740447998,0.5384615384615384,0.8461538461538461,0.5,0.9285714285714286,0.0004
542,1.2628297209739685,1.6502372026443481,0.5769230769230769,0.8653846153846154,0.2857142857142857,0.8571428571428571,0.0004
543,1.0338553488254547,1.2638521194458008,0.5192307692307693,0.9615384615384616,0.5714285714285714,0.8571428571428571,0.0004
544,1.159755825996399,1.4914973974227905,0.46153846153846156,0.9038461538461539,0.6428571428571429,0.7857142857142857,0.0004
545,1.2088205814361572,1.2136728763580322,0.5,0.9615384615384616,0.5714285714285714,0.8571428571428571,0.0004
546,1.3838205337524414,1.3250503540039062,0.4230769230769231,0.9230769230769231,0.5,0.8571428571428571,0.0004
547,1.4769864678382874,1.6707289218902588,0.4423076923076923,0.9230769230769231,0.42857142857142855,0.8571428571428571,0.0004
548,1.4565480947494507,1.4832134246826172,0.36538461538461536,0.9423076923076923,0.5,0.8571428571428571,0.0004
549,1.177007794380188,1.1323357820510864,0.4230769230769231,0.9807692307692307,0.5714285714285714,0.9285714285714286,0.0004
550,1.2852296233177185,1.5741329193115234,0.5192307692307693,0.9038461538461539,0.5,0.7857142857142857,0.0004
551,1.3696978688240051,1.8059016466140747,0.5384615384615384,0.8846153846153846,0.42857142857142855,0.7857142857142857,0.0004
552,1.3074955940246582,1.157465934753418,0.5961538461538461,0.8846153846153846,0.42857142857142855,0.9285714285714286,0.0004
553,1.1674272418022156,1.2707139253616333,0.4807692307692308,0.9230769230769231,0.5714285714285714,0.8571428571428571,0.0004
554,1.0485858619213104,1.6452269554138184,0.5961538461538461,0.9423076923076923,0.42857142857142855,0.7857142857142857,0.0004
555,1.185104489326477,1.4231555461883545,0.5,0.9230769230769231,0.5714285714285714,0.8571428571428571,0.0004
556,1.1891818642616272,1.457343578338623,0.5384615384615384,0.9230769230769231,0.35714285714285715,0.8571428571428571,0.0004
557,1.206433892250061,1.662843108177185,0.5384615384615384,0.9038461538461539,0.35714285714285715,0.8571428571428571,0.0004
558,1.2965604662895203,1.4475336074829102,0.5192307692307693,0.9038461538461539,0.5714285714285714,0.8571428571428571,0.0004
559,1.2282720804214478,1.2937595844268799,0.5384615384615384,0.9038461538461539,0.35714285714285715,0.9285714285714286,0.0004
560,1.5937143564224243,1.5472816228866577,0.46153846153846156,0.8269230769230769,0.2857142857142857,0.8571428571428571,0.0004
561,1.101367473602295,1.467037320137024,0.5576923076923077,0.9423076923076923,0.42857142857142855,0.8571428571428571,0.0004
562,1.1684587001800537,1.247631549835205,0.5192307692307693,0.9423076923076923,0.42857142857142855,0.9285714285714286,0.0004
563,1.0033123791217804,1.2726020812988281,0.5769230769230769,0.9807692307692307,0.42857142857142855,0.9285714285714286,0.0004
564,1.086336076259613,1.4188930988311768,0.6153846153846154,0.9423076923076923,0.42857142857142855,0.8571428571428571,0.0004
565,1.1069685220718384,1.5922060012817383,0.5769230769230769,0.9423076923076923,0.2857142857142857,0.8571428571428571,0.0004
566,1.3239834308624268,1.2498902082443237,0.4807692307692308,0.8846153846153846,0.42857142857142855,0.9285714285714286,0.0004
567,1.2237008810043335,1.5962109565734863,0.5,0.9423076923076923,0.2857142857142857,0.8571428571428571,0.0004
568,1.221341609954834,1.7152252197265625,0.5576923076923077,0.9230769230769231,0.2857142857142857,0.7857142857142857,0.0004
569,1.2805101871490479,1.375635027885437,0.5,0.9230769230769231,0.42857142857142855,0.8571428571428571,0.0004
570,1.2249216437339783,1.4817960262298584,0.5,0.9230769230769231,0.35714285714285715,0.8571428571428571,0.0004
571,1.0366647243499756,1.4155731201171875,0.5961538461538461,0.9615384615384616,0.42857142857142855,0.8571428571428571,0.0004
572,1.20982164144516,1.595907211303711,0.5384615384615384,0.9230769230769231,0.42857142857142855,0.7857142857142857,0.0004
573,1.138137400150299,1.5614042282104492,0.5576923076923077,0.9423076923076923,0.5,0.7857142857142857,0.0004
574,1.1013190746307373,1.6615371704101562,0.5384615384615384,0.9615384615384616,0.35714285714285715,0.7857142857142857,0.0004
575,1.0583550930023193,1.6591778993606567,0.6346153846153846,0.9615384615384616,0.35714285714285715,0.7857142857142857,0.0004
576,1.1688607335090637,1.3832061290740967,0.5,0.9423076923076923,0.42857142857142855,0.8571428571428571,0.0004
577,1.1463512778282166,1.3648507595062256,0.5961538461538461,0.9230769230769231,0.42857142857142855,0.8571428571428571,0.0004
578,1.0775925517082214,1.3800106048583984,0.6346153846153846,0.9423076923076923,0.5,0.8571428571428571,0.0004
579,1.279958963394165,1.3612014055252075,0.46153846153846156,0.9230769230769231,0.42857142857142855,0.8571428571428571,0.0004
580,1.213992953300476,1.7670660018920898,0.5576923076923077,0.9230769230769231,0.2857142857142857,0.7857142857142857,0.0004
581,0.9879637062549591,1.446500301361084,0.5576923076923077,0.9807692307692307,0.35714285714285715,0.8571428571428571,0.0004
582,1.3579826951026917,1.1546353101730347,0.5769230769230769,0.8846153846153846,0.5,0.9285714285714286,0.0004
583,1.0265336632728577,1.4547721147537231,0.6153846153846154,0.9615384615384616,0.42857142857142855,0.8571428571428571,0.0004
584,1.2348321080207825,1.4604034423828125,0.5192307692307693,0.9230769230769231,0.5,0.8571428571428571,0.0004
585,1.2460833191871643,1.7756633758544922,0.4807692307692308,0.9230769230769231,0.35714285714285715,0.7857142857142857,0.0004
586,1.1512600183486938,1.7426564693450928,0.5192307692307693,0.9230769230769231,0.35714285714285715,0.7857142857142857,0.0004
587,1.1949279308319092,1.4693776369094849,0.6153846153846154,0.9038461538461539,0.42857142857142855,0.8571428571428571,0.0004
588,1.1042287945747375,1.1713473796844482,0.5769230769230769,0.9423076923076923,0.5,0.9285714285714286,0.0004
589,1.106551468372345,1.7213820219039917,0.5384615384615384,0.9423076923076923,0.35714285714285715,0.7857142857142857,0.0004
590,0.9409290850162506,1.3915178775787354,0.6346153846153846,0.9807692307692307,0.5,0.8571428571428571,0.0004
591,1.0831337571144104,1.399017333984375,0.6153846153846154,0.9423076923076923,0.5,0.8571428571428571,0.0004
592,1.1317059993743896,1.3308169841766357,0.5192307692307693,0.9423076923076923,0.5714285714285714,0.8571428571428571,0.0004
593,1.3142340779304504,1.388559103012085,0.46153846153846156,0.9038461538461539,0.5,0.8571428571428571,0.0004
594,1.2182864546775818,1.263197422027588,0.5576923076923077,0.9038461538461539,0.35714285714285715,0.9285714285714286,0.0004
595,1.1774566173553467,1.150118112564087,0.5192307692307693,0.9230769230769231,0.5,0.9285714285714286,0.0004
596,1.228556752204895,1.7571146488189697,0.5192307692307693,0.9423076923076923,0.42857142857142855,0.7857142857142857,0.0004
597,1.2588573098182678,1.2000112533569336,0.38461538461538464,0.9230769230769231,0.5,0.9285714285714286,0.0004
598,1.21184903383255,1.7135233879089355,0.5384615384615384,0.9230769230769231,0.35714285714285715,0.7857142857142857,0.0004
599,1.0262666046619415,1.765742540359497,0.6346153846153846,0.9423076923076923,0.42857142857142855,0.7857142857142857,0.0004
600,1.1308395266532898,1.2142281532287598,0.5384615384615384,0.9230769230769231,0.42857142857142855,0.9285714285714286,0.0004
601,1.4497818350791931,1.5429306030273438,0.5,0.8846153846153846,0.2857142857142857,0.8571428571428571,0.0004
602,1.0559296011924744,1.56369948387146,0.5961538461538461,0.9807692307692307,0.2857142857142857,0.8571428571428571,0.0004
603,1.3743889927864075,1.6990731954574585,0.5192307692307693,0.9038461538461539,0.2857142857142857,0.7857142857142857,0.0004
604,1.1555348634719849,1.6384934186935425,0.5769230769230769,0.9230769230769231,0.21428571428571427,0.8571428571428571,0.0004
605,1.290943205356598,1.8808205127716064,0.5384615384615384,0.9230769230769231,0.21428571428571427,0.7857142857142857,0.0004
606,1.1324479579925537,1.8971177339553833,0.5576923076923077,0.9615384615384616,0.21428571428571427,0.7857142857142857,0.0004
607,1.2709572911262512,1.8043901920318604,0.5192307692307693,0.9230769230769231,0.2857142857142857,0.7857142857142857,0.0004
608,1.167925238609314,1.6971421241760254,0.5576923076923077,0.9423076923076923,0.35714285714285715,0.7857142857142857,0.0004
609,1.1729458570480347,1.4953906536102295,0.5384615384615384,0.9423076923076923,0.2857142857142857,0.8571428571428571,0.0004
610,1.1801207661628723,1.5754117965698242,0.5,0.9423076923076923,0.5,0.7857142857142857,0.0004
611,1.2491810321807861,1.1973974704742432,0.5192307692307693,0.9038461538461539,0.42857142857142855,0.9285714285714286,0.0004
612,1.1993497014045715,1.4883085489273071,0.5192307692307693,0.9230769230769231,0.35714285714285715,0.8571428571428571,0.0004
613,1.149962842464447,1.4336354732513428,0.5384615384615384,0.9423076923076923,0.35714285714285715,0.8571428571428571,0.0004
614,0.9467836916446686,1.815337061882019,0.6538461538461539,0.9807692307692307,0.35714285714285715,0.7857142857142857,0.0004
615,1.0818243622779846,1.7415580749511719,0.5769230769230769,0.9615384615384616,0.35714285714285715,0.7857142857142857,0.0004
616,1.1568921208381653,1.5221343040466309,0.5192307692307693,0.9423076923076923,0.35714285714285715,0.8571428571428571,0.0004
617,1.1160645186901093,1.5202126502990723,0.5576923076923077,0.9423076923076923,0.35714285714285715,0.8571428571428571,0.0004
618,1.3421991467475891,1.4355815649032593,0.38461538461538464,0.9038461538461539,0.5714285714285714,0.8571428571428571,0.0004
619,1.1739598214626312,1.1762031316757202,0.5384615384615384,0.9230769230769231,0.5714285714285714,0.9285714285714286,0.0004
620,1.121692955493927,1.6070306301116943,0.5576923076923077,0.9423076923076923,0.2857142857142857,0.8571428571428571,0.0004
621,1.204913079738617,1.5335888862609863,0.5961538461538461,0.9230769230769231,0.42857142857142855,0.8571428571428571,0.0004
622,1.0696128606796265,1.2436977624893188,0.5576923076923077,0.9615384615384616,0.5,0.9285714285714286,0.0004
623,1.438255488872528,1.7930872440338135,0.40384615384615385,0.8653846153846154,0.2857142857142857,0.7857142857142857,0.0004
624,1.1357526779174805,1.1998038291931152,0.46153846153846156,0.9423076923076923,0.5,0.9285714285714286,0.0004
625,1.2180894613265991,1.5678379535675049,0.46153846153846156,0.9230769230769231,0.2857142857142857,0.8571428571428571,0.0004
626,1.2983646988868713,1.6603574752807617,0.5,0.8846153846153846,0.2857142857142857,0.8571428571428571,0.0004
627,1.1637560725212097,1.4697552919387817,0.5192307692307693,0.9230769230769231,0.35714285714285715,0.8571428571428571,0.0004
628,1.1569920778274536,1.3489627838134766,0.5384615384615384,0.9230769230769231,0.5714285714285714,0.8571428571428571,0.0004
629,1.1130123734474182,1.4735097885131836,0.5192307692307693,0.9423076923076923,0.35714285714285715,0.8571428571428571,0.0004
630,1.2334166169166565,1.2246971130371094,0.5384615384615384,0.9038461538461539,0.42857142857142855,0.9285714285714286,0.0004
631,1.2645036578178406,1.4245378971099854,0.5192307692307693,0.8846153846153846,0.5,0.8571428571428571,0.0004
632,1.1900716423988342,1.1269294023513794,0.5769230769230769,0.9038461538461539,0.5714285714285714,0.9285714285714286,0.0004
633,1.1053759455680847,1.620261788368225,0.5192307692307693,0.9423076923076923,0.2857142857142857,0.7857142857142857,0.0004
634,1.3467994332313538,1.642289161682129,0.5192307692307693,0.8653846153846154,0.42857142857142855,0.7857142857142857,0.0004
635,1.091007649898529,1.7356789112091064,0.5769230769230769,0.9230769230769231,0.2857142857142857,0.7857142857142857,0.0004
636,1.153116226196289,1.3451467752456665,0.5769230769230769,0.9230769230769231,0.42857142857142855,0.8571428571428571,0.0004
637,1.298076331615448,1.3040790557861328,0.5,0.8653846153846154,0.35714285714285715,0.8571428571428571,0.0004
638,1.0786605477333069,1.2356797456741333,0.5961538461538461,0.9423076923076923,0.42857142857142855,0.9285714285714286,0.0004
639,1.2157124876976013,1.624384880065918,0.5192307692307693,0.9038461538461539,0.35714285714285715,0.7857142857142857,0.0004
640,1.306632161140442,1.537531852722168,0.5,0.8846153846153846,0.42857142857142855,0.7857142857142857,0.0004
641,1.4231499433517456,1.67305326461792,0.4423076923076923,0.8653846153846154,0.35714285714285715,0.7857142857142857,0.0004
642,1.0976919531822205,1.3487629890441895,0.5961538461538461,0.9423076923076923,0.35714285714285715,0.8571428571428571,0.0004
643,1.183766484260559,1.3496875762939453,0.5192307692307693,0.9423076923076923,0.42857142857142855,0.8571428571428571,0.0004
644,1.0879663825035095,1.3896167278289795,0.5961538461538461,0.9230769230769231,0.2857142857142857,0.8571428571428571,0.0004
645,1.1643160581588745,1.8720624446868896,0.5384615384615384,0.9230769230769231,0.42857142857142855,0.7142857142857143,0.0004
646,1.3048339486122131,1.4482282400131226,0.4423076923076923,0.8846153846153846,0.35714285714285715,0.8571428571428571,0.0004
647,1.0770087242126465,1.608058214187622,0.5576923076923077,0.9423076923076923,0.42857142857142855,0.8571428571428571,0.0004
648,1.4372791051864624,1.3736555576324463,0.36538461538461536,0.8269230769230769,0.42857142857142855,0.8571428571428571,0.0004
649,1.0131887793540955,1.0840257406234741,0.6153846153846154,0.9423076923076923,0.5,0.9285714285714286,0.0004
650,1.0811733603477478,1.7720065116882324,0.5576923076923077,0.9423076923076923,0.35714285714285715,0.7857142857142857,0.0004
651,1.1535665392875671,1.6516793966293335,0.5769230769230769,0.9423076923076923,0.42857142857142855,0.8571428571428571,0.0004
652,1.0633962154388428,1.7934573888778687,0.5384615384615384,0.9423076923076923,0.2857142857142857,0.7857142857142857,0.0004
653,0.9940611124038696,1.2647783756256104,0.5384615384615384,0.9615384615384616,0.6428571428571429,0.8571428571428571,0.0004
654,1.0479437708854675,1.8174313306808472,0.6730769230769231,0.9423076923076923,0.35714285714285715,0.7857142857142857,0.0004
655,1.1011461019515991,1.1878597736358643,0.5384615384615384,0.9230769230769231,0.5714285714285714,0.9285714285714286,0.0004
656,1.3965901732444763,0.884008526802063,0.5384615384615384,0.8653846153846154,0.7142857142857143,0.9285714285714286,0.0004
657,1.0948140621185303,1.038854956626892,0.5,0.9423076923076923,0.7142857142857143,0.9285714285714286,0.0004
658,1.1613408029079437,1.5624041557312012,0.5576923076923077,0.9423076923076923,0.42857142857142855,0.7857142857142857,0.0004
659,1.2458689212799072,1.8657342195510864,0.5576923076923077,0.9038461538461539,0.2857142857142857,0.7857142857142857,0.0004
660,1.2496373653411865,1.1763129234313965,0.4807692307692308,0.9230769230769231,0.5714285714285714,0.8571428571428571,0.0004
661,1.134104460477829,1.4741531610488892,0.5192307692307693,0.9230769230769231,0.5,0.8571428571428571,0.0004
662,1.1083195209503174,1.4483182430267334,0.5576923076923077,0.9230769230769231,0.42857142857142855,0.7857142857142857,0.0004
663,1.1773812770843506,1.4436959028244019,0.4807692307692308,0.9230769230769231,0.5714285714285714,0.7857142857142857,0.0004
664,1.0541377365589142,1.3685835599899292,0.5384615384615384,0.9615384615384616,0.5,0.8571428571428571,0.0004
665,1.0266538262367249,1.406590461730957,0.5769230769230769,0.9423076923076923,0.5,0.7857142857142857,0.0004
666,0.9386765658855438,1.2269551753997803,0.6538461538461539,0.9615384615384616,0.35714285714285715,0.9285714285714286,0.0004
667,1.0951628386974335,1.365510106086731,0.6346153846153846,0.9230769230769231,0.5,0.8571428571428571,0.0004
668,1.048471212387085,1.3233270645141602,0.5192307692307693,0.9807692307692307,0.42857142857142855,0.8571428571428571,0.0004
669,1.1442207098007202,1.2072306871414185,0.5769230769230769,0.9038461538461539,0.5714285714285714,0.8571428571428571,0.0004
670,1.076038807630539,1.2791463136672974,0.4807692307692308,0.9230769230769231,0.42857142857142855,0.8571428571428571,0.0004
671,1.1252008080482483,1.6562045812606812,0.5769230769230769,0.9230769230769231,0.2857142857142857,0.8571428571428571,0.0004
672,1.0005074739456177,1.2483961582183838,0.5576923076923077,1.0,0.5714285714285714,0.8571428571428571,0.0004
673,1.2558279037475586,2.1334424018859863,0.46153846153846156,0.9038461538461539,0.35714285714285715,0.7142857142857143,0.0004
674,1.1323049068450928,1.2756030559539795,0.4807692307692308,0.9615384615384616,0.6428571428571429,0.8571428571428571,0.0004
675,1.0297377109527588,1.8999650478363037,0.5192307692307693,0.9423076923076923,0.2857142857142857,0.8571428571428571,0.0004
676,1.2569438815116882,1.2340314388275146,0.5961538461538461,0.9038461538461539,0.6428571428571429,0.8571428571428571,0.0004
677,1.2163283824920654,1.9186632633209229,0.5192307692307693,0.9038461538461539,0.35714285714285715,0.7142857142857143,0.0004
678,1.4313127398490906,1.5461757183074951,0.5384615384615384,0.8653846153846154,0.6428571428571429,0.7857142857142857,0.0004
679,1.4624441862106323,2.456629753112793,0.5192307692307693,0.9038461538461539,0.42857142857142855,0.5,0.0004
680,1.5269643664360046,1.9164460897445679,0.4230769230769231,0.8076923076923077,0.2857142857142857,0.7142857142857143,0.0004
681,1.5073509812355042,1.4547518491744995,0.5576923076923077,0.8461538461538461,0.5,0.8571428571428571,0.0004
682,1.2496065497398376,1.508973479270935,0.4807692307692308,0.9423076923076923,0.42857142857142855,0.7142857142857143,0.0004
683,1.3953195810317993,1.4977253675460815,0.5769230769230769,0.8846153846153846,0.5,0.7857142857142857,0.0004
684,1.5085515975952148,1.570377230644226,0.40384615384615385,0.8269230769230769,0.5,0.7142857142857143,0.0004
685,1.330645203590393,1.486994743347168,0.5576923076923077,0.9230769230769231,0.5,0.7857142857142857,0.0004
686,1.320180356502533,1.5427343845367432,0.5384615384615384,0.9038461538461539,0.2857142857142857,0.8571428571428571,0.0004
687,1.3269587755203247,1.6097458600997925,0.5384615384615384,0.8461538461538461,0.2857142857142857,0.8571428571428571,0.0004
688,1.4716957807540894,1.441636562347412,0.4423076923076923,0.8269230769230769,0.35714285714285715,0.8571428571428571,0.0004
689,1.3004326820373535,1.2198472023010254,0.5384615384615384,0.8269230769230769,0.5,0.8571428571428571,0.0004
690,1.3347315192222595,1.4591692686080933,0.46153846153846156,0.8269230769230769,0.2857142857142857,0.8571428571428571,0.0004
691,1.3257330060005188,1.66648530960083,0.5384615384615384,0.8461538461538461,0.14285714285714285,0.8571428571428571,0.0004
692,1.2876852750778198,1.1818406581878662,0.5192307692307693,0.8269230769230769,0.6428571428571429,0.8571428571428571,0.0004
693,1.2255730032920837,1.4704513549804688,0.5384615384615384,0.9038461538461539,0.35714285714285715,0.7857142857142857,0.0004
694,1.1845200657844543,1.3414713144302368,0.5576923076923077,0.9038461538461539,0.42857142857142855,0.9285714285714286,0.0004
695,1.2208649516105652,1.3222838640213013,0.5384615384615384,0.9038461538461539,0.35714285714285715,0.9285714285714286,0.0004
696,1.3031961917877197,1.639113426208496,0.46153846153846156,0.8653846153846154,0.35714285714285715,0.6428571428571429,0.0004
697,1.161289930343628,1.6527893543243408,0.5384615384615384,0.9038461538461539,0.2857142857142857,0.7142857142857143,0.0004
698,1.3922491073608398,1.455565333366394,0.4230769230769231,0.8269230769230769,0.42857142857142855,0.7857142857142857,0.0004
699,1.3079329133033752,1.2002848386764526,0.46153846153846156,0.8653846153846154,0.5714285714285714,0.8571428571428571,0.0004
700,1.2578852772712708,1.94260573387146,0.4807692307692308,0.8846153846153846,0.2857142857142857,0.6428571428571429,0.0004
701,1.1379623413085938,1.4599449634552002,0.4807692307692308,0.9423076923076923,0.42857142857142855,0.7857142857142857,0.0004
702,1.2339878678321838,1.6046016216278076,0.5384615384615384,0.9423076923076923,0.5,0.7857142857142857,0.0004
703,1.0948610603809357,1.3743698596954346,0.5192307692307693,0.9230769230769231,0.42857142857142855,0.8571428571428571,0.0004
704,1.4159351587295532,1.1956080198287964,0.5192307692307693,0.8269230769230769,0.5,0.9285714285714286,0.0004
705,1.1439809799194336,1.6430416107177734,0.5576923076923077,0.9615384615384616,0.14285714285714285,0.8571428571428571,0.0004
706,1.2425577640533447,1.7157639265060425,0.5,0.8846153846153846,0.35714285714285715,0.7857142857142857,0.0004
707,1.185712218284607,1.9347081184387207,0.5576923076923077,0.9423076923076923,0.14285714285714285,0.7142857142857143,0.0004
708,1.1704646348953247,1.1712018251419067,0.5384615384615384,0.9038461538461539,0.5,0.9285714285714286,0.0004
709,1.1818650960922241,1.253566861152649,0.5384615384615384,0.9230769230769231,0.5,0.8571428571428571,0.0004
710,1.1451597809791565,1.4079705476760864,0.5576923076923077,0.8846153846153846,0.35714285714285715,0.8571428571428571,0.0004
711,1.4253838658332825,1.3985872268676758,0.40384615384615385,0.7884615384615384,0.42857142857142855,0.8571428571428571,0.0004
712,1.044180691242218,1.1757620573043823,0.5384615384615384,0.9615384615384616,0.42857142857142855,0.9285714285714286,0.0004
713,1.193171203136444,1.6913223266601562,0.46153846153846156,0.9038461538461539,0.2857142857142857,0.7857142857142857,0.0004
714,1.2289843559265137,1.4226285219192505,0.4807692307692308,0.9230769230769231,0.2857142857142857,0.8571428571428571,0.0004
715,1.2971765398979187,1.4150571823120117,0.4807692307692308,0.9038461538461539,0.2857142857142857,0.8571428571428571,0.0004
716,1.4561034440994263,1.7022185325622559,0.4230769230769231,0.8269230769230769,0.35714285714285715,0.7857142857142857,0.0004
717,1.4788348078727722,1.2462103366851807,0.4230769230769231,0.8269230769230769,0.5,0.8571428571428571,0.0004
718,1.4139878749847412,1.3784706592559814,0.6153846153846154,0.8269230769230769,0.35714285714285715,0.8571428571428571,0.0004
719,1.417273223400116,1.338718056678772,0.5384615384615384,0.8269230769230769,0.7857142857142857,0.8571428571428571,0.0004
720,1.321232557296753,1.4004219770431519,0.5192307692307693,0.8269230769230769,0.42857142857142855,0.8571428571428571,0.0004
721,1.3691760301589966,1.3563082218170166,0.46153846153846156,0.8269230769230769,0.5,0.8571428571428571,0.0004
722,1.3806915879249573,1.3575248718261719,0.46153846153846156,0.8269230769230769,0.5714285714285714,0.8571428571428571,0.0004
723,1.175428569316864,1.2883987426757812,0.5576923076923077,0.8269230769230769,0.42857142857142855,0.8571428571428571,0.0004
724,1.266733705997467,1.1806294918060303,0.6153846153846154,0.8461538461538461,0.5714285714285714,0.7857142857142857,0.0004
725,1.256497859954834,1.383741855621338,0.5576923076923077,0.8653846153846154,0.5,0.8571428571428571,0.0004
726,1.3584660291671753,1.3021843433380127,0.4230769230769231,0.8461538461538461,0.5714285714285714,0.8571428571428571,0.0004
727,1.208143949508667,1.321394681930542,0.4807692307692308,0.8461538461538461,0.42857142857142855,0.7857142857142857,0.0004
728,1.2617211937904358,1.4443174600601196,0.4807692307692308,0.8461538461538461,0.35714285714285715,0.8571428571428571,0.0004
729,1.1879278421401978,1.2083368301391602,0.5,0.9230769230769231,0.42857142857142855,0.8571428571428571,0.0004
730,1.2382631301879883,0.9644466042518616,0.5,0.8846153846153846,0.7142857142857143,0.9285714285714286,0.0004
731,1.274758219718933,1.2693238258361816,0.5192307692307693,0.9423076923076923,0.42857142857142855,0.9285714285714286,0.0004
732,1.1859623193740845,1.219220519065857,0.5384615384615384,0.9423076923076923,0.5714285714285714,0.8571428571428571,0.0004
733,1.2483783960342407,1.7140177488327026,0.4230769230769231,0.8846153846153846,0.2857142857142857,0.8571428571428571,0.0004
734,1.2402374148368835,1.6632959842681885,0.5769230769230769,0.8653846153846154,0.42857142857142855,0.7857142857142857,0.0004
735,1.0821708738803864,1.0446423292160034,0.5961538461538461,0.8846153846153846,0.5,0.9285714285714286,0.0004
736,1.0962503552436829,1.8997364044189453,0.5961538461538461,0.9423076923076923,0.35714285714285715,0.7142857142857143,0.0004
737,1.0463868379592896,1.863194227218628,0.5192307692307693,0.9230769230769231,0.42857142857142855,0.7857142857142857,0.0004
738,1.0174061357975006,1.7538013458251953,0.5576923076923077,1.0,0.21428571428571427,0.8571428571428571,0.0004
739,1.1907386779785156,1.0883641242980957,0.5192307692307693,0.9423076923076923,0.5714285714285714,0.9285714285714286,0.0004
740,1.3532552123069763,1.7105562686920166,0.5192307692307693,0.8653846153846154,0.5,0.7857142857142857,0.0004
741,1.0428162217140198,1.7768360376358032,0.5961538461538461,0.9230769230769231,0.2857142857142857,0.7857142857142857,0.0004
742,1.2868621349334717,1.2710726261138916,0.5,0.8653846153846154,0.42857142857142855,0.7857142857142857,0.0004
743,1.0977341532707214,1.4417859315872192,0.5576923076923077,0.9230769230769231,0.42857142857142855,0.7857142857142857,0.0004
744,1.0971954464912415,1.6731395721435547,0.5384615384615384,0.9230769230769231,0.35714285714285715,0.7857142857142857,0.0004
745,1.3047588467597961,1.4266650676727295,0.5384615384615384,0.8846153846153846,0.42857142857142855,0.7857142857142857,0.0004
746,1.0119394659996033,1.5957722663879395,0.5961538461538461,0.9615384615384616,0.42857142857142855,0.7857142857142857,0.0004
747,1.2164050936698914,1.157955527305603,0.5961538461538461,0.9230769230769231,0.5714285714285714,0.9285714285714286,0.0004
748,1.0053913593292236,1.2871358394622803,0.6730769230769231,0.9807692307692307,0.5714285714285714,0.7857142857142857,0.0004
749,1.0211962163448334,1.4985569715499878,0.6153846153846154,0.9615384615384616,0.35714285714285715,0.8571428571428571,0.0004
750,1.0303513407707214,1.5292729139328003,0.5961538461538461,0.9807692307692307,0.2857142857142857,0.8571428571428571,0.0004
751,1.1548048853874207,1.5141545534133911,0.5769230769230769,0.9038461538461539,0.42857142857142855,0.8571428571428571,0.0004
752,1.2271318435668945,1.0467307567596436,0.5384615384615384,0.8846153846153846,0.5714285714285714,0.9285714285714286,0.0004
753,1.185085952281952,1.6927212476730347,0.5,0.9038461538461539,0.35714285714285715,0.7857142857142857,0.0004
754,0.9886138737201691,1.6406594514846802,0.6153846153846154,0.9423076923076923,0.35714285714285715,0.7857142857142857,0.0004
755,1.224946916103363,1.6166977882385254,0.5192307692307693,0.8653846153846154,0.2857142857142857,0.8571428571428571,0.0004
756,1.1785761713981628,1.2103271484375,0.5384615384615384,0.9038461538461539,0.42857142857142855,0.9285714285714286,0.0004
757,1.2205768525600433,1.4842307567596436,0.5384615384615384,0.9230769230769231,0.2857142857142857,0.7857142857142857,0.0004
758,1.1447335481643677,1.609273910522461,0.5192307692307693,0.9615384615384616,0.5,0.7857142857142857,0.0004
759,0.9864643216133118,1.6504995822906494,0.6153846153846154,0.9807692307692307,0.42857142857142855,0.8571428571428571,0.0004
760,1.1395677328109741,1.864771842956543,0.5576923076923077,0.9230769230769231,0.35714285714285715,0.8571428571428571,0.0004
761,1.1896629333496094,1.52541184425354,0.5384615384615384,0.9038461538461539,0.5,0.7857142857142857,0.0004
762,1.2047539353370667,1.528611660003662,0.5384615384615384,0.9230769230769231,0.42857142857142855,0.8571428571428571,0.0004
763,1.464747428894043,1.5701818466186523,0.5,0.8846153846153846,0.35714285714285715,0.8571428571428571,0.0004
764,1.1297793984413147,1.4446767568588257,0.5769230769230769,0.9038461538461539,0.5,0.8571428571428571,0.0004
765,1.316746175289154,1.886587142944336,0.5384615384615384,0.8846153846153846,0.2857142857142857,0.7857142857142857,0.0004
766,1.3180559873580933,1.4365081787109375,0.5576923076923077,0.8846153846153846,0.5714285714285714,0.8571428571428571,0.0004
767,1.239727258682251,1.5446279048919678,0.5,0.8846153846153846,0.2857142857142857,0.8571428571428571,0.0004
768,1.220061719417572,1.523260474205017,0.5384615384615384,0.8846153846153846,0.21428571428571427,0.9285714285714286,0.0004
769,1.3798959255218506,1.4269061088562012,0.46153846153846156,0.8653846153846154,0.5,0.8571428571428571,0.0004
770,1.1075637936592102,1.2409461736679077,0.5576923076923077,0.9230769230769231,0.5714285714285714,0.8571428571428571,0.0004
771,1.1631260514259338,1.2536308765411377,0.6730769230769231,0.8846153846153846,0.6428571428571429,0.8571428571428571,0.0004
772,1.2062684297561646,1.7532750368118286,0.5192307692307693,0.9423076923076923,0.42857142857142855,0.7857142857142857,0.0004
773,1.098659634590149,1.6718672513961792,0.6538461538461539,0.9230769230769231,0.5714285714285714,0.7857142857142857,0.0004
774,1.1386513113975525,1.1341625452041626,0.5384615384615384,0.9423076923076923,0.5,1.0,0.0004
775,1.1825807690620422,0.9675735831260681,0.6153846153846154,0.9038461538461539,0.5714285714285714,1.0,0.0004
776,1.3930829763412476,1.0995692014694214,0.5384615384615384,0.8653846153846154,0.7142857142857143,0.8571428571428571,0.0004
777,1.037336826324463,1.4596574306488037,0.6346153846153846,0.9615384615384616,0.7142857142857143,0.7142857142857143,0.0004
778,1.3477905988693237,1.4154802560806274,0.4807692307692308,0.9038461538461539,0.7142857142857143,0.8571428571428571,0.0004
779,1.093219816684723,1.318225622177124,0.6730769230769231,0.9230769230769231,0.6428571428571429,0.8571428571428571,0.0004
780,1.540045976638794,1.2417097091674805,0.46153846153846156,0.8269230769230769,0.7142857142857143,0.8571428571428571,0.0004
781,1.0040596723556519,1.4920613765716553,0.5192307692307693,1.0,0.7142857142857143,0.7857142857142857,0.0004
782,1.2746705412864685,1.237927794456482,0.5769230769230769,0.9038461538461539,0.5714285714285714,0.8571428571428571,0.0004
783,1.0508924722671509,1.1617090702056885,0.6153846153846154,0.9615384615384616,0.5,0.9285714285714286,0.0004
784,0.8717997372150421,1.4715993404388428,0.6730769230769231,1.0,0.5,0.7857142857142857,0.0004
785,1.1002516746520996,1.3366670608520508,0.5576923076923077,0.9423076923076923,0.5,0.8571428571428571,0.0004
786,1.1158379912376404,1.4184558391571045,0.5769230769230769,0.8846153846153846,0.42857142857142855,0.8571428571428571,0.0004
787,1.1146243214607239,1.2356128692626953,0.5576923076923077,0.9230769230769231,0.6428571428571429,0.8571428571428571,0.0004
788,1.0725347995758057,1.4838913679122925,0.6346153846153846,0.9230769230769231,0.5,0.8571428571428571,0.0004
789,0.955526739358902,1.1786402463912964,0.6153846153846154,0.9423076923076923,0.5,0.9285714285714286,0.0004
790,1.1336785554885864,1.3032646179199219,0.5961538461538461,0.9230769230769231,0.6428571428571429,0.7857142857142857,0.0004
791,1.2178946137428284,1.67022705078125,0.5192307692307693,0.8653846153846154,0.5,0.7857142857142857,0.0004
792,1.1708252429962158,2.0050430297851562,0.7115384615384616,0.8076923076923077,0.35714285714285715,0.6428571428571429,0.0004
793,1.2308349609375,1.2603726387023926,0.6346153846153846,0.8269230769230769,0.6428571428571429,0.7857142857142857,0.0004
794,1.3306578397750854,1.7898383140563965,0.46153846153846156,0.8461538461538461,0.35714285714285715,0.6428571428571429,0.0004
795,1.4333806037902832,1.0281000137329102,0.5384615384615384,0.7692307692307693,0.6428571428571429,0.8571428571428571,0.0004
796,1.3526175618171692,1.1681480407714844,0.5961538461538461,0.7692307692307693,0.6428571428571429,0.7857142857142857,0.0004
797,1.284011423587799,1.3369108438491821,0.5769230769230769,0.8076923076923077,0.5714285714285714,0.8571428571428571,0.0004
798,1.1183195114135742,1.3091834783554077,0.6538461538461539,0.8653846153846154,0.5714285714285714,0.8571428571428571,0.0004
799,1.3730076551437378,1.5833914279937744,0.5576923076923077,0.8846153846153846,0.42857142857142855,0.8571428571428571,0.0004
800,1.0617303550243378,1.4525086879730225,0.6346153846153846,0.9423076923076923,0.5,0.8571428571428571,0.0004
801,1.0846977829933167,1.5088331699371338,0.5384615384615384,1.0,0.42857142857142855,0.9285714285714286,0.0004
802,1.051053673028946,1.751404047012329,0.6923076923076923,0.9423076923076923,0.42857142857142855,0.7857142857142857,0.0004
803,0.9901801645755768,1.3889070749282837,0.6346153846153846,0.9615384615384616,0.42857142857142855,0.9285714285714286,0.0004
804,1.335968554019928,1.6784168481826782,0.46153846153846156,0.9230769230769231,0.35714285714285715,0.7142857142857143,0.0004
805,1.1164534091949463,1.730065107345581,0.5,0.9230769230769231,0.35714285714285715,0.9285714285714286,0.0004
806,1.027942955493927,1.7463974952697754,0.6538461538461539,0.9423076923076923,0.35714285714285715,0.7857142857142857,0.0004
807,1.0513045191764832,1.8844269514083862,0.5961538461538461,0.9615384615384616,0.2857142857142857,0.8571428571428571,0.0004
808,1.1569535732269287,1.4915530681610107,0.5961538461538461,0.9423076923076923,0.42857142857142855,0.8571428571428571,0.0004
809,1.0090933740139008,1.6252070665359497,0.6153846153846154,0.9615384615384616,0.2857142857142857,0.8571428571428571,0.0004
810,1.0423020720481873,1.1461212635040283,0.6346153846153846,0.9423076923076923,0.5714285714285714,0.9285714285714286,0.0004
811,1.089614361524582,1.204791784286499,0.5576923076923077,0.9230769230769231,0.42857142857142855,0.9285714285714286,0.0004
812,0.9904707968235016,1.3311173915863037,0.5769230769230769,0.9615384615384616,0.5,0.9285714285714286,0.0004
813,1.123664140701294,1.4543910026550293,0.5192307692307693,0.9615384615384616,0.42857142857142855,0.8571428571428571,0.0004
814,0.9399002194404602,1.7077314853668213,0.6730769230769231,0.9423076923076923,0.35714285714285715,0.7857142857142857,0.0004
815,1.1437438428401947,1.7278531789779663,0.5576923076923077,0.8653846153846154,0.35714285714285715,0.7142857142857143,0.0004
816,0.9190859198570251,1.227180004119873,0.5769230769230769,0.9615384615384616,0.42857142857142855,0.8571428571428571,0.0004
817,1.05570787191391,1.318037986755371,0.5961538461538461,0.9230769230769231,0.5714285714285714,0.9285714285714286,0.0004
818,0.9786831736564636,1.5448375940322876,0.6153846153846154,0.9423076923076923,0.5714285714285714,0.8571428571428571,0.0004
819,1.1466001868247986,1.5059664249420166,0.5192307692307693,0.9038461538461539,0.5,0.7857142857142857,0.0004
820,1.0961284041404724,1.6218950748443604,0.5576923076923077,0.9423076923076923,0.5,0.8571428571428571,0.0004
821,0.8796670734882355,1.698796272277832,0.6730769230769231,0.9807692307692307,0.5714285714285714,0.5714285714285714,0.0004
822,1.247090756893158,1.1055409908294678,0.5769230769230769,0.8653846153846154,0.6428571428571429,0.8571428571428571,0.0004
823,1.0249330401420593,1.4496216773986816,0.6346153846153846,0.9230769230769231,0.5,0.8571428571428571,0.0004
824,1.1832622289657593,1.3178147077560425,0.6153846153846154,0.9038461538461539,0.7142857142857143,0.8571428571428571,0.0004
825,1.1054971516132355,1.667634129524231,0.5961538461538461,0.9230769230769231,0.5,0.7142857142857143,0.0004
826,1.1143419742584229,1.4487718343734741,0.5961538461538461,0.9230769230769231,0.5,0.8571428571428571,0.0004
827,1.004819542169571,1.8103053569793701,0.7884615384615384,0.9038461538461539,0.42857142857142855,0.7857142857142857,0.0004
828,1.0496436953544617,1.533653736114502,0.5961538461538461,0.9423076923076923,0.35714285714285715,0.8571428571428571,0.0004
829,1.0622659921646118,1.13912034034729,0.6923076923076923,0.8846153846153846,0.5714285714285714,0.9285714285714286,0.0004
830,1.142565280199051,1.346113920211792,0.5384615384615384,0.8653846153846154,0.42857142857142855,0.8571428571428571,0.0004
831,1.0265696048736572,1.3361598253250122,0.5961538461538461,0.9423076923076923,0.5714285714285714,0.8571428571428571,0.0004
832,1.0447465777397156,1.1402742862701416,0.5576923076923077,0.9423076923076923,0.5714285714285714,0.9285714285714286,0.0004
833,1.056289792060852,1.4055755138397217,0.5576923076923077,0.9230769230769231,0.6428571428571429,0.8571428571428571,0.0004
834,1.013713538646698,1.4840939044952393,0.5961538461538461,0.9230769230769231,0.5714285714285714,0.7857142857142857,0.0004
835,0.913410484790802,1.044140100479126,0.6923076923076923,0.9807692307692307,0.7142857142857143,0.9285714285714286,0.0004
836,0.8812954425811768,1.6057188510894775,0.6730769230769231,0.9615384615384616,0.42857142857142855,0.7142857142857143,0.0004
837,1.0015355050563812,1.6404330730438232,0.5576923076923077,0.9423076923076923,0.35714285714285715,0.8571428571428571,0.0004
838,0.964233011007309,1.4740185737609863,0.6538461538461539,0.9230769230769231,0.5714285714285714,0.7857142857142857,0.0004
839,1.121462106704712,1.3064807653427124,0.5961538461538461,0.9038461538461539,0.5714285714285714,0.8571428571428571,0.0004
840,1.1457963585853577,1.2024192810058594,0.5576923076923077,0.8846153846153846,0.6428571428571429,0.7857142857142857,0.0004
841,1.0251824855804443,1.3509951829910278,0.6923076923076923,0.9230769230769231,0.5,0.8571428571428571,0.0004
842,1.179977148771286,1.1801866292953491,0.5384615384615384,0.9230769230769231,0.5,0.9285714285714286,0.0004
843,1.2428743839263916,1.8656001091003418,0.5769230769230769,0.8653846153846154,0.35714285714285715,0.7857142857142857,0.0004
844,0.9865299165248871,1.1460736989974976,0.5769230769230769,0.9615384615384616,0.5,0.8571428571428571,0.0004
845,1.1997538208961487,1.4620881080627441,0.5769230769230769,0.9038461538461539,0.5,0.8571428571428571,0.0004
846,1.4386863708496094,1.4997799396514893,0.6153846153846154,0.8269230769230769,0.42857142857142855,0.8571428571428571,0.0004
847,1.4238476157188416,1.4346559047698975,0.5576923076923077,0.8269230769230769,0.42857142857142855,0.8571428571428571,0.0004
848,1.4065187573432922,1.3599944114685059,0.5192307692307693,0.8269230769230769,0.5,0.8571428571428571,0.0004
849,1.4681166410446167,1.4373869895935059,0.5384615384615384,0.8269230769230769,0.35714285714285715,0.8571428571428571,0.0004
850,1.4548462629318237,1.5990904569625854,0.5576923076923077,0.8269230769230769,0.35714285714285715,0.8571428571428571,0.0004
851,1.4548184871673584,1.628922700881958,0.5576923076923077,0.8269230769230769,0.35714285714285715,0.8571428571428571,0.0004
852,1.3547399044036865,1.4118685722351074,0.5576923076923077,0.8269230769230769,0.5714285714285714,0.8571428571428571,0.0004
853,1.2940255403518677,1.6421489715576172,0.6346153846153846,0.8269230769230769,0.2857142857142857,0.8571428571428571,0.0004
854,1.242481768131256,1.193770170211792,0.6730769230769231,0.8269230769230769,0.7857142857142857,0.8571428571428571,0.0004
855,1.2680169939994812,1.3788630962371826,0.5769230769230769,0.8269230769230769,0.5714285714285714,0.8571428571428571,0.0004
856,1.171574592590332,1.2446832656860352,0.6346153846153846,0.8269230769230769,0.7142857142857143,0.8571428571428571,0.0004
857,1.1883798241615295,1.3860352039337158,0.5961538461538461,0.8269230769230769,0.5,0.8571428571428571,0.0004
858,1.18726247549057,1.197452425956726,0.6346153846153846,0.8269230769230769,0.6428571428571429,0.8571428571428571,0.0004
859,1.2352809309959412,1.1613450050354004,0.5576923076923077,0.8269230769230769,0.6428571428571429,0.8571428571428571,0.0004
860,1.143856942653656,1.1570334434509277,0.5961538461538461,0.8269230769230769,0.6428571428571429,0.8571428571428571,0.0004
861,1.205326795578003,1.1664578914642334,0.5769230769230769,0.8269230769230769,0.5714285714285714,0.8571428571428571,0.0004
862,1.3158630728721619,1.2181658744812012,0.5576923076923077,0.8269230769230769,0.6428571428571429,0.8571428571428571,0.0004
863,1.2109630107879639,1.2687814235687256,0.5769230769230769,0.8846153846153846,0.5714285714285714,0.7857142857142857,0.0004
864,1.0882242918014526,1.4366708993911743,0.6923076923076923,0.9423076923076923,0.42857142857142855,0.8571428571428571,0.0004
865,1.077825903892517,1.105309009552002,0.7307692307692307,0.9807692307692307,0.6428571428571429,0.9285714285714286,0.0004
866,1.1507717370986938,1.3227272033691406,0.6346153846153846,0.9807692307692307,0.5714285714285714,0.7857142857142857,0.0004
867,1.257716715335846,1.299394130706787,0.5576923076923077,0.9230769230769231,0.5714285714285714,0.7857142857142857,0.0004
868,1.3139711022377014,1.1939499378204346,0.5192307692307693,0.9230769230769231,0.6428571428571429,0.7857142857142857,0.0004
869,1.0634121298789978,1.5498332977294922,0.6923076923076923,0.9615384615384616,0.35714285714285715,0.9285714285714286,0.0004
870,1.0919264554977417,1.0491559505462646,0.5961538461538461,0.9807692307692307,0.7142857142857143,0.8571428571428571,0.0004
871,1.1762770414352417,1.3330695629119873,0.5961538461538461,0.9615384615384616,0.7857142857142857,0.8571428571428571,0.0004
872,1.2272716760635376,1.1702075004577637,0.6153846153846154,0.9230769230769231,0.6428571428571429,0.7857142857142857,0.0004
873,0.9822520613670349,1.213820457458496,0.7115384615384616,0.9807692307692307,0.5,0.8571428571428571,0.0004
874,1.0259973108768463,1.0104022026062012,0.6346153846153846,0.9038461538461539,0.6428571428571429,0.8571428571428571,0.0004
875,1.131744384765625,1.1571214199066162,0.5192307692307693,0.9807692307692307,0.6428571428571429,0.8571428571428571,0.0004
876,1.1435567736625671,1.295504093170166,0.5769230769230769,0.9230769230769231,0.5,0.8571428571428571,0.0004
877,1.1261828541755676,1.3913267850875854,0.5769230769230769,0.9423076923076923,0.35714285714285715,0.8571428571428571,0.0004
878,1.0790141820907593,1.5333410501480103,0.6346153846153846,0.9615384615384616,0.35714285714285715,0.8571428571428571,0.0004
879,1.0675350427627563,1.4461617469787598,0.6346153846153846,0.9038461538461539,0.42857142857142855,0.8571428571428571,0.0004
880,1.0721471309661865,1.6400171518325806,0.6346153846153846,0.8653846153846154,0.35714285714285715,0.7857142857142857,0.0004
881,1.2202459573745728,1.1708468198776245,0.5961538461538461,0.9230769230769231,0.5714285714285714,0.8571428571428571,0.0004
882,1.1772640943527222,1.4250411987304688,0.6346153846153846,0.9230769230769231,0.5,0.7857142857142857,0.0004
883,1.1953570246696472,1.2241876125335693,0.6153846153846154,0.9230769230769231,0.5714285714285714,0.9285714285714286,0.0004
884,1.0879855453968048,1.4424179792404175,0.6538461538461539,0.9615384615384616,0.5,0.7857142857142857,0.0004
885,1.1609432697296143,1.1775288581848145,0.5961538461538461,0.9615384615384616,0.7142857142857143,0.8571428571428571,0.0004
886,1.0132039785385132,1.1459969282150269,0.6538461538461539,0.9807692307692307,0.6428571428571429,0.8571428571428571,0.0004
887,1.1237950325012207,1.1581233739852905,0.6346153846153846,0.9038461538461539,0.5714285714285714,0.8571428571428571,0.0004
888,1.093870997428894,1.602065086364746,0.5576923076923077,0.9615384615384616,0.5,0.6428571428571429,0.0004
889,1.2739754915237427,1.2291808128356934,0.5576923076923077,0.9230769230769231,0.5,0.8571428571428571,0.0004
890,1.2832504510879517,1.1539510488510132,0.5192307692307693,0.9038461538461539,0.6428571428571429,0.9285714285714286,0.0004
891,1.119407057762146,1.206903100013733,0.6153846153846154,0.9615384615384616,0.5714285714285714,0.7857142857142857,0.0004
892,1.040887326002121,1.314232587814331,0.6346153846153846,0.9615384615384616,0.5714285714285714,0.7142857142857143,0.0004
893,1.2650121450424194,1.1618475914001465,0.5,0.8653846153846154,0.5714285714285714,0.9285714285714286,0.0004
894,1.1819899082183838,0.9702060222625732,0.6538461538461539,0.9038461538461539,0.6428571428571429,0.8571428571428571,0.0004
895,1.1859660148620605,1.3556686639785767,0.5961538461538461,0.8846153846153846,0.42857142857142855,0.7857142857142857,0.0004
896,1.2826319932937622,1.39677095413208,0.5384615384615384,0.8269230769230769,0.5,0.8571428571428571,0.0004
897,1.1156866550445557,1.5805017948150635,0.6538461538461539,0.8461538461538461,0.35714285714285715,0.8571428571428571,0.0004
898,1.4022967517375946,1.16646146774292,0.5769230769230769,0.8269230769230769,0.5714285714285714,0.8571428571428571,0.0004
899,1.3085632920265198,1.4474573135375977,0.46153846153846156,0.8269230769230769,0.2857142857142857,0.8571428571428571,0.0004
900,1.4087195992469788,1.319686770439148,0.4230769230769231,0.8269230769230769,0.5714285714285714,0.8571428571428571,0.0004
901,1.141323447227478,1.1382086277008057,0.5192307692307693,0.8653846153846154,0.42857142857142855,0.9285714285714286,0.0004
902,1.0551131069660187,1.5351983308792114,0.6153846153846154,0.9423076923076923,0.5,0.5714285714285714,0.0004
903,1.4679905772209167,1.7210971117019653,0.5769230769230769,0.6923076923076923,0.5714285714285714,0.35714285714285715,0.0004
904,1.6257312297821045,1.8905967473983765,0.5,0.5576923076923077,0.5,0.42857142857142855,0.0004
905,1.958869218826294,2.044928789138794,0.36538461538461536,0.46153846153846156,0.35714285714285715,0.42857142857142855,0.0004
906,2.0140597820281982,2.0905628204345703,0.4423076923076923,0.5384615384615384,0.42857142857142855,0.42857142857142855,0.0004
907,2.202754259109497,2.162601947784424,0.46153846153846156,0.40384615384615385,0.42857142857142855,0.2857142857142857,0.0004
908,1.876430094242096,2.063049554824829,0.4423076923076923,0.4423076923076923,0.5,0.5,0.0004
909,2.085710823535919,2.063173532485962,0.4423076923076923,0.4230769230769231,0.35714285714285715,0.2857142857142857,0.0004
910,2.0520910024642944,2.2644200325012207,0.34615384615384615,0.38461538461538464,0.35714285714285715,0.35714285714285715,0.0004
911,1.7122989892959595,1.7296431064605713,0.5,0.5384615384615384,0.5714285714285714,0.5,0.0004
912,1.7784806489944458,2.083782196044922,0.46153846153846156,0.5384615384615384,0.35714285714285715,0.5,0.0004
913,1.473720669746399,2.488190174102783,0.5,0.6346153846153846,0.35714285714285715,0.5714285714285714,0.0004
914,1.2869333624839783,1.7674987316131592,0.5769230769230769,0.8076923076923077,0.5,0.6428571428571429,0.0004
915,1.4491521120071411,1.1804931163787842,0.5192307692307693,0.8269230769230769,0.7142857142857143,0.9285714285714286,0.0004
916,1.4010833501815796,1.3783693313598633,0.5576923076923077,0.8653846153846154,0.5,0.7857142857142857,0.0004
917,1.3430883884429932,1.0550034046173096,0.46153846153846156,0.9423076923076923,0.5714285714285714,0.9285714285714286,0.0004
918,1.0661972761154175,1.2301334142684937,0.5769230769230769,0.9807692307692307,0.5,0.9285714285714286,0.0004
919,1.2193129658699036,1.3531672954559326,0.5576923076923077,0.9230769230769231,0.35714285714285715,0.8571428571428571,0.0004
920,1.2948137521743774,1.476396083831787,0.5,0.8269230769230769,0.2857142857142857,0.8571428571428571,0.0004
921,1.2862039804458618,1.3036127090454102,0.46153846153846156,0.8269230769230769,0.42857142857142855,0.8571428571428571,0.0004
922,1.4134076237678528,1.4567309617996216,0.4230769230769231,0.8269230769230769,0.42857142857142855,0.8571428571428571,0.0004
923,1.3243210315704346,1.6111407279968262,0.4230769230769231,0.8269230769230769,0.35714285714285715,0.8571428571428571,0.0004
924,1.362668216228485,1.6673390865325928,0.4230769230769231,0.8269230769230769,0.35714285714285715,0.8571428571428571,0.0004
925,1.6154612302780151,1.3954609632492065,0.36538461538461536,0.8269230769230769,0.42857142857142855,0.8571428571428571,0.0004
926,1.413178563117981,1.2157496213912964,0.36538461538461536,0.8269230769230769,0.5,0.8571428571428571,0.0004
927,1.4346057176589966,1.2691069841384888,0.4807692307692308,0.8269230769230769,0.42857142857142855,0.8571428571428571,0.0004
928,1.2234398126602173,1.2010974884033203,0.5192307692307693,0.8269230769230769,0.42857142857142855,0.8571428571428571,0.0004
929,1.314162790775299,1.308903455734253,0.38461538461538464,0.8269230769230769,0.42857142857142855,0.8571428571428571,0.0004
930,1.2587898969650269,1.123791217803955,0.40384615384615385,0.8269230769230769,0.42857142857142855,0.8571428571428571,0.0004
931,1.2989505529403687,1.4041461944580078,0.4230769230769231,0.8269230769230769,0.35714285714285715,0.8571428571428571,0.0004
932,1.350945770740509,1.433931589126587,0.5,0.8269230769230769,0.35714285714285715,0.8571428571428571,0.0004
933,1.2645059823989868,1.1884196996688843,0.5769230769230769,0.8269230769230769,0.5714285714285714,0.8571428571428571,0.0004
934,1.3602664470672607,1.1436519622802734,0.4807692307692308,0.8846153846153846,0.5,0.8571428571428571,0.0004
935,1.2518216967582703,1.2529327869415283,0.5192307692307693,0.8461538461538461,0.5,0.8571428571428571,0.0004
936,1.147478073835373,1.2060410976409912,0.5576923076923077,0.8846153846153846,0.5714285714285714,0.9285714285714286,0.0004
937,1.188308596611023,1.6858375072479248,0.5961538461538461,0.8846153846153846,0.2857142857142857,0.8571428571428571,0.0004
938,1.3250215649604797,1.34043288230896,0.6153846153846154,0.8653846153846154,0.5,0.7857142857142857,0.0004
939,1.207600176334381,1.9110229015350342,0.6346153846153846,0.9230769230769231,0.5,0.7857142857142857,0.0004
940,1.0789328217506409,1.0304474830627441,0.6730769230769231,0.9230769230769231,0.7142857142857143,0.8571428571428571,0.0004
941,1.2375822067260742,1.2046473026275635,0.5961538461538461,0.8269230769230769,0.5,0.9285714285714286,0.0004
942,1.1613624095916748,1.7018729448318481,0.5961538461538461,0.9230769230769231,0.5714285714285714,0.7857142857142857,0.0004
943,0.9978796243667603,1.1544321775436401,0.7307692307692307,0.9615384615384616,0.7142857142857143,0.9285714285714286,0.0004
944,0.9956544935703278,1.2753612995147705,0.6923076923076923,0.9807692307692307,0.5714285714285714,0.7857142857142857,0.0004
945,1.029958724975586,1.1100692749023438,0.6923076923076923,0.9423076923076923,0.6428571428571429,0.8571428571428571,0.0004
946,1.175088882446289,1.2731863260269165,0.6346153846153846,0.8846153846153846,0.5714285714285714,0.8571428571428571,0.0004
947,1.2829070091247559,1.0403059720993042,0.5384615384615384,0.9038461538461539,0.6428571428571429,0.9285714285714286,0.0004
948,1.111674964427948,1.7145839929580688,0.6346153846153846,0.8846153846153846,0.42857142857142855,0.7857142857142857,0.0004
949,1.0068829953670502,1.2658331394195557,0.6538461538461539,0.9615384615384616,0.5,0.8571428571428571,0.0004
950,1.0447189509868622,1.265669822692871,0.6153846153846154,0.9423076923076923,0.42857142857142855,0.9285714285714286,0.0004
951,0.9358282089233398,1.7095215320587158,0.7115384615384616,0.9807692307692307,0.5,0.7857142857142857,0.0004
952,0.9158375859260559,1.697465181350708,0.7307692307692307,0.9615384615384616,0.42857142857142855,0.7857142857142857,0.0004
953,0.9213694632053375,1.3295893669128418,0.6730769230769231,0.9423076923076923,0.6428571428571429,0.7857142857142857,0.0004
954,1.3500617146492004,1.076508641242981,0.6153846153846154,0.8461538461538461,0.6428571428571429,0.9285714285714286,0.0004
955,1.2121824622154236,1.4130022525787354,0.5769230769230769,0.8846153846153846,0.7142857142857143,0.7142857142857143,0.0004
956,1.0694189071655273,0.9423959851264954,0.6153846153846154,0.9807692307692307,0.7142857142857143,0.9285714285714286,0.0004
957,1.103166937828064,1.1281757354736328,0.6346153846153846,0.9615384615384616,0.7142857142857143,0.9285714285714286,0.0004
958,0.804968386888504,1.0516202449798584,0.7692307692307693,0.9615384615384616,0.6428571428571429,0.9285714285714286,0.0004
959,1.1016424298286438,1.343808889389038,0.6153846153846154,0.9423076923076923,0.5714285714285714,0.8571428571428571,0.0004
960,1.4558701515197754,1.704946517944336,0.5769230769230769,0.8269230769230769,0.5714285714285714,0.8571428571428571,0.0004
961,1.0951930582523346,1.4846630096435547,0.6153846153846154,0.9615384615384616,0.5,0.8571428571428571,0.0004
962,0.9223597943782806,1.042371392250061,0.6730769230769231,0.9615384615384616,0.7857142857142857,0.8571428571428571,0.0004
963,1.0349280536174774,1.814896821975708,0.6538461538461539,0.9423076923076923,0.5,0.8571428571428571,0.0004
964,0.9469926655292511,1.4073196649551392,0.6730769230769231,0.9615384615384616,0.5714285714285714,0.8571428571428571,0.0004
965,1.1360012292861938,1.6268649101257324,0.5961538461538461,0.9230769230769231,0.5714285714285714,0.7857142857142857,0.0004
966,1.215147852897644,1.0726253986358643,0.6346153846153846,0.9230769230769231,0.6428571428571429,0.9285714285714286,0.0004
967,1.0324651002883911,1.2819528579711914,0.7115384615384616,0.9038461538461539,0.6428571428571429,0.8571428571428571,0.0004
968,0.9922130703926086,1.4709795713424683,0.6923076923076923,0.9038461538461539,0.6428571428571429,0.8571428571428571,0.0004
969,0.9027896523475647,1.1557714939117432,0.7115384615384616,0.9423076923076923,0.7857142857142857,0.8571428571428571,0.0004
970,0.9388426244258881,1.5239627361297607,0.6538461538461539,0.9615384615384616,0.5714285714285714,0.8571428571428571,0.0004
971,1.1417636275291443,1.1342451572418213,0.5961538461538461,0.9230769230769231,0.7142857142857143,0.8571428571428571,0.0004
972,1.1229360401630402,1.6972801685333252,0.7115384615384616,0.9230769230769231,0.6428571428571429,0.7142857142857143,0.0004
973,1.2056825757026672,0.8797275424003601,0.6538461538461539,0.8846153846153846,0.8571428571428571,0.9285714285714286,0.0004
974,1.094777524471283,0.9938048124313354,0.6346153846153846,0.9038461538461539,0.7142857142857143,0.9285714285714286,0.0004
975,0.8221142590045929,1.3291728496551514,0.7307692307692307,0.9807692307692307,0.6428571428571429,0.8571428571428571,0.0004
976,0.9097351431846619,1.098683476448059,0.7115384615384616,0.9615384615384616,0.7142857142857143,0.8571428571428571,0.0004
977,1.1122313141822815,1.2607152462005615,0.6153846153846154,0.9230769230769231,0.42857142857142855,0.9285714285714286,0.0004
978,0.9864894449710846,1.5960884094238281,0.6923076923076923,0.9423076923076923,0.6428571428571429,0.7857142857142857,0.0004
979,1.0877050161361694,1.2460094690322876,0.6153846153846154,0.9423076923076923,0.6428571428571429,0.8571428571428571,0.0004
980,1.1546342372894287,1.4587382078170776,0.6346153846153846,0.9038461538461539,0.6428571428571429,0.7857142857142857,0.0004
981,0.891495943069458,1.8739793300628662,0.7115384615384616,0.9423076923076923,0.5714285714285714,0.7142857142857143,0.0004
982,1.0596831738948822,1.2936840057373047,0.6346153846153846,0.9230769230769231,0.5714285714285714,0.8571428571428571,0.0004
