epoch,train_loss,val_loss,train_acc_action,train_acc_status,val_acc_action,val_acc_status,learning_rate
1,1.7799081802368164,1.5915755033493042,0.25,0.7115384615384616,0.2857142857142857,0.8571428571428571,0.0004
2,1.6404817700386047,1.561394214630127,0.36538461538461536,0.8269230769230769,0.35714285714285715,0.8571428571428571,0.0004
3,1.5413843989372253,1.4757726192474365,0.4423076923076923,0.8269230769230769,0.42857142857142855,0.8571428571428571,0.0004
4,1.5666336417198181,1.4108105897903442,0.28846153846153844,0.8269230769230769,0.5,0.8571428571428571,0.0004
5,1.506081759929657,1.4572539329528809,0.4230769230769231,0.8269230769230769,0.2857142857142857,0.8571428571428571,0.0004
6,1.5482954382896423,1.5298391580581665,0.4807692307692308,0.8269230769230769,0.2857142857142857,0.8571428571428571,0.0004
7,1.5102493166923523,1.4528872966766357,0.38461538461538464,0.8269230769230769,0.5,0.8571428571428571,0.0004
8,1.526301085948944,1.4382295608520508,0.4230769230769231,0.8269230769230769,0.5,0.8571428571428571,0.0004
9,1.4794679284095764,1.4064075946807861,0.4423076923076923,0.8269230769230769,0.5,0.8571428571428571,0.0004
10,1.5527706146240234,1.4586846828460693,0.38461538461538464,0.8269230769230769,0.5,0.8571428571428571,0.0004
11,1.540121853351593,1.3786264657974243,0.36538461538461536,0.8269230769230769,0.5714285714285714,0.8571428571428571,0.0004
12,1.416133165359497,1.4502626657485962,0.5,0.8269230769230769,0.5,0.8571428571428571,0.0004
13,1.4352620840072632,1.6991441249847412,0.5192307692307693,0.8269230769230769,0.35714285714285715,0.8571428571428571,0.0004
14,1.436160683631897,1.273705244064331,0.5192307692307693,0.8269230769230769,0.6428571428571429,0.8571428571428571,0.0004
15,1.3367237448692322,1.5156440734863281,0.5576923076923077,0.8269230769230769,0.5,0.8571428571428571,0.0004
16,1.2813703417778015,1.376285195350647,0.6153846153846154,0.8269230769230769,0.6428571428571429,0.8571428571428571,0.0004
17,1.2537599802017212,1.1433035135269165,0.5576923076923077,0.8269230769230769,0.7142857142857143,0.8571428571428571,0.0004
18,1.1748757362365723,1.3837902545928955,0.6153846153846154,0.8269230769230769,0.42857142857142855,0.8571428571428571,0.0004
19,1.237943172454834,1.594152808189392,0.5192307692307693,0.8461538461538461,0.42857142857142855,0.8571428571428571,0.0004
20,1.1275659203529358,1.6801832914352417,0.5576923076923077,0.8461538461538461,0.42857142857142855,0.7857142857142857,0.0004
21,1.1331210136413574,0.8952741026878357,0.5769230769230769,0.9038461538461539,0.7142857142857143,0.9285714285714286,0.0004
22,1.200783610343933,1.3153672218322754,0.5576923076923077,0.9230769230769231,0.5714285714285714,0.8571428571428571,0.0004
23,1.0809167623519897,0.9464307427406311,0.5961538461538461,0.9615384615384616,0.7142857142857143,0.9285714285714286,0.0004
24,1.088952660560608,1.4360859394073486,0.6538461538461539,0.9230769230769231,0.6428571428571429,0.8571428571428571,0.0004
25,1.0736336708068848,1.1665313243865967,0.6538461538461539,0.9615384615384616,0.5,0.8571428571428571,0.0004
26,0.9397270977497101,1.606659173965454,0.7307692307692307,0.9423076923076923,0.42857142857142855,0.7142857142857143,0.0004
27,1.090552806854248,0.9737038612365723,0.5576923076923077,0.9230769230769231,0.7857142857142857,0.8571428571428571,0.0004
28,1.009782314300537,1.243768572807312,0.6153846153846154,0.9423076923076923,0.42857142857142855,0.7857142857142857,0.0004
29,0.8866416215896606,1.1240042448043823,0.6538461538461539,1.0,0.6428571428571429,0.9285714285714286,0.0004
30,1.0054060816764832,1.2048205137252808,0.5769230769230769,0.9615384615384616,0.42857142857142855,0.9285714285714286,0.0004
31,0.8646011352539062,1.5340001583099365,0.6538461538461539,0.9807692307692307,0.5,0.7857142857142857,0.0004
32,1.0713460445404053,0.9823720455169678,0.5769230769230769,0.9230769230769231,0.5714285714285714,0.9285714285714286,0.0004
33,0.868471622467041,1.009873390197754,0.6346153846153846,1.0,0.5714285714285714,0.9285714285714286,0.0004
34,0.8208112120628357,1.2937315702438354,0.6730769230769231,1.0,0.5,0.7857142857142857,0.0004
35,1.0351063013076782,1.067101001739502,0.6153846153846154,0.9615384615384616,0.6428571428571429,0.9285714285714286,0.0004
36,1.008551299571991,1.0203386545181274,0.5961538461538461,0.9230769230769231,0.7142857142857143,0.9285714285714286,0.0004
37,0.8360941112041473,1.238154649734497,0.7115384615384616,0.9807692307692307,0.5,0.8571428571428571,0.0004
38,0.8921289443969727,0.9236211776733398,0.5961538461538461,0.9807692307692307,0.7142857142857143,0.9285714285714286,0.0004
39,0.7394641935825348,1.0186269283294678,0.6923076923076923,0.9807692307692307,0.7142857142857143,0.9285714285714286,0.0004
40,0.9876017570495605,1.2076722383499146,0.6730769230769231,0.9230769230769231,0.5714285714285714,0.8571428571428571,0.0004
41,0.8043831884860992,1.447990894317627,0.6153846153846154,0.9807692307692307,0.42857142857142855,0.8571428571428571,0.0004
42,0.8340117633342743,1.4836065769195557,0.7115384615384616,0.9807692307692307,0.42857142857142855,0.8571428571428571,0.0004
43,0.8371961116790771,1.271402359008789,0.6923076923076923,0.9615384615384616,0.5714285714285714,0.8571428571428571,0.0004
44,0.8971370458602905,1.7530617713928223,0.6538461538461539,0.9423076923076923,0.35714285714285715,0.7142857142857143,0.0004
45,0.86884805560112,0.9385137557983398,0.6730769230769231,0.9615384615384616,0.5714285714285714,0.9285714285714286,0.0004
46,1.2432641983032227,0.819229006767273,0.5,0.8846153846153846,0.6428571428571429,0.9285714285714286,0.0004
47,0.8691912293434143,0.9735058546066284,0.6730769230769231,0.9615384615384616,0.7142857142857143,0.8571428571428571,0.0004
48,0.6656698882579803,1.2129112482070923,0.7115384615384616,0.9807692307692307,0.5714285714285714,0.9285714285714286,0.0004
49,0.678709864616394,1.448403000831604,0.6923076923076923,0.9807692307692307,0.6428571428571429,0.8571428571428571,0.0004
50,0.9758978486061096,1.4637662172317505,0.6153846153846154,0.9615384615384616,0.5,0.8571428571428571,0.0004
51,0.8164735734462738,1.4503173828125,0.6730769230769231,0.9807692307692307,0.5714285714285714,0.8571428571428571,0.0004
52,1.1663094758987427,1.0910694599151611,0.6346153846153846,0.9038461538461539,0.7142857142857143,0.9285714285714286,0.0004
53,0.8252298533916473,1.369051218032837,0.6153846153846154,0.9615384615384616,0.7142857142857143,0.8571428571428571,0.0004
54,0.7884712219238281,1.0439417362213135,0.6538461538461539,0.9615384615384616,0.6428571428571429,0.9285714285714286,0.0004
55,0.8453528881072998,1.729993462562561,0.5961538461538461,1.0,0.6428571428571429,0.7857142857142857,0.0004
56,0.9851107597351074,1.5714385509490967,0.6730769230769231,0.9615384615384616,0.7142857142857143,0.7857142857142857,0.0004
57,0.885705977678299,1.2914512157440186,0.6153846153846154,0.9423076923076923,0.7142857142857143,0.8571428571428571,0.0004
58,0.8923738896846771,0.9427990913391113,0.6538461538461539,0.9423076923076923,0.7857142857142857,0.9285714285714286,0.0004
59,0.7729378342628479,0.8568150997161865,0.6153846153846154,1.0,0.8571428571428571,0.9285714285714286,0.0004
60,0.8565182387828827,1.888890266418457,0.75,0.9615384615384616,0.5714285714285714,0.7142857142857143,0.0004
61,0.8276311159133911,1.1368746757507324,0.6730769230769231,0.9615384615384616,0.7142857142857143,0.7857142857142857,0.0004
62,0.8005084097385406,0.7210463285446167,0.7115384615384616,0.9615384615384616,0.7142857142857143,0.9285714285714286,0.0004
63,1.1275826692581177,0.9283146858215332,0.6346153846153846,0.8653846153846154,0.7142857142857143,0.9285714285714286,0.0004
64,0.9118791222572327,1.235904574394226,0.6538461538461539,0.9230769230769231,0.5714285714285714,0.8571428571428571,0.0004
65,0.796509861946106,1.5958284139633179,0.7115384615384616,0.9807692307692307,0.5714285714285714,0.7857142857142857,0.0004
66,0.7756079733371735,1.3440781831741333,0.6346153846153846,0.9807692307692307,0.6428571428571429,0.8571428571428571,0.0004
67,0.8059249818325043,1.3403339385986328,0.7115384615384616,0.9807692307692307,0.5714285714285714,0.8571428571428571,0.0004
68,0.8215394914150238,1.6470504999160767,0.6538461538461539,1.0,0.5714285714285714,0.7857142857142857,0.0004
69,0.793938159942627,1.5152993202209473,0.6923076923076923,1.0,0.5714285714285714,0.7857142857142857,0.0004
70,1.041710913181305,0.8943824768066406,0.6538461538461539,0.8846153846153846,0.7857142857142857,0.9285714285714286,0.0004
71,0.7534140944480896,1.342950701713562,0.6923076923076923,0.9807692307692307,0.5714285714285714,0.8571428571428571,0.0004
72,0.7506322264671326,0.7305008769035339,0.6346153846153846,0.9807692307692307,1.0,0.9285714285714286,0.0004
73,0.7228393256664276,1.15432608127594,0.75,0.9423076923076923,0.7142857142857143,0.8571428571428571,0.0004
74,0.9450232088565826,1.0255614519119263,0.7307692307692307,0.9615384615384616,0.7857142857142857,0.8571428571428571,0.0004
75,0.7566981613636017,0.9090136885643005,0.7115384615384616,0.9807692307692307,0.8571428571428571,0.9285714285714286,0.0004
76,0.7655207216739655,1.466206431388855,0.7115384615384616,0.9615384615384616,0.7857142857142857,0.7857142857142857,0.0004
77,0.7242977619171143,1.2431755065917969,0.6923076923076923,0.9807692307692307,0.8571428571428571,0.8571428571428571,0.0004
78,0.9104263186454773,0.8184515833854675,0.75,0.9615384615384616,0.9285714285714286,0.9285714285714286,0.0004
79,0.569747656583786,0.9723721146583557,0.8461538461538461,1.0,0.7142857142857143,0.9285714285714286,0.0004
80,0.8267500698566437,0.7809427976608276,0.6538461538461539,0.9615384615384616,0.9285714285714286,0.9285714285714286,0.0004
81,0.6739971339702606,0.9496273994445801,0.75,1.0,0.7857142857142857,0.8571428571428571,0.0004
82,0.7612015306949615,1.1943182945251465,0.8076923076923077,0.9615384615384616,0.6428571428571429,0.8571428571428571,0.0004
83,0.7710554003715515,0.9004257321357727,0.6923076923076923,0.9807692307692307,0.7857142857142857,0.9285714285714286,0.0004
84,0.7207882404327393,1.7553157806396484,0.7115384615384616,1.0,0.6428571428571429,0.7857142857142857,0.0004
85,1.0810840725898743,1.3322099447250366,0.6730769230769231,0.9423076923076923,0.7142857142857143,0.8571428571428571,0.0004
86,0.880033016204834,0.690537691116333,0.6538461538461539,0.9615384615384616,0.9285714285714286,0.9285714285714286,0.0004
87,0.9023703336715698,1.1624186038970947,0.75,0.9423076923076923,0.9285714285714286,0.8571428571428571,0.0004
88,0.7588700354099274,0.8495517373085022,0.75,0.9807692307692307,0.7857142857142857,0.9285714285714286,0.0004
89,0.8865670561790466,1.0825016498565674,0.6346153846153846,0.9423076923076923,0.8571428571428571,0.8571428571428571,0.0004
90,0.735884815454483,0.749607503414154,0.7307692307692307,0.9615384615384616,0.8571428571428571,0.9285714285714286,0.0004
91,0.7749728858470917,1.0601720809936523,0.6730769230769231,0.9615384615384616,0.7142857142857143,0.8571428571428571,0.0004
92,0.7274657487869263,0.8995158076286316,0.7307692307692307,0.9615384615384616,0.7857142857142857,0.9285714285714286,0.0004
93,0.8105326592922211,0.8425073623657227,0.7115384615384616,0.9423076923076923,0.7142857142857143,0.9285714285714286,0.0004
94,0.6949290335178375,1.3164799213409424,0.7115384615384616,0.9615384615384616,0.7142857142857143,0.8571428571428571,0.0004
95,0.8188943862915039,1.5893962383270264,0.6730769230769231,0.9423076923076923,0.7142857142857143,0.7857142857142857,0.0004
96,0.6435636729001999,1.0835635662078857,0.7307692307692307,0.9807692307692307,0.7857142857142857,0.8571428571428571,0.0004
97,0.6980882585048676,1.4059489965438843,0.7115384615384616,0.9423076923076923,0.5714285714285714,0.7857142857142857,0.0004
98,0.7013341188430786,0.6906070113182068,0.7115384615384616,0.9615384615384616,1.0,0.9285714285714286,0.0004
99,0.839169442653656,1.0614783763885498,0.75,0.9423076923076923,0.7857142857142857,0.8571428571428571,0.0004
100,0.7803888320922852,0.8042148351669312,0.6923076923076923,0.9807692307692307,0.8571428571428571,0.9285714285714286,0.0004
101,0.7224222123622894,0.7521618604660034,0.75,0.9807692307692307,0.7857142857142857,0.9285714285714286,0.0004
102,0.7860727608203888,0.9784626364707947,0.7692307692307693,0.9038461538461539,0.6428571428571429,0.8571428571428571,0.0004
103,0.602640837430954,0.7214032411575317,0.75,1.0,0.7857142857142857,0.9285714285714286,0.0004
104,0.8468806147575378,1.1837574243545532,0.7115384615384616,0.9038461538461539,0.7142857142857143,0.8571428571428571,0.0004
105,0.6646042466163635,0.9658795595169067,0.7692307692307693,0.9807692307692307,0.7142857142857143,0.8571428571428571,0.0004
106,0.7869263887405396,0.9492579698562622,0.6923076923076923,0.9230769230769231,0.7142857142857143,0.9285714285714286,0.0004
107,0.7951774597167969,1.2410528659820557,0.6346153846153846,0.9423076923076923,0.7142857142857143,0.8571428571428571,0.0004
108,0.8667784929275513,1.5854637622833252,0.7115384615384616,0.9615384615384616,0.6428571428571429,0.7857142857142857,0.0004
109,0.8122959733009338,1.080881953239441,0.6538461538461539,0.9230769230769231,0.6428571428571429,0.7857142857142857,0.0004
110,0.4843617379665375,0.7118005752563477,0.8269230769230769,1.0,1.0,0.9285714285714286,0.0004
111,0.6648651957511902,1.347227692604065,0.7307692307692307,1.0,0.6428571428571429,0.8571428571428571,0.0004
112,0.7351507246494293,1.059582233428955,0.75,0.9615384615384616,0.7142857142857143,0.9285714285714286,0.0004
113,0.5901977717876434,1.5430150032043457,0.7307692307692307,1.0,0.6428571428571429,0.7142857142857143,0.0004
114,0.6968165040016174,0.8464264869689941,0.75,0.9615384615384616,0.7142857142857143,0.9285714285714286,0.0004
115,0.7181609869003296,0.9029136896133423,0.7307692307692307,0.9615384615384616,0.9285714285714286,0.9285714285714286,0.0004
116,0.6609413325786591,1.1391701698303223,0.8076923076923077,0.9423076923076923,0.7857142857142857,0.9285714285714286,0.0004
117,0.7179714441299438,1.0335575342178345,0.6346153846153846,1.0,0.8571428571428571,0.9285714285714286,0.0004
118,0.661169558763504,1.1708695888519287,0.7307692307692307,0.9615384615384616,0.7857142857142857,0.8571428571428571,0.0004
119,0.7870131134986877,0.835031270980835,0.75,0.9423076923076923,0.8571428571428571,0.9285714285714286,0.0004
120,0.6292545795440674,0.6575312614440918,0.8076923076923077,0.9615384615384616,1.0,0.9285714285714286,0.0004
121,0.5739115476608276,0.9306588768959045,0.7884615384615384,0.9423076923076923,0.8571428571428571,0.8571428571428571,0.0004
122,0.5089067071676254,1.578010082244873,0.8076923076923077,1.0,0.6428571428571429,0.7857142857142857,0.0004
123,0.7226263284683228,0.9177308082580566,0.7307692307692307,0.9807692307692307,0.8571428571428571,0.8571428571428571,0.0004
124,0.5776756107807159,1.3102623224258423,0.8269230769230769,1.0,0.7142857142857143,0.8571428571428571,0.0004
125,0.714364767074585,0.9590455293655396,0.7307692307692307,0.9423076923076923,0.6428571428571429,0.8571428571428571,0.0004
126,0.6385610103607178,0.7923493981361389,0.8076923076923077,0.9615384615384616,0.7857142857142857,0.8571428571428571,0.0004
127,0.6481347978115082,0.48652899265289307,0.7884615384615384,0.9615384615384616,0.9285714285714286,0.9285714285714286,0.0004
128,0.6364933252334595,1.7183609008789062,0.8076923076923077,0.9230769230769231,0.6428571428571429,0.7142857142857143,0.0004
129,0.6064096093177795,0.7304415106773376,0.7884615384615384,1.0,0.9285714285714286,0.9285714285714286,0.0004
130,0.607271745800972,1.215256690979004,0.8076923076923077,1.0,0.7142857142857143,0.9285714285714286,0.0004
131,0.634272575378418,0.9765884280204773,0.7692307692307693,1.0,0.7857142857142857,0.8571428571428571,0.0004
132,0.7741264402866364,0.7192740440368652,0.7115384615384616,0.9615384615384616,0.7857142857142857,0.9285714285714286,0.0004
133,0.7666901648044586,1.6415718793869019,0.7307692307692307,0.9615384615384616,0.6428571428571429,0.7857142857142857,0.0004
134,0.7740203738212585,1.6628086566925049,0.6730769230769231,0.9615384615384616,0.6428571428571429,0.7857142857142857,0.0004
135,0.42947424948215485,0.8748811483383179,0.8461538461538461,1.0,0.7857142857142857,0.9285714285714286,0.0004
136,0.7588804960250854,0.9655841588973999,0.8269230769230769,0.9423076923076923,0.7857142857142857,0.9285714285714286,0.0004
137,0.7012450098991394,0.8230546712875366,0.7884615384615384,0.9615384615384616,0.8571428571428571,0.9285714285714286,0.0004
138,1.0751670598983765,1.323697805404663,0.6153846153846154,0.9230769230769231,0.7142857142857143,0.8571428571428571,0.0004
139,0.6495025306940079,0.8349757790565491,0.7692307692307693,0.9807692307692307,0.9285714285714286,0.9285714285714286,0.0004
140,0.7054540812969208,1.6592745780944824,0.6730769230769231,0.9807692307692307,0.5,0.7857142857142857,0.0004
141,0.6111424267292023,0.8134047985076904,0.7115384615384616,1.0,0.8571428571428571,0.9285714285714286,0.0004
142,0.5450792461633682,0.95166015625,0.8076923076923077,0.9807692307692307,0.7142857142857143,0.9285714285714286,0.0004
143,0.6413668841123581,0.9070361852645874,0.6923076923076923,0.9807692307692307,0.8571428571428571,0.8571428571428571,0.0004
144,0.5622581839561462,1.260938286781311,0.8653846153846154,0.9807692307692307,0.6428571428571429,0.8571428571428571,0.0004
145,0.8441740572452545,0.9337105751037598,0.7307692307692307,0.9423076923076923,0.7857142857142857,0.9285714285714286,0.0004
146,0.6432389616966248,1.2379822731018066,0.7884615384615384,0.9807692307692307,0.7142857142857143,0.8571428571428571,0.0004
147,0.6804443895816803,1.3425713777542114,0.8076923076923077,0.9423076923076923,0.7142857142857143,0.9285714285714286,0.0004
148,0.6408675760030746,1.1713306903839111,0.7115384615384616,0.9807692307692307,0.7857142857142857,0.9285714285714286,0.0004
149,0.6164868175983429,1.2827203273773193,0.7692307692307693,1.0,0.8571428571428571,0.8571428571428571,0.0004
150,0.6513069123029709,0.8920804262161255,0.8846153846153846,0.9230769230769231,0.6428571428571429,0.8571428571428571,0.0004
151,0.8942733407020569,1.0767027139663696,0.7884615384615384,0.9423076923076923,0.7142857142857143,0.9285714285714286,0.0004
152,0.5246787667274475,1.3978228569030762,0.7307692307692307,1.0,0.6428571428571429,0.7857142857142857,0.0004
153,0.5468495488166809,1.153439998626709,0.7884615384615384,0.9807692307692307,0.7142857142857143,0.8571428571428571,0.0004
154,0.6810997426509857,1.3404499292373657,0.7884615384615384,0.9807692307692307,0.6428571428571429,0.9285714285714286,0.0004
155,0.7715725004673004,1.0982229709625244,0.7307692307692307,1.0,0.7857142857142857,0.8571428571428571,0.0004
156,0.5779811143875122,0.8509522676467896,0.7307692307692307,1.0,0.7857142857142857,0.8571428571428571,0.0004
157,0.5994402170181274,0.8255959749221802,0.7307692307692307,1.0,0.8571428571428571,0.9285714285714286,0.0004
158,0.5892030000686646,1.3984785079956055,0.8076923076923077,0.9615384615384616,0.5714285714285714,0.8571428571428571,0.0004
159,0.7389326393604279,0.9761425256729126,0.7692307692307693,0.9615384615384616,0.7857142857142857,0.9285714285714286,0.0004
160,0.8950569331645966,1.0521734952926636,0.6923076923076923,0.9423076923076923,0.7142857142857143,0.8571428571428571,0.0004
161,0.8236738741397858,0.80098557472229,0.7692307692307693,0.9423076923076923,1.0,0.9285714285714286,0.0004
162,0.5607264637947083,1.0094335079193115,0.9038461538461539,0.9807692307692307,0.7142857142857143,0.8571428571428571,0.0004
163,0.7624989748001099,0.828556478023529,0.7692307692307693,0.9423076923076923,0.9285714285714286,0.9285714285714286,0.0004
164,0.7575385272502899,0.6762135028839111,0.6538461538461539,0.9615384615384616,0.9285714285714286,0.9285714285714286,0.0004
165,0.6446765661239624,1.165164828300476,0.7884615384615384,0.9423076923076923,0.7142857142857143,0.7857142857142857,0.0004
166,0.6177481561899185,1.2590482234954834,0.7692307692307693,0.9807692307692307,0.7857142857142857,0.8571428571428571,0.0004
167,0.4865713119506836,0.9663666486740112,0.8461538461538461,1.0,0.8571428571428571,0.8571428571428571,0.0004
168,0.6490509510040283,1.250331997871399,0.7884615384615384,0.9615384615384616,0.6428571428571429,0.7857142857142857,0.0004
169,0.8854978978633881,0.6964201331138611,0.7115384615384616,0.9038461538461539,0.8571428571428571,0.9285714285714286,0.0004
170,0.5994002670049667,1.1675968170166016,0.8461538461538461,0.9807692307692307,0.7142857142857143,0.7857142857142857,0.0004
171,0.525562047958374,1.193658471107483,0.8461538461538461,0.9615384615384616,0.8571428571428571,0.7857142857142857,0.0004
172,0.6472785472869873,1.0029369592666626,0.7307692307692307,0.9615384615384616,0.7857142857142857,0.8571428571428571,0.0004
173,0.7036724835634232,1.3397469520568848,0.8269230769230769,0.9423076923076923,0.7142857142857143,0.7857142857142857,0.0004
174,0.632899820804596,1.1527295112609863,0.7692307692307693,0.9807692307692307,0.7857142857142857,0.7857142857142857,0.0004
175,0.7045071423053741,0.8478243350982666,0.7692307692307693,0.9615384615384616,0.8571428571428571,0.8571428571428571,0.0004
176,0.5088923275470734,0.8622643947601318,0.8461538461538461,0.9423076923076923,0.8571428571428571,0.9285714285714286,0.0004
177,0.5677652060985565,1.031836986541748,0.6923076923076923,1.0,0.7857142857142857,0.9285714285714286,0.0004
178,0.5736887156963348,0.6928002834320068,0.7884615384615384,1.0,0.8571428571428571,0.9285714285714286,0.0004
179,0.4421989172697067,0.800291895866394,0.8269230769230769,1.0,0.9285714285714286,0.9285714285714286,0.0004
180,0.7659226357936859,1.620326280593872,0.6923076923076923,0.9807692307692307,0.7142857142857143,0.8571428571428571,0.0004
181,0.9557186961174011,1.6515190601348877,0.7884615384615384,0.9423076923076923,0.7142857142857143,0.7857142857142857,0.0004
182,0.8627303838729858,0.622418999671936,0.6538461538461539,0.9423076923076923,0.9285714285714286,0.9285714285714286,0.0004
183,0.5532999634742737,1.3865702152252197,0.75,0.9807692307692307,0.7142857142857143,0.7857142857142857,0.0004
184,0.7898540198802948,1.4517756700515747,0.7115384615384616,0.9615384615384616,0.8571428571428571,0.7857142857142857,0.0004
185,0.6926098763942719,0.9603800773620605,0.7115384615384616,0.9423076923076923,0.7142857142857143,0.8571428571428571,0.0004
186,0.5456569790840149,1.046298861503601,0.7884615384615384,1.0,0.8571428571428571,0.8571428571428571,0.0004
187,0.9066632091999054,1.7332870960235596,0.7692307692307693,0.9230769230769231,0.5714285714285714,0.8571428571428571,0.0004
188,0.5207198262214661,0.6748889684677124,0.8076923076923077,1.0,1.0,0.9285714285714286,0.0004
189,0.7074788510799408,1.2061326503753662,0.7115384615384616,0.9807692307692307,0.7142857142857143,0.9285714285714286,0.0004
190,0.6857200264930725,1.1460083723068237,0.7884615384615384,0.9423076923076923,0.7142857142857143,0.9285714285714286,0.0004
191,0.6718613803386688,0.5820799469947815,0.7692307692307693,0.9423076923076923,0.8571428571428571,0.9285714285714286,0.0004
192,0.447247251868248,0.9256513714790344,0.8269230769230769,1.0,0.8571428571428571,0.8571428571428571,0.0004
193,0.7058300673961639,0.7024459838867188,0.7884615384615384,0.9423076923076923,0.8571428571428571,0.9285714285714286,0.0004
194,0.7578806579113007,1.073373794555664,0.7307692307692307,0.9615384615384616,0.7142857142857143,0.9285714285714286,0.0004
195,0.5867882370948792,0.9371692538261414,0.8269230769230769,0.9615384615384616,0.8571428571428571,0.8571428571428571,0.0004
196,0.6586326658725739,1.6056628227233887,0.7692307692307693,0.9230769230769231,0.5714285714285714,0.7857142857142857,0.0004
197,0.5814350545406342,0.743505597114563,0.7884615384615384,0.9615384615384616,1.0,0.9285714285714286,0.0004
198,0.6558091640472412,1.2288334369659424,0.7884615384615384,0.9230769230769231,0.7857142857142857,0.8571428571428571,0.0004
199,0.6792532503604889,1.624884843826294,0.7884615384615384,0.9615384615384616,0.6428571428571429,0.7857142857142857,0.0004
200,0.7046534419059753,0.9237339496612549,0.7884615384615384,0.9615384615384616,0.7857142857142857,0.8571428571428571,0.0004
201,0.49251529574394226,1.3514596223831177,0.8076923076923077,1.0,0.7857142857142857,0.8571428571428571,0.0004
202,0.7633438110351562,1.172192096710205,0.7692307692307693,0.9423076923076923,0.7857142857142857,0.8571428571428571,0.0004
203,0.697244256734848,1.79836905002594,0.8269230769230769,0.9423076923076923,0.7142857142857143,0.7857142857142857,0.0004
204,0.560597836971283,0.7491737604141235,0.7884615384615384,0.9807692307692307,0.9285714285714286,0.9285714285714286,0.0004
205,0.7016173005104065,0.8116918802261353,0.75,0.9807692307692307,0.8571428571428571,0.9285714285714286,0.0004
206,0.5782880485057831,2.4756383895874023,0.7307692307692307,1.0,0.6428571428571429,0.7142857142857143,0.0004
207,0.6610966920852661,1.0114566087722778,0.8076923076923077,1.0,0.7857142857142857,0.9285714285714286,0.0004
208,0.8391256630420685,0.7039303779602051,0.7115384615384616,0.9230769230769231,0.9285714285714286,0.9285714285714286,0.0004
209,0.7518663108348846,1.0720186233520508,0.7115384615384616,0.9807692307692307,0.7142857142857143,0.8571428571428571,0.0004
210,0.7021520137786865,1.376465916633606,0.7692307692307693,0.9423076923076923,0.8571428571428571,0.8571428571428571,0.0004
211,0.42877359688282013,1.3629610538482666,0.8076923076923077,1.0,0.7857142857142857,0.8571428571428571,0.0004
212,0.8110525608062744,0.7920191287994385,0.7307692307692307,0.9230769230769231,0.7857142857142857,0.9285714285714286,0.0004
213,0.4789930582046509,0.9381914138793945,0.8076923076923077,1.0,0.7142857142857143,0.9285714285714286,0.0004
214,0.9688952565193176,2.1692535877227783,0.75,0.9038461538461539,0.6428571428571429,0.7857142857142857,0.0004
215,0.4554261714220047,1.4402353763580322,0.8461538461538461,0.9807692307692307,0.7142857142857143,0.9285714285714286,0.0004
216,0.8184863328933716,0.784808874130249,0.7307692307692307,0.9038461538461539,0.8571428571428571,0.9285714285714286,0.0004
217,0.650076150894165,0.9974901676177979,0.8076923076923077,0.9615384615384616,0.7142857142857143,0.9285714285714286,0.0004
218,0.6491764783859253,1.3040566444396973,0.7692307692307693,0.9615384615384616,0.7142857142857143,0.8571428571428571,0.0004
219,0.45056086778640747,0.9386711120605469,0.8461538461538461,1.0,0.7857142857142857,0.9285714285714286,0.0004
220,0.7618837654590607,1.3532123565673828,0.8269230769230769,0.9615384615384616,0.8571428571428571,0.8571428571428571,0.0004
221,0.7534489929676056,1.8545167446136475,0.7884615384615384,0.9807692307692307,0.5714285714285714,0.7857142857142857,0.0004
222,0.529908150434494,0.7774128913879395,0.7692307692307693,1.0,0.9285714285714286,0.9285714285714286,0.0004
223,0.7572394907474518,1.3132107257843018,0.7307692307692307,0.9615384615384616,0.7142857142857143,0.8571428571428571,0.0004
224,0.5640503168106079,0.9202718734741211,0.8653846153846154,0.9615384615384616,0.8571428571428571,0.9285714285714286,0.0004
225,0.7834022641181946,1.6329861879348755,0.75,0.9423076923076923,0.7857142857142857,0.7857142857142857,0.0004
226,0.611194908618927,1.5979703664779663,0.7884615384615384,0.9807692307692307,0.6428571428571429,0.7857142857142857,0.0004
227,0.9191651046276093,1.0427197217941284,0.7307692307692307,0.9423076923076923,0.7142857142857143,0.9285714285714286,0.0004
228,0.5533879697322845,1.6428372859954834,0.7692307692307693,0.9807692307692307,0.7142857142857143,0.7857142857142857,0.0004
229,0.5756704807281494,1.5653433799743652,0.7884615384615384,0.9615384615384616,0.7857142857142857,0.8571428571428571,0.0004
230,0.6786873489618301,0.9823045134544373,0.8076923076923077,0.9807692307692307,0.8571428571428571,0.9285714285714286,0.0004
231,0.501394972205162,1.0267666578292847,0.7884615384615384,1.0,0.6428571428571429,0.9285714285714286,0.0004
232,0.4026488959789276,1.5469932556152344,0.8846153846153846,1.0,0.7857142857142857,0.7857142857142857,0.0004
233,0.85480597615242,1.1687836647033691,0.8076923076923077,0.9423076923076923,0.5714285714285714,0.8571428571428571,0.0004
234,0.5618428736925125,1.504624366760254,0.7692307692307693,1.0,0.6428571428571429,0.8571428571428571,0.0004
235,0.4501001238822937,0.9899663925170898,0.8269230769230769,1.0,0.7142857142857143,0.9285714285714286,0.0004
236,0.5472214967012405,0.6933132410049438,0.7884615384615384,1.0,0.9285714285714286,0.9285714285714286,0.0004
237,0.5586024522781372,2.2070388793945312,0.8076923076923077,0.9807692307692307,0.42857142857142855,0.7857142857142857,0.0004
238,0.5461395978927612,1.4493622779846191,0.7692307692307693,0.9807692307692307,0.7857142857142857,0.7857142857142857,0.0004
239,0.5129939466714859,0.9208101034164429,0.8269230769230769,0.9807692307692307,0.8571428571428571,0.9285714285714286,0.0004
240,0.5255624055862427,0.8747832775115967,0.8076923076923077,0.9615384615384616,0.8571428571428571,0.9285714285714286,0.0004
241,0.7457441091537476,1.298591136932373,0.75,0.9423076923076923,0.6428571428571429,0.8571428571428571,0.0004
242,0.5298887193202972,1.0985097885131836,0.8461538461538461,1.0,0.6428571428571429,0.7857142857142857,0.0004
243,0.5378697514533997,1.517246961593628,0.8269230769230769,0.9615384615384616,0.7142857142857143,0.7857142857142857,0.0004
244,0.49017535150051117,1.1884946823120117,0.7692307692307693,0.9807692307692307,0.6428571428571429,0.9285714285714286,0.0004
245,0.708976149559021,0.8947376012802124,0.6923076923076923,0.9615384615384616,0.7857142857142857,0.9285714285714286,0.0004
246,0.5466126501560211,1.234206199645996,0.8076923076923077,0.9615384615384616,0.7142857142857143,0.9285714285714286,0.0004
247,0.7431017160415649,1.4324510097503662,0.8076923076923077,0.9423076923076923,0.7142857142857143,0.8571428571428571,0.0004
248,0.8012955188751221,2.1655640602111816,0.7692307692307693,0.9423076923076923,0.5714285714285714,0.7857142857142857,0.0004
249,0.4164988100528717,0.9173226952552795,0.8461538461538461,0.9807692307692307,0.7857142857142857,0.9285714285714286,0.0004
250,0.7358256280422211,0.7273412346839905,0.7307692307692307,0.9423076923076923,1.0,0.9285714285714286,0.0004
251,0.43853896856307983,0.7926234602928162,0.8653846153846154,1.0,0.8571428571428571,0.9285714285714286,0.0004
252,0.5035298019647598,0.859919548034668,0.7884615384615384,1.0,0.7857142857142857,0.9285714285714286,0.0004
253,0.5016995221376419,1.258362054824829,0.8653846153846154,0.9807692307692307,0.7857142857142857,0.8571428571428571,0.0004
254,0.6185378432273865,0.8608767986297607,0.7692307692307693,1.0,0.7857142857142857,0.9285714285714286,0.0004
255,0.5896127372980118,1.47420072555542,0.8461538461538461,0.9615384615384616,0.7857142857142857,0.8571428571428571,0.0004
256,0.5816830396652222,1.3552675247192383,0.7307692307692307,0.9615384615384616,0.7857142857142857,0.8571428571428571,0.0004
257,0.5577955842018127,1.0913870334625244,0.8269230769230769,0.9423076923076923,0.7142857142857143,0.9285714285714286,0.0004
258,0.4893343299627304,0.8612614274024963,0.8269230769230769,0.9423076923076923,0.8571428571428571,0.9285714285714286,0.0004
259,0.5325300842523575,1.5002880096435547,0.8653846153846154,0.9423076923076923,0.6428571428571429,0.8571428571428571,0.0004
260,0.6365033984184265,1.3299016952514648,0.8076923076923077,0.9807692307692307,0.7857142857142857,0.9285714285714286,0.0004
261,0.6696458458900452,0.9735308885574341,0.75,0.9615384615384616,0.8571428571428571,0.9285714285714286,0.0004
262,0.49032649397850037,1.4900137186050415,0.8269230769230769,1.0,0.7142857142857143,0.9285714285714286,0.0004
263,0.817131370306015,0.9755485653877258,0.75,0.9423076923076923,0.7857142857142857,0.9285714285714286,0.0004
264,0.3747604340314865,1.55543053150177,0.8076923076923077,0.9807692307692307,0.5714285714285714,0.8571428571428571,0.0004
265,0.687815248966217,1.022903323173523,0.7307692307692307,0.9615384615384616,0.7857142857142857,0.9285714285714286,0.0004
266,0.8166241347789764,1.2001893520355225,0.8076923076923077,0.9423076923076923,0.6428571428571429,0.9285714285714286,0.0004
267,0.2868645489215851,0.6581763029098511,0.9038461538461539,1.0,0.8571428571428571,0.9285714285714286,0.0004
268,0.5336926281452179,0.7433749437332153,0.8269230769230769,0.9423076923076923,0.8571428571428571,0.9285714285714286,0.0004
269,0.5853902995586395,0.9273320436477661,0.7692307692307693,0.9807692307692307,0.8571428571428571,0.9285714285714286,0.0004
270,0.5868532508611679,1.3422703742980957,0.8076923076923077,1.0,0.7857142857142857,0.8571428571428571,0.0004
271,0.6758508086204529,1.1726986169815063,0.75,0.9807692307692307,0.7857142857142857,0.9285714285714286,0.0004
272,0.7999057769775391,1.7719459533691406,0.7692307692307693,0.9230769230769231,0.7142857142857143,0.8571428571428571,0.0004
273,0.7401425242424011,1.4320125579833984,0.75,0.9807692307692307,0.7142857142857143,0.9285714285714286,0.0004
274,0.4764351099729538,1.0807628631591797,0.8461538461538461,1.0,0.7857142857142857,0.8571428571428571,0.0004
275,0.8347490727901459,1.7422386407852173,0.7115384615384616,0.9615384615384616,0.8571428571428571,0.7857142857142857,0.0004
276,0.5033473670482635,1.0181090831756592,0.8653846153846154,1.0,0.8571428571428571,0.9285714285714286,0.0004
277,0.6959342956542969,0.5362461805343628,0.75,0.9423076923076923,0.9285714285714286,0.9285714285714286,0.0004
278,0.3651851862668991,0.8237664699554443,0.8269230769230769,1.0,0.9285714285714286,0.8571428571428571,0.0004
279,0.865233302116394,1.064876914024353,0.7307692307692307,0.9230769230769231,0.6428571428571429,0.8571428571428571,0.0004
280,0.6399906873703003,1.1987355947494507,0.8076923076923077,0.9615384615384616,0.7142857142857143,0.8571428571428571,0.0004
281,0.750882089138031,1.0053420066833496,0.7884615384615384,0.9423076923076923,0.8571428571428571,0.9285714285714286,0.0004
282,0.7403919398784637,1.0460002422332764,0.7307692307692307,0.9807692307692307,0.8571428571428571,0.8571428571428571,0.0004
283,0.5355989784002304,1.1018486022949219,0.8653846153846154,1.0,0.7857142857142857,0.9285714285714286,0.0004
284,0.549540638923645,1.3283343315124512,0.8269230769230769,0.9807692307692307,0.7142857142857143,0.8571428571428571,0.0004
285,0.7030379772186279,1.5503653287887573,0.6923076923076923,0.9615384615384616,0.5714285714285714,0.8571428571428571,0.0004
286,0.47885650396347046,1.4274084568023682,0.7692307692307693,1.0,0.5714285714285714,0.9285714285714286,0.0004
287,0.7291842997074127,1.2288901805877686,0.7307692307692307,0.9615384615384616,0.7142857142857143,0.9285714285714286,0.0004
288,0.764062911272049,1.196242094039917,0.8269230769230769,0.9615384615384616,0.5714285714285714,0.8571428571428571,0.0004
289,0.9070124924182892,1.0212689638137817,0.6730769230769231,0.9423076923076923,0.7857142857142857,0.9285714285714286,0.0004
290,0.7499920129776001,0.8167432546615601,0.7307692307692307,0.9615384615384616,0.7857142857142857,0.9285714285714286,0.0004
291,0.5582139790058136,0.9681521654129028,0.75,1.0,0.8571428571428571,0.9285714285714286,0.0004
292,0.5575234442949295,1.3651995658874512,0.7692307692307693,1.0,0.6428571428571429,0.7857142857142857,0.0004
293,0.6440045833587646,1.3814916610717773,0.8653846153846154,0.9423076923076923,0.6428571428571429,0.7857142857142857,0.0004
294,0.49079498648643494,0.8491965532302856,0.8461538461538461,0.9807692307692307,0.8571428571428571,0.9285714285714286,0.0004
295,0.6962434947490692,0.981835126876831,0.7115384615384616,0.9615384615384616,0.6428571428571429,0.9285714285714286,0.0004
296,0.762780487537384,0.8346825838088989,0.7692307692307693,0.9230769230769231,0.7857142857142857,0.9285714285714286,0.0004
297,0.690476804971695,0.9418667554855347,0.7692307692307693,1.0,0.7857142857142857,0.8571428571428571,0.0004
298,0.5293367058038712,0.9410526752471924,0.8076923076923077,0.9615384615384616,0.9285714285714286,0.9285714285714286,0.0004
299,0.5296531915664673,1.4360928535461426,0.8461538461538461,1.0,0.6428571428571429,0.8571428571428571,0.0004
300,0.6367214322090149,1.475311517715454,0.7884615384615384,0.9807692307692307,0.7142857142857143,0.8571428571428571,0.0004
301,0.7539552450180054,1.41214919090271,0.7115384615384616,0.9615384615384616,0.5714285714285714,0.8571428571428571,0.0004
302,0.6508640348911285,1.6016664505004883,0.7884615384615384,0.9423076923076923,0.7857142857142857,0.8571428571428571,0.0004
303,0.6001887917518616,1.5179699659347534,0.7884615384615384,0.9807692307692307,0.5714285714285714,0.7857142857142857,0.0004
304,0.9576277434825897,0.9667007923126221,0.75,0.9230769230769231,0.8571428571428571,0.9285714285714286,0.0004
305,0.3792674094438553,0.8042492866516113,0.8653846153846154,1.0,0.8571428571428571,0.9285714285714286,0.0004
306,0.3836409002542496,0.9268687963485718,0.8846153846153846,0.9807692307692307,0.8571428571428571,0.9285714285714286,0.0004
307,0.4775823652744293,1.0371863842010498,0.8269230769230769,0.9807692307692307,0.8571428571428571,0.9285714285714286,0.0004
308,0.5646266341209412,1.4471240043640137,0.75,0.9615384615384616,0.7857142857142857,0.7857142857142857,0.0004
309,0.49013297259807587,1.1129627227783203,0.8461538461538461,0.9423076923076923,0.7857142857142857,0.9285714285714286,0.0004
310,0.6721156239509583,1.0990999937057495,0.8076923076923077,0.9423076923076923,0.7857142857142857,0.9285714285714286,0.0004
311,1.0160037875175476,0.8755346536636353,0.7307692307692307,0.9230769230769231,0.8571428571428571,0.9285714285714286,0.0004
312,0.5422897636890411,0.7604366540908813,0.7692307692307693,1.0,0.7857142857142857,0.9285714285714286,0.0004
313,0.6292055249214172,1.0684728622436523,0.7692307692307693,0.9615384615384616,0.8571428571428571,0.8571428571428571,0.0004
314,0.49025823175907135,1.0003721714019775,0.8846153846153846,1.0,0.7857142857142857,0.9285714285714286,0.0004
315,0.5906941294670105,0.900200366973877,0.8269230769230769,0.9230769230769231,0.8571428571428571,0.9285714285714286,0.0004
316,0.6333139985799789,2.026230573654175,0.75,0.9807692307692307,0.5714285714285714,0.7857142857142857,0.0004
317,0.5427353382110596,1.079324722290039,0.8653846153846154,1.0,0.7142857142857143,0.9285714285714286,0.0004
318,0.558237612247467,1.2122503519058228,0.8076923076923077,1.0,0.8571428571428571,0.7857142857142857,0.0004
319,0.6208468228578568,0.804303765296936,0.8269230769230769,0.9615384615384616,0.8571428571428571,0.9285714285714286,0.0004
320,0.6666574776172638,0.9313068389892578,0.7884615384615384,0.9615384615384616,0.7857142857142857,0.9285714285714286,0.0004
321,0.6844881474971771,0.969826340675354,0.7115384615384616,0.9615384615384616,0.8571428571428571,0.9285714285714286,0.0004
322,0.5631216168403625,1.6874125003814697,0.8461538461538461,0.9615384615384616,0.5714285714285714,0.7857142857142857,0.0004
323,0.6125096082687378,0.7071592211723328,0.75,0.9423076923076923,0.9285714285714286,0.9285714285714286,0.0004
324,0.850336343050003,0.6496289968490601,0.7307692307692307,0.9423076923076923,0.8571428571428571,0.9285714285714286,0.0004
325,0.7011350095272064,1.3495649099349976,0.7884615384615384,0.9423076923076923,0.7142857142857143,0.9285714285714286,0.0004
326,0.4751114398241043,1.2095248699188232,0.9038461538461539,0.9807692307692307,0.8571428571428571,0.8571428571428571,0.0004
327,0.3729606941342354,1.1485121250152588,0.9230769230769231,0.9807692307692307,0.7142857142857143,0.8571428571428571,0.0004
328,0.8291887938976288,0.9402976036071777,0.7307692307692307,0.9615384615384616,0.8571428571428571,0.8571428571428571,0.0004
329,0.6209703683853149,1.8080261945724487,0.7884615384615384,0.9423076923076923,0.7857142857142857,0.7857142857142857,0.0004
330,0.5460466891527176,1.562593698501587,0.8269230769230769,1.0,0.7142857142857143,0.8571428571428571,0.0004
331,0.5106602907180786,1.2049164772033691,0.8076923076923077,0.9807692307692307,0.7857142857142857,0.9285714285714286,0.0004
332,0.5194228887557983,1.2739306688308716,0.8461538461538461,0.9807692307692307,0.8571428571428571,0.8571428571428571,0.0004
333,0.4355834275484085,0.9423563480377197,0.7692307692307693,1.0,0.9285714285714286,0.9285714285714286,0.0004
334,0.5848788917064667,1.2425223588943481,0.8653846153846154,0.9615384615384616,0.7142857142857143,0.8571428571428571,0.0004
335,0.5404077023267746,1.1656873226165771,0.8076923076923077,0.9807692307692307,0.7857142857142857,0.8571428571428571,0.0004
336,0.8006596863269806,1.843775749206543,0.7692307692307693,0.9615384615384616,0.6428571428571429,0.7857142857142857,0.0004
337,0.614158108830452,0.9665608406066895,0.7884615384615384,1.0,0.7857142857142857,0.8571428571428571,0.0004
338,0.5670001804828644,0.9191563129425049,0.9230769230769231,0.9615384615384616,0.7142857142857143,0.8571428571428571,0.0004
339,0.7596440613269806,1.4487241506576538,0.75,0.9615384615384616,0.7142857142857143,0.9285714285714286,0.0004
340,0.5449922680854797,1.0889784097671509,0.8076923076923077,0.9807692307692307,0.7857142857142857,0.9285714285714286,0.0004
341,0.34637629985809326,1.2046844959259033,0.8846153846153846,0.9807692307692307,0.8571428571428571,0.9285714285714286,0.0004
342,0.38011474907398224,0.9353359937667847,0.8846153846153846,1.0,0.7857142857142857,0.9285714285714286,0.0004
343,0.502996951341629,0.7003889083862305,0.8269230769230769,0.9615384615384616,0.8571428571428571,0.9285714285714286,0.0004
344,0.5092049092054367,0.6919264793395996,0.8076923076923077,1.0,0.9285714285714286,0.8571428571428571,0.0004
345,0.5821556448936462,1.6727368831634521,0.7692307692307693,0.9807692307692307,0.6428571428571429,0.7857142857142857,0.0004
346,0.3187674731016159,0.9561267495155334,0.9423076923076923,1.0,0.7142857142857143,0.9285714285714286,0.0004
347,0.4523661434650421,1.0373849868774414,0.8846153846153846,0.9615384615384616,0.9285714285714286,0.9285714285714286,0.0004
348,0.61653271317482,0.7496280074119568,0.7884615384615384,0.9423076923076923,0.8571428571428571,0.8571428571428571,0.0004
349,0.6082617342472076,0.6172144412994385,0.7692307692307693,0.9807692307692307,0.8571428571428571,0.9285714285714286,0.0004
350,0.3946806415915489,1.1158437728881836,0.8653846153846154,1.0,0.7142857142857143,0.8571428571428571,0.0004
351,0.4707101583480835,2.5856943130493164,0.8076923076923077,0.9807692307692307,0.6428571428571429,0.7142857142857143,0.0004
352,0.8554634749889374,1.1145448684692383,0.7692307692307693,0.9423076923076923,0.8571428571428571,0.9285714285714286,0.0004
353,1.0598756968975067,1.4594494104385376,0.8653846153846154,0.9038461538461539,0.7142857142857143,0.7857142857142857,0.0004
354,0.6031847447156906,0.8593755960464478,0.7115384615384616,0.9615384615384616,0.7142857142857143,0.9285714285714286,0.0004
355,0.46293531358242035,0.9200199842453003,0.8653846153846154,0.9807692307692307,0.7857142857142857,0.8571428571428571,0.0004
356,0.5028689652681351,1.1863254308700562,0.7884615384615384,0.9807692307692307,0.7142857142857143,0.8571428571428571,0.0004
357,0.4072072207927704,0.9101585149765015,0.8461538461538461,0.9615384615384616,0.7142857142857143,0.9285714285714286,0.0004
358,0.6619148552417755,1.0326818227767944,0.8076923076923077,0.9423076923076923,0.7857142857142857,0.9285714285714286,0.0004
359,0.8722250759601593,0.9827537536621094,0.75,0.9230769230769231,0.8571428571428571,0.9285714285714286,0.0004
360,0.5871939361095428,1.028465747833252,0.7884615384615384,0.9230769230769231,0.7142857142857143,0.9285714285714286,0.0004
361,0.9438961446285248,0.72327721118927,0.6538461538461539,0.9230769230769231,0.7857142857142857,0.9285714285714286,0.0004
362,0.4874795526266098,1.1255178451538086,0.7884615384615384,0.9615384615384616,0.8571428571428571,0.9285714285714286,0.0004
363,0.521638423204422,0.6626595854759216,0.8269230769230769,0.9615384615384616,1.0,0.9285714285714286,0.0004
364,0.4078606367111206,1.4977302551269531,0.8461538461538461,0.9807692307692307,0.7142857142857143,0.8571428571428571,0.0004
365,0.4932594299316406,1.036672592163086,0.8461538461538461,0.9615384615384616,0.9285714285714286,0.9285714285714286,0.0004
366,0.6953760087490082,1.7015053033828735,0.7884615384615384,0.9230769230769231,0.6428571428571429,0.8571428571428571,0.0004
367,0.6180540025234222,1.2890357971191406,0.75,0.9423076923076923,0.7857142857142857,0.8571428571428571,0.0004
368,0.5673350989818573,1.1411737203598022,0.7884615384615384,0.9423076923076923,0.7857142857142857,0.8571428571428571,0.0004
369,0.9264542162418365,0.8110513687133789,0.7884615384615384,0.9230769230769231,0.8571428571428571,0.9285714285714286,0.0004
370,0.6306332051753998,0.7594905495643616,0.7692307692307693,0.9615384615384616,0.9285714285714286,0.9285714285714286,0.0004
371,0.7049816250801086,1.012566328048706,0.7884615384615384,0.9615384615384616,0.5714285714285714,0.9285714285714286,0.0004
372,0.6054648756980896,1.832664966583252,0.7884615384615384,0.9038461538461539,0.7857142857142857,0.8571428571428571,0.0004
373,0.610924243927002,0.8560720682144165,0.7884615384615384,0.9615384615384616,0.9285714285714286,0.9285714285714286,0.0004
374,0.7759175002574921,1.7623741626739502,0.75,0.8846153846153846,0.5,0.7142857142857143,0.0004
375,0.721211314201355,0.9780649542808533,0.75,0.9807692307692307,0.7857142857142857,0.8571428571428571,0.0004
376,0.6375187039375305,1.6396191120147705,0.75,0.9615384615384616,0.6428571428571429,0.7857142857142857,0.0004
377,0.5332849025726318,0.8911755084991455,0.8461538461538461,0.9615384615384616,0.8571428571428571,0.8571428571428571,0.0004
378,0.5746515691280365,1.1654648780822754,0.8461538461538461,1.0,0.7857142857142857,0.9285714285714286,0.0004
379,0.5066244751214981,0.8214812874794006,0.8269230769230769,1.0,0.7142857142857143,0.8571428571428571,0.0004
380,0.5045178532600403,0.9837113618850708,0.8653846153846154,0.9807692307692307,0.7857142857142857,0.8571428571428571,0.0004
381,0.4696829617023468,0.9537180662155151,0.8461538461538461,0.9615384615384616,0.8571428571428571,0.8571428571428571,0.0004
382,0.8528626710176468,1.027961254119873,0.75,0.9230769230769231,0.8571428571428571,0.9285714285714286,0.0004
383,0.7563846558332443,1.04045569896698,0.8076923076923077,0.9038461538461539,0.7857142857142857,0.8571428571428571,0.0004
384,0.4498700797557831,1.3424978256225586,0.8076923076923077,0.9807692307692307,0.7142857142857143,0.8571428571428571,0.0004
385,0.5407452881336212,0.7584325075149536,0.8076923076923077,0.9615384615384616,0.9285714285714286,0.9285714285714286,0.0004
386,0.4550422430038452,0.9969167709350586,0.9038461538461539,0.9807692307692307,0.7857142857142857,0.8571428571428571,0.0004
387,0.35887156426906586,1.044968843460083,0.9230769230769231,1.0,0.7142857142857143,0.9285714285714286,0.0004
388,0.4159203767776489,1.0693987607955933,0.8076923076923077,1.0,0.7857142857142857,0.9285714285714286,0.0004
389,0.4003703445196152,1.2590055465698242,0.8076923076923077,1.0,0.7142857142857143,0.8571428571428571,0.0004
390,0.6473190486431122,0.8390446305274963,0.75,0.9807692307692307,0.8571428571428571,0.9285714285714286,0.0004
391,0.6170473992824554,1.3021163940429688,0.8076923076923077,0.9230769230769231,0.5714285714285714,0.9285714285714286,0.0004
392,0.3542975187301636,0.9142046570777893,0.8653846153846154,1.0,0.7857142857142857,0.9285714285714286,0.0004
393,0.47448450326919556,1.2666903734207153,0.8269230769230769,1.0,0.7857142857142857,0.9285714285714286,0.0004
394,0.5586842149496078,1.138719081878662,0.8269230769230769,0.9615384615384616,0.8571428571428571,0.7857142857142857,0.0004
395,0.44684113562107086,1.23519766330719,0.8076923076923077,1.0,0.7142857142857143,0.8571428571428571,0.0004
396,0.5127849727869034,1.3850300312042236,0.8269230769230769,0.9423076923076923,0.6428571428571429,0.8571428571428571,0.0004
397,0.4866481423377991,1.0097177028656006,0.8461538461538461,0.9615384615384616,0.8571428571428571,0.8571428571428571,0.0004
398,0.3677467703819275,1.533042073249817,0.9038461538461539,0.9807692307692307,0.5714285714285714,0.8571428571428571,0.0004
399,0.4144395738840103,1.9230625629425049,0.8269230769230769,1.0,0.7142857142857143,0.7142857142857143,0.0004
400,0.3666273355484009,0.9757617712020874,0.8269230769230769,0.9807692307692307,0.9285714285714286,0.9285714285714286,0.0004
401,0.444599986076355,1.0049972534179688,0.8653846153846154,0.9615384615384616,0.8571428571428571,0.8571428571428571,0.0004
402,0.6334184259176254,2.2562389373779297,0.8076923076923077,0.9038461538461539,0.6428571428571429,0.7857142857142857,0.0004
403,0.6775400340557098,1.2132267951965332,0.7692307692307693,0.9423076923076923,0.7857142857142857,0.9285714285714286,0.0004
404,0.7499744594097137,1.0519248247146606,0.8076923076923077,0.9230769230769231,0.8571428571428571,0.9285714285714286,0.0004
405,0.4638074189424515,0.8731755018234253,0.8653846153846154,0.9807692307692307,0.7857142857142857,0.9285714285714286,0.0004
406,0.43568314611911774,0.9959391355514526,0.9038461538461539,0.9615384615384616,0.8571428571428571,0.9285714285714286,0.0004
407,0.32154063135385513,0.9636449813842773,0.8846153846153846,0.9807692307692307,0.7857142857142857,0.8571428571428571,0.0004
408,0.9879623055458069,0.9822952747344971,0.7692307692307693,0.9423076923076923,0.8571428571428571,0.8571428571428571,0.0004
409,0.7535316646099091,1.4946813583374023,0.7115384615384616,0.9423076923076923,0.7857142857142857,0.8571428571428571,0.0004
410,1.0827397406101227,0.8826010823249817,0.6538461538461539,0.9423076923076923,0.8571428571428571,0.9285714285714286,0.0004
411,0.8266180157661438,1.0910890102386475,0.7115384615384616,0.9615384615384616,0.8571428571428571,0.9285714285714286,0.0004
412,0.49029505252838135,1.3218305110931396,0.8846153846153846,0.9807692307692307,0.6428571428571429,0.9285714285714286,0.0004
413,0.514819473028183,1.0420455932617188,0.8269230769230769,1.0,0.7857142857142857,0.9285714285714286,0.0004
414,0.6227540820837021,1.1109293699264526,0.8461538461538461,0.9807692307692307,0.6428571428571429,0.9285714285714286,0.0004
415,0.565364807844162,1.1018364429473877,0.7884615384615384,0.9807692307692307,0.7857142857142857,0.9285714285714286,0.0004
416,0.5492498725652695,1.0797810554504395,0.8076923076923077,0.9807692307692307,0.8571428571428571,0.9285714285714286,0.0004
417,0.47820599377155304,1.1509240865707397,0.8653846153846154,0.9807692307692307,0.7857142857142857,0.8571428571428571,0.0004
418,0.6233091056346893,1.2443326711654663,0.75,0.9615384615384616,0.7142857142857143,0.9285714285714286,0.0004
419,0.6399148553609848,1.104702353477478,0.7884615384615384,0.9615384615384616,0.7857142857142857,0.8571428571428571,0.0004
420,0.5549605190753937,1.103583574295044,0.7692307692307693,0.9423076923076923,0.7857142857142857,0.9285714285714286,0.0004
421,0.841168224811554,1.5595252513885498,0.7307692307692307,0.9615384615384616,0.6428571428571429,0.8571428571428571,0.0004
422,0.7240944504737854,0.9295541048049927,0.7692307692307693,0.9423076923076923,0.7857142857142857,0.9285714285714286,0.0004
423,0.5465104132890701,1.436572790145874,0.8653846153846154,0.9615384615384616,0.7142857142857143,0.8571428571428571,0.0004
424,0.41784214973449707,1.3704497814178467,0.8846153846153846,1.0,0.7142857142857143,0.8571428571428571,0.0004
425,0.42067141830921173,2.2508111000061035,0.8461538461538461,1.0,0.6428571428571429,0.7142857142857143,0.0004
426,0.602316826581955,0.9576307535171509,0.8269230769230769,0.9615384615384616,0.8571428571428571,0.9285714285714286,0.0004
427,0.6177745014429092,1.1668329238891602,0.8269230769230769,0.9807692307692307,0.7857142857142857,0.9285714285714286,0.0004
428,0.42871280014514923,1.6027545928955078,0.8653846153846154,0.9807692307692307,0.6428571428571429,0.9285714285714286,0.0004
429,0.4428582340478897,1.3836441040039062,0.8461538461538461,0.9807692307692307,0.7142857142857143,0.9285714285714286,0.0004
430,0.5289586931467056,0.9601725935935974,0.8653846153846154,0.9615384615384616,0.7857142857142857,0.8571428571428571,0.0004
431,0.572482094168663,2.030116558074951,0.8269230769230769,0.9807692307692307,0.5714285714285714,0.8571428571428571,0.0004
432,0.6619193106889725,1.1159507036209106,0.8269230769230769,0.9230769230769231,0.7857142857142857,0.9285714285714286,0.0004
433,0.5649783611297607,1.2450947761535645,0.7884615384615384,0.9230769230769231,0.7857142857142857,0.8571428571428571,0.0004
434,0.5734950602054596,1.535005807876587,0.75,0.9807692307692307,0.8571428571428571,0.8571428571428571,0.0004
435,0.5158454477787018,0.8872158527374268,0.7884615384615384,1.0,0.9285714285714286,0.9285714285714286,0.0004
436,0.47898347675800323,1.139532208442688,0.8846153846153846,0.9807692307692307,0.8571428571428571,0.9285714285714286,0.0004
437,0.4815917909145355,0.9324347972869873,0.8269230769230769,1.0,0.7857142857142857,0.8571428571428571,0.0004
438,0.6189551055431366,0.8337373733520508,0.8076923076923077,0.9807692307692307,0.8571428571428571,0.9285714285714286,0.0004
439,0.5223740488290787,2.235144853591919,0.7692307692307693,0.9807692307692307,0.5,0.7142857142857143,0.0004
440,0.4682951718568802,0.5831595659255981,0.8653846153846154,0.9615384615384616,1.0,0.9285714285714286,0.0004
441,0.5033266842365265,0.6715172529220581,0.8461538461538461,0.9807692307692307,0.9285714285714286,0.9285714285714286,0.0004
442,0.6504977345466614,1.0909661054611206,0.8461538461538461,0.9615384615384616,0.7142857142857143,0.9285714285714286,0.0004
443,0.4500513970851898,1.3211578130722046,0.8461538461538461,0.9807692307692307,0.7142857142857143,0.7857142857142857,0.0004
444,0.5011521577835083,1.150587797164917,0.8076923076923077,0.9807692307692307,0.7857142857142857,0.8571428571428571,0.0004
445,0.4873912036418915,0.9886912107467651,0.7884615384615384,0.9807692307692307,0.8571428571428571,0.8571428571428571,0.0004
446,0.5828511565923691,0.7295299172401428,0.8269230769230769,0.9807692307692307,0.9285714285714286,0.9285714285714286,0.0004
447,0.3583085834980011,1.5308301448822021,0.8846153846153846,1.0,0.7142857142857143,0.8571428571428571,0.0004
448,0.4529844969511032,0.592551052570343,0.8269230769230769,1.0,1.0,0.8571428571428571,0.0004
449,0.363687664270401,1.6074767112731934,0.8653846153846154,0.9807692307692307,0.7142857142857143,0.7857142857142857,0.0004
450,0.5837331712245941,1.0534272193908691,0.7692307692307693,1.0,0.7857142857142857,0.9285714285714286,0.0004
451,0.5116272419691086,0.9538085460662842,0.8076923076923077,0.9615384615384616,0.7857142857142857,0.8571428571428571,0.0004
452,0.736468642950058,1.190841794013977,0.7307692307692307,0.9615384615384616,0.8571428571428571,0.8571428571428571,0.0004
453,0.6533540189266205,1.0884296894073486,0.7692307692307693,0.9807692307692307,0.8571428571428571,0.9285714285714286,0.0004
454,0.5455258190631866,1.9378790855407715,0.8076923076923077,0.9615384615384616,0.8571428571428571,0.7857142857142857,0.0004
455,0.5389101505279541,1.258244276046753,0.8461538461538461,0.9807692307692307,0.8571428571428571,0.8571428571428571,0.0004
456,0.6262217462062836,0.8657591342926025,0.8076923076923077,0.9615384615384616,0.7857142857142857,0.9285714285714286,0.0004
457,0.46606507897377014,1.4009153842926025,0.8269230769230769,0.9615384615384616,0.9285714285714286,0.8571428571428571,0.0004
458,0.3918190598487854,1.3022956848144531,0.8269230769230769,0.9807692307692307,0.6428571428571429,0.8571428571428571,0.0004
459,0.8059594631195068,1.4713809490203857,0.75,0.9615384615384616,0.7142857142857143,0.9285714285714286,0.0004
460,0.7791970074176788,1.1155006885528564,0.75,0.9615384615384616,0.8571428571428571,0.8571428571428571,0.0004
461,0.4732733368873596,1.3822247982025146,0.7692307692307693,0.9807692307692307,0.5,0.8571428571428571,0.0004
462,0.5491361320018768,1.242187738418579,0.8461538461538461,0.9615384615384616,0.7857142857142857,0.9285714285714286,0.0004
463,0.44097985327243805,1.0030326843261719,0.8846153846153846,0.9807692307692307,0.6428571428571429,0.8571428571428571,0.0004
464,0.6080047488212585,1.579927682876587,0.8269230769230769,0.9230769230769231,0.6428571428571429,0.8571428571428571,0.0004
465,0.5847574174404144,0.950951337814331,0.8461538461538461,0.9615384615384616,0.8571428571428571,0.9285714285714286,0.0004
466,0.6109851598739624,1.4985127449035645,0.7884615384615384,0.9807692307692307,0.7857142857142857,0.8571428571428571,0.0004
467,0.6092704832553864,1.4059500694274902,0.75,0.9807692307692307,0.7857142857142857,0.8571428571428571,0.0004
468,0.41092950105667114,0.9374955892562866,0.8461538461538461,0.9807692307692307,0.8571428571428571,0.9285714285714286,0.0004
469,0.5510028898715973,1.3771765232086182,0.7692307692307693,0.9615384615384616,0.7142857142857143,0.8571428571428571,0.0004
470,0.6296281814575195,1.5949206352233887,0.7884615384615384,0.9423076923076923,0.7142857142857143,0.8571428571428571,0.0004
471,0.5575101673603058,1.581264853477478,0.8846153846153846,0.9615384615384616,0.6428571428571429,0.9285714285714286,0.0004
472,0.4935683012008667,1.1057288646697998,0.8269230769230769,0.9423076923076923,0.7857142857142857,0.9285714285714286,0.0004
473,0.41982921957969666,0.3997069001197815,0.8653846153846154,0.9807692307692307,1.0,0.9285714285714286,0.0004
474,0.422512024641037,1.1065819263458252,0.8269230769230769,1.0,0.7142857142857143,0.9285714285714286,0.0004
475,0.6743782162666321,0.7996435165405273,0.8076923076923077,0.9615384615384616,0.9285714285714286,0.9285714285714286,0.0004
476,0.3915264308452606,0.9499812126159668,0.8269230769230769,0.9807692307692307,0.8571428571428571,0.9285714285714286,0.0004
477,0.5040402561426163,0.9484863877296448,0.8653846153846154,1.0,0.8571428571428571,0.9285714285714286,0.0004
478,0.32915957272052765,1.127411961555481,0.8653846153846154,1.0,0.7142857142857143,0.8571428571428571,0.0004
479,0.5303068459033966,1.5407519340515137,0.8269230769230769,0.9615384615384616,0.7142857142857143,0.8571428571428571,0.0004
480,0.5793861597776413,1.1540759801864624,0.7692307692307693,0.9807692307692307,0.6428571428571429,0.9285714285714286,0.0004
481,0.4818011745810509,1.543992280960083,0.9230769230769231,0.9807692307692307,0.7142857142857143,0.9285714285714286,0.0004
482,0.5817701071500778,1.0670766830444336,0.8846153846153846,0.9807692307692307,0.7142857142857143,0.8571428571428571,0.0004
483,0.5304031372070312,0.949020504951477,0.8846153846153846,0.9615384615384616,0.9285714285714286,0.9285714285714286,0.0004
484,0.44910217821598053,1.4864609241485596,0.8846153846153846,0.9807692307692307,0.7142857142857143,0.8571428571428571,0.0004
485,0.44160914421081543,1.662955641746521,0.9038461538461539,0.9807692307692307,0.7142857142857143,0.7142857142857143,0.0004
486,0.5094945579767227,2.1603782176971436,0.75,0.9615384615384616,0.5,0.7857142857142857,0.0004
487,0.45540592074394226,1.1163560152053833,0.9038461538461539,1.0,0.7142857142857143,0.9285714285714286,0.0004
488,0.28485675156116486,1.416515588760376,0.9038461538461539,0.9807692307692307,0.6428571428571429,0.8571428571428571,0.0004
489,0.33555014431476593,0.7699020504951477,0.9038461538461539,1.0,0.9285714285714286,0.9285714285714286,0.0004
490,0.4990357756614685,1.127575159072876,0.8269230769230769,0.9615384615384616,0.8571428571428571,0.8571428571428571,0.0004
491,0.31455889344215393,1.3908499479293823,0.9038461538461539,0.9807692307692307,0.7142857142857143,0.8571428571428571,0.0004
492,0.8284419178962708,1.56609046459198,0.75,0.9423076923076923,0.7142857142857143,0.7857142857142857,0.0004
493,0.49479442834854126,0.9232885241508484,0.8461538461538461,0.9807692307692307,0.8571428571428571,0.8571428571428571,0.0004
494,0.49961209297180176,1.3523025512695312,0.8076923076923077,0.9615384615384616,0.7857142857142857,0.8571428571428571,0.0004
495,0.6091189682483673,1.205662488937378,0.75,0.9423076923076923,0.6428571428571429,0.8571428571428571,0.0004
496,0.4465872719883919,0.8143606781959534,0.9230769230769231,0.9615384615384616,0.8571428571428571,0.9285714285714286,0.0004
497,0.6096566021442413,1.3214995861053467,0.8461538461538461,0.9807692307692307,0.7857142857142857,0.7857142857142857,0.0004
498,0.644575297832489,1.3800585269927979,0.8269230769230769,0.9615384615384616,0.6428571428571429,0.8571428571428571,0.0004
499,0.30710526555776596,1.5676298141479492,0.8846153846153846,1.0,0.7857142857142857,0.8571428571428571,0.0004
500,0.9305265545845032,1.7683532238006592,0.7307692307692307,0.9423076923076923,0.5,0.8571428571428571,0.0004
501,0.49000729620456696,0.9990203380584717,0.8653846153846154,0.9807692307692307,0.7857142857142857,0.9285714285714286,0.0004
502,0.45600301027297974,1.318833589553833,0.8846153846153846,0.9423076923076923,0.7142857142857143,0.8571428571428571,0.0004
503,0.5176519155502319,1.4537981748580933,0.8461538461538461,0.9615384615384616,0.7857142857142857,0.8571428571428571,0.0004
504,0.5665962398052216,1.0312789678573608,0.8076923076923077,0.9807692307692307,0.7142857142857143,0.9285714285714286,0.0004
505,0.5572022497653961,1.250627875328064,0.7884615384615384,0.9807692307692307,0.8571428571428571,0.8571428571428571,0.0004
506,0.47802525758743286,1.3143244981765747,0.8269230769230769,1.0,0.7857142857142857,0.8571428571428571,0.0004
507,0.4507838040590286,0.499329149723053,0.8076923076923077,1.0,0.7857142857142857,0.9285714285714286,0.0004
508,0.4544118046760559,0.8307492733001709,0.8269230769230769,0.9807692307692307,0.9285714285714286,0.9285714285714286,0.0004
509,0.6766483634710312,1.0180859565734863,0.7884615384615384,0.9807692307692307,0.7857142857142857,0.9285714285714286,0.0004
510,0.52998186647892,1.0682562589645386,0.75,1.0,0.7142857142857143,0.8571428571428571,0.0004
511,0.6126254200935364,1.0957579612731934,0.8269230769230769,0.9615384615384616,0.8571428571428571,0.9285714285714286,0.0004
512,0.5934143215417862,0.8597828149795532,0.8269230769230769,0.9807692307692307,0.8571428571428571,0.9285714285714286,0.0004
513,0.4916050583124161,1.0397499799728394,0.8461538461538461,0.9615384615384616,0.7142857142857143,0.9285714285714286,0.0004
514,0.41692203283309937,0.861820638179779,0.9038461538461539,0.9807692307692307,0.9285714285714286,0.9285714285714286,0.0004
515,0.4842839241027832,0.9212982654571533,0.8269230769230769,0.9615384615384616,0.8571428571428571,0.9285714285714286,0.0004
516,0.41028107702732086,0.5282978415489197,0.9230769230769231,0.9807692307692307,0.8571428571428571,0.9285714285714286,0.0004
517,0.42795634269714355,0.8710505366325378,0.9423076923076923,0.9807692307692307,0.9285714285714286,0.8571428571428571,0.0004
518,0.6447474360466003,1.8910629749298096,0.7884615384615384,0.9615384615384616,0.5714285714285714,0.8571428571428571,0.0004
519,0.5662802755832672,1.3512628078460693,0.8076923076923077,0.9423076923076923,0.8571428571428571,0.9285714285714286,0.0004
520,0.36847637593746185,1.2223846912384033,0.8846153846153846,1.0,0.7857142857142857,0.7857142857142857,0.0004
521,0.4609963297843933,0.6418633460998535,0.8846153846153846,0.9423076923076923,0.8571428571428571,0.9285714285714286,0.0004
522,0.38765472173690796,0.9418314695358276,0.8846153846153846,0.9615384615384616,0.7857142857142857,0.9285714285714286,0.0004
523,0.5356172621250153,1.392195224761963,0.7692307692307693,0.9807692307692307,0.8571428571428571,0.8571428571428571,0.0004
524,0.5636372864246368,0.6492063999176025,0.8076923076923077,0.9807692307692307,0.8571428571428571,0.9285714285714286,0.0004
525,0.27012042701244354,1.2736032009124756,0.9038461538461539,1.0,0.7857142857142857,0.9285714285714286,0.0004
526,0.564094066619873,0.6738130450248718,0.7884615384615384,1.0,0.9285714285714286,0.9285714285714286,0.0004
527,0.5331301987171173,0.8573465943336487,0.8461538461538461,1.0,0.9285714285714286,0.9285714285714286,0.0004
528,0.38304663449525833,2.1798810958862305,0.8076923076923077,0.9615384615384616,0.7142857142857143,0.7142857142857143,0.0004
529,0.3189166337251663,1.9209380149841309,0.9230769230769231,0.9807692307692307,0.5714285714285714,0.8571428571428571,0.0004
530,0.48809412121772766,1.6755245923995972,0.8269230769230769,0.9807692307692307,0.7142857142857143,0.8571428571428571,0.0004
531,0.726522833108902,0.7594592571258545,0.8076923076923077,0.9615384615384616,0.9285714285714286,0.9285714285714286,0.0004
532,0.32603904604911804,0.8357212543487549,0.9230769230769231,0.9807692307692307,0.7857142857142857,0.9285714285714286,0.0004
533,0.4402732402086258,1.093693733215332,0.7692307692307693,1.0,0.6428571428571429,0.9285714285714286,0.0004
534,0.3864140287041664,2.308375120162964,0.8846153846153846,1.0,0.5,0.8571428571428571,0.0004
535,0.5036780387163162,0.9178317785263062,0.8076923076923077,0.9807692307692307,0.9285714285714286,0.9285714285714286,0.0004
536,0.5006908476352692,0.8751386404037476,0.8269230769230769,0.9807692307692307,0.8571428571428571,0.9285714285714286,0.0004
537,0.5037745833396912,1.1233936548233032,0.8269230769230769,1.0,0.7857142857142857,0.9285714285714286,0.0004
538,0.722100093960762,1.2045587301254272,0.7884615384615384,0.9423076923076923,0.8571428571428571,0.9285714285714286,0.0004
539,0.5186901092529297,1.6927590370178223,0.8076923076923077,0.9423076923076923,0.7857142857142857,0.8571428571428571,0.0004
540,0.42324165999889374,1.156325101852417,0.8269230769230769,1.0,0.7857142857142857,0.9285714285714286,0.0004
541,0.38315339386463165,1.040008783340454,0.8269230769230769,1.0,0.7857142857142857,0.9285714285714286,0.0004
542,0.39608223736286163,1.8260715007781982,0.8076923076923077,0.9807692307692307,0.6428571428571429,0.8571428571428571,0.0004
543,0.7759409248828888,1.5064817667007446,0.7884615384615384,0.9423076923076923,0.7857142857142857,0.8571428571428571,0.0004
544,0.6936313807964325,0.9373751878738403,0.8076923076923077,0.9423076923076923,0.8571428571428571,0.9285714285714286,0.0004
545,0.5124926269054413,0.9541183114051819,0.7884615384615384,0.9807692307692307,0.8571428571428571,0.9285714285714286,0.0004
546,0.4902958273887634,1.7426754236221313,0.8269230769230769,0.9615384615384616,0.7857142857142857,0.8571428571428571,0.0004
547,0.5619051158428192,1.6349035501480103,0.8076923076923077,0.9615384615384616,0.6428571428571429,0.7857142857142857,0.0004
548,0.339335098862648,1.9087255001068115,0.8653846153846154,0.9807692307692307,0.7142857142857143,0.8571428571428571,0.0004
549,0.37451349198818207,0.9121090173721313,0.8653846153846154,0.9807692307692307,0.9285714285714286,0.9285714285714286,0.0004
550,0.6283258497714996,1.1077959537506104,0.75,0.9615384615384616,0.7857142857142857,0.8571428571428571,0.0004
551,0.29350171238183975,0.8429502248764038,0.9230769230769231,0.9807692307692307,0.7857142857142857,0.9285714285714286,0.0004
552,0.5670794099569321,0.8978546857833862,0.8076923076923077,0.9423076923076923,1.0,0.9285714285714286,0.0004
553,0.719150573015213,0.9501718282699585,0.75,0.9230769230769231,0.7857142857142857,0.9285714285714286,0.0004
554,0.3646293133497238,1.7294411659240723,0.8461538461538461,0.9807692307692307,0.6428571428571429,0.7857142857142857,0.0004
555,0.4366590231657028,1.1647042036056519,0.9038461538461539,0.9807692307692307,0.6428571428571429,0.9285714285714286,0.0004
556,0.420196071267128,1.5977506637573242,0.8846153846153846,0.9615384615384616,0.6428571428571429,0.8571428571428571,0.0004
557,0.4568849802017212,0.9095181226730347,0.8269230769230769,0.9615384615384616,0.8571428571428571,0.9285714285714286,0.0004
558,0.4619213342666626,1.699387788772583,0.8461538461538461,0.9615384615384616,0.7142857142857143,0.8571428571428571,0.0004
559,0.4067819118499756,0.8789994716644287,0.8846153846153846,0.9807692307692307,0.8571428571428571,0.9285714285714286,0.0004
560,0.46798671782016754,0.6008718013763428,0.8846153846153846,0.9423076923076923,1.0,0.9285714285714286,0.0004
561,0.5512996017932892,0.6286288499832153,0.8269230769230769,0.9615384615384616,0.9285714285714286,0.9285714285714286,0.0004
562,0.44624313712120056,2.1595683097839355,0.8461538461538461,0.9615384615384616,0.7142857142857143,0.7857142857142857,0.0004
563,0.5877148807048798,0.8415043354034424,0.8269230769230769,0.9615384615384616,0.9285714285714286,0.9285714285714286,0.0004
564,0.45504768192768097,1.6786718368530273,0.8461538461538461,0.9807692307692307,0.7142857142857143,0.8571428571428571,0.0004
565,0.43650156259536743,0.8440237045288086,0.8846153846153846,0.9807692307692307,0.8571428571428571,0.9285714285714286,0.0004
566,0.620244711637497,1.7303365468978882,0.7884615384615384,0.9807692307692307,0.6428571428571429,0.9285714285714286,0.0004
567,0.5611865222454071,1.9405343532562256,0.8269230769230769,0.9615384615384616,0.5,0.8571428571428571,0.0004
568,0.7524143159389496,1.1198115348815918,0.7884615384615384,0.9807692307692307,0.7857142857142857,0.8571428571428571,0.0004
569,0.28971486538648605,1.064505696296692,0.8846153846153846,1.0,0.7857142857142857,0.8571428571428571,0.0004
570,0.5432797968387604,1.9182478189468384,0.8269230769230769,0.9807692307692307,0.7142857142857143,0.7857142857142857,0.0004
571,0.4894402027130127,0.8609421849250793,0.8653846153846154,0.9423076923076923,0.9285714285714286,0.9285714285714286,0.0004
572,0.5533953309059143,1.3597369194030762,0.8269230769230769,0.9807692307692307,0.7857142857142857,0.9285714285714286,0.0004
573,0.2784138470888138,1.3519456386566162,0.9423076923076923,0.9807692307692307,0.7857142857142857,0.9285714285714286,0.0004
574,0.3561070039868355,0.5845892429351807,0.9038461538461539,1.0,1.0,0.9285714285714286,0.0004
575,0.3861174136400223,0.8896384239196777,0.8653846153846154,0.9807692307692307,0.8571428571428571,0.9285714285714286,0.0004
576,0.5713287889957428,1.39757239818573,0.7692307692307693,0.9807692307692307,0.8571428571428571,0.7857142857142857,0.0004
577,0.5381068736314774,1.313929557800293,0.75,0.9807692307692307,0.6428571428571429,0.8571428571428571,0.0004
578,0.7634921073913574,0.9947173595428467,0.7692307692307693,0.9423076923076923,0.7857142857142857,0.9285714285714286,0.0004
579,0.6348951756954193,0.7865312695503235,0.7884615384615384,0.9615384615384616,0.9285714285714286,0.9285714285714286,0.0004
580,0.37168191373348236,1.080033302307129,0.8653846153846154,1.0,0.7857142857142857,0.9285714285714286,0.0004
581,0.48247629404067993,1.5659172534942627,0.8269230769230769,0.9807692307692307,0.8571428571428571,0.7857142857142857,0.0004
582,0.45279361307621,0.897546648979187,0.8269230769230769,0.9807692307692307,0.8571428571428571,0.8571428571428571,0.0004
583,0.5746198892593384,1.09254789352417,0.8653846153846154,0.9615384615384616,0.9285714285714286,0.8571428571428571,0.0004
584,0.5354977399110794,1.825239658355713,0.8846153846153846,0.9807692307692307,0.6428571428571429,0.8571428571428571,0.0004
585,0.4721924811601639,0.9138884544372559,0.8269230769230769,0.9807692307692307,0.9285714285714286,0.9285714285714286,0.0004
586,0.47945331037044525,1.5925284624099731,0.8269230769230769,0.9615384615384616,0.7142857142857143,0.8571428571428571,0.0004
587,0.49610435962677,0.6617753505706787,0.8461538461538461,0.9807692307692307,0.9285714285714286,0.9285714285714286,0.0004
588,0.4637124538421631,1.398345947265625,0.8461538461538461,0.9615384615384616,0.8571428571428571,0.8571428571428571,0.0004
589,0.48165811598300934,0.9880644679069519,0.8846153846153846,0.9807692307692307,0.9285714285714286,0.9285714285714286,0.0004
590,0.7745102792978287,1.304443597793579,0.75,0.9230769230769231,0.7857142857142857,0.8571428571428571,0.0004
591,0.19790777564048767,0.9941191077232361,0.9423076923076923,1.0,0.9285714285714286,0.9285714285714286,0.0004
592,0.38595646619796753,0.45979684591293335,0.8269230769230769,0.9615384615384616,1.0,0.9285714285714286,0.0004
593,0.3657834231853485,1.0548975467681885,0.8461538461538461,0.9807692307692307,0.7857142857142857,0.9285714285714286,0.0004
594,0.6348236054182053,0.8221268653869629,0.7692307692307693,0.9423076923076923,0.8571428571428571,0.9285714285714286,0.0004
595,0.4103918671607971,1.7575017213821411,0.9230769230769231,0.9807692307692307,0.6428571428571429,0.8571428571428571,0.0004
596,0.389865905046463,1.6326148509979248,0.8269230769230769,0.9807692307692307,0.6428571428571429,0.8571428571428571,0.0004
597,0.36863813921809196,0.9475597143173218,0.9038461538461539,0.9615384615384616,0.7857142857142857,0.8571428571428571,0.0004
598,0.37090064585208893,1.2217471599578857,0.8846153846153846,0.9807692307692307,0.7142857142857143,0.8571428571428571,0.0004
599,0.6577138304710388,1.3762340545654297,0.8076923076923077,0.9615384615384616,0.8571428571428571,0.8571428571428571,0.0004
600,0.7333907335996628,0.6815594434738159,0.8076923076923077,0.9807692307692307,1.0,0.9285714285714286,0.0004
601,0.7328034937381744,1.537503719329834,0.7884615384615384,0.9423076923076923,0.5714285714285714,0.8571428571428571,0.0004
602,0.42131051421165466,0.8827401995658875,0.8076923076923077,0.9807692307692307,0.8571428571428571,0.9285714285714286,0.0004
603,0.5115042179822922,1.2642183303833008,0.8076923076923077,0.9807692307692307,0.7857142857142857,0.9285714285714286,0.0004
604,0.38989898562431335,1.5475614070892334,0.9038461538461539,0.9807692307692307,0.7142857142857143,0.9285714285714286,0.0004
605,0.5494491308927536,1.0275691747665405,0.8269230769230769,0.9807692307692307,0.7857142857142857,0.9285714285714286,0.0004
606,0.6804751455783844,1.4078962802886963,0.75,0.9615384615384616,0.7142857142857143,0.8571428571428571,0.0004
607,0.26157041639089584,1.655653953552246,0.9423076923076923,1.0,0.7142857142857143,0.8571428571428571,0.0004
608,0.37098051607608795,0.9190154075622559,0.8846153846153846,1.0,0.7857142857142857,0.8571428571428571,0.0004
609,0.42664584517478943,1.2138774394989014,0.9038461538461539,0.9615384615384616,0.6428571428571429,0.8571428571428571,0.0004
610,0.4517959952354431,2.5245206356048584,0.8461538461538461,0.9615384615384616,0.6428571428571429,0.7857142857142857,0.0004
611,0.637253075838089,0.9397614002227783,0.7884615384615384,0.9807692307692307,0.8571428571428571,0.9285714285714286,0.0004
612,0.6835120022296906,1.5749882459640503,0.8076923076923077,0.9615384615384616,0.6428571428571429,0.8571428571428571,0.0004
613,0.6647076457738876,1.5684735774993896,0.8076923076923077,0.9423076923076923,0.7142857142857143,0.8571428571428571,0.0004
614,0.6741697043180466,1.2023608684539795,0.7692307692307693,0.9423076923076923,0.7857142857142857,0.9285714285714286,0.0004
615,0.3425116240978241,1.2047064304351807,0.8653846153846154,1.0,0.7142857142857143,0.9285714285714286,0.0004
616,0.360848531126976,1.4441547393798828,0.8846153846153846,0.9807692307692307,0.7142857142857143,0.8571428571428571,0.0004
617,0.3477465808391571,1.3829264640808105,0.9230769230769231,1.0,0.8571428571428571,0.7857142857142857,0.0004
618,0.5422249734401703,1.0201778411865234,0.8076923076923077,0.9615384615384616,0.8571428571428571,0.9285714285714286,0.0004
619,0.49079427123069763,1.442225694656372,0.8269230769230769,0.9615384615384616,0.7857142857142857,0.8571428571428571,0.0004
620,0.5979417860507965,1.0767147541046143,0.8461538461538461,0.9615384615384616,0.8571428571428571,0.9285714285714286,0.0004
621,0.5292421579360962,1.4019191265106201,0.8846153846153846,0.9615384615384616,0.8571428571428571,0.7857142857142857,0.0004
622,0.6866161823272705,1.5739226341247559,0.7692307692307693,0.9615384615384616,0.7857142857142857,0.8571428571428571,0.0004
623,0.5431429743766785,0.8944864273071289,0.8461538461538461,0.9615384615384616,0.8571428571428571,0.9285714285714286,0.0004
624,0.4473622143268585,0.988916277885437,0.8076923076923077,1.0,0.8571428571428571,0.9285714285714286,0.0004
625,0.590093731880188,1.5438530445098877,0.8076923076923077,0.9423076923076923,0.7857142857142857,0.8571428571428571,0.0004
626,0.5018814951181412,1.538899540901184,0.8076923076923077,0.9423076923076923,0.7857142857142857,0.8571428571428571,0.0004
627,0.6033278554677963,0.9200700521469116,0.8076923076923077,0.9615384615384616,0.8571428571428571,0.9285714285714286,0.0004
628,0.39941586554050446,1.4173158407211304,0.8653846153846154,1.0,0.7142857142857143,0.8571428571428571,0.0004
629,0.5366129726171494,0.8045752048492432,0.8076923076923077,0.9615384615384616,0.9285714285714286,0.9285714285714286,0.0004
630,0.43515734374523163,1.1587889194488525,0.8461538461538461,0.9807692307692307,0.8571428571428571,0.9285714285714286,0.0004
631,0.5596877038478851,1.5040053129196167,0.8461538461538461,0.9423076923076923,0.7857142857142857,0.7857142857142857,0.0004
632,0.36629346013069153,2.1645421981811523,0.9038461538461539,0.9807692307692307,0.6428571428571429,0.7857142857142857,0.0004
633,0.363235741853714,1.2866485118865967,0.9038461538461539,0.9615384615384616,0.7857142857142857,0.9285714285714286,0.0004
634,0.4883606731891632,1.581923007965088,0.8653846153846154,0.9807692307692307,0.6428571428571429,0.8571428571428571,0.0004
635,0.37725888192653656,1.1511452198028564,0.8846153846153846,1.0,0.8571428571428571,0.9285714285714286,0.0004
636,0.286558136343956,1.2747290134429932,0.9423076923076923,0.9807692307692307,0.7857142857142857,0.9285714285714286,0.0004
637,0.4807744175195694,1.0277600288391113,0.7884615384615384,0.9807692307692307,0.9285714285714286,0.8571428571428571,0.0004
638,0.4082416296005249,1.2063329219818115,0.8653846153846154,0.9615384615384616,0.7142857142857143,0.9285714285714286,0.0004
639,0.3628045916557312,1.4038960933685303,0.8653846153846154,0.9807692307692307,0.7857142857142857,0.7857142857142857,0.0004
640,0.32810668647289276,0.959519624710083,0.9230769230769231,1.0,0.9285714285714286,0.9285714285714286,0.0004
641,0.672353982925415,0.8847651481628418,0.7884615384615384,0.9615384615384616,0.7857142857142857,0.9285714285714286,0.0004
642,0.42837028205394745,1.2954256534576416,0.8461538461538461,1.0,0.7142857142857143,0.9285714285714286,0.0004
643,0.6569597572088242,0.8234285116195679,0.8461538461538461,0.9230769230769231,0.7857142857142857,0.9285714285714286,0.0004
644,0.36183153092861176,0.8547499179840088,0.8461538461538461,0.9807692307692307,0.9285714285714286,0.9285714285714286,0.0004
645,0.412709042429924,0.9299956560134888,0.8461538461538461,0.9615384615384616,0.7857142857142857,0.9285714285714286,0.0004
646,0.5439110398292542,0.9600421190261841,0.75,0.9423076923076923,0.7857142857142857,0.8571428571428571,0.0004
647,0.37263694405555725,1.0863375663757324,0.8461538461538461,1.0,0.7857142857142857,0.9285714285714286,0.0004
648,0.5790868252515793,2.1180760860443115,0.7115384615384616,0.9615384615384616,0.5714285714285714,0.7142857142857143,0.0004
649,0.7595244348049164,1.4797219038009644,0.7884615384615384,0.9423076923076923,0.7142857142857143,0.9285714285714286,0.0004
650,0.5511929392814636,1.4004731178283691,0.9038461538461539,0.9615384615384616,0.7857142857142857,0.8571428571428571,0.0004
651,0.4160701036453247,1.147007703781128,0.8269230769230769,1.0,0.7142857142857143,0.9285714285714286,0.0004
652,0.4228609502315521,1.6202504634857178,0.7884615384615384,1.0,0.7857142857142857,0.8571428571428571,0.0004
653,0.3443427160382271,1.8223828077316284,0.8653846153846154,1.0,0.7857142857142857,0.8571428571428571,0.0004
654,0.3948608934879303,1.1852567195892334,0.8653846153846154,1.0,0.7857142857142857,0.8571428571428571,0.0004
655,0.3975643068552017,1.0407638549804688,0.9038461538461539,1.0,0.7857142857142857,0.8571428571428571,0.0004
656,0.799420177936554,1.4990649223327637,0.7115384615384616,0.9615384615384616,0.6428571428571429,0.7857142857142857,0.0004
657,0.7464484572410583,1.2740130424499512,0.8076923076923077,0.9423076923076923,0.9285714285714286,0.8571428571428571,0.0004
658,0.6042947769165039,1.1394188404083252,0.8269230769230769,0.9423076923076923,0.7857142857142857,0.9285714285714286,0.0004
659,0.43342970311641693,1.1486042737960815,0.8461538461538461,1.0,0.8571428571428571,0.9285714285714286,0.0004
660,0.5774197652935982,1.0399200916290283,0.8269230769230769,0.9423076923076923,0.7857142857142857,0.9285714285714286,0.0004
661,0.710524171590805,1.1367043256759644,0.7884615384615384,0.9615384615384616,0.8571428571428571,0.8571428571428571,0.0004
662,0.386616513133049,1.1695713996887207,0.8461538461538461,1.0,0.7857142857142857,0.7857142857142857,0.0004
663,0.29999980702996254,1.3595383167266846,0.8653846153846154,0.9807692307692307,0.7857142857142857,0.8571428571428571,0.0004
664,0.3089902400970459,1.1945353746414185,0.8846153846153846,1.0,0.7142857142857143,0.9285714285714286,0.0004
665,0.3478853404521942,0.8640378713607788,0.9230769230769231,1.0,0.9285714285714286,0.8571428571428571,0.0004
666,0.42789818346500397,1.7933794260025024,0.8653846153846154,0.9230769230769231,0.6428571428571429,0.7857142857142857,0.0004
667,0.5311957597732544,1.1479628086090088,0.8269230769230769,0.9807692307692307,0.6428571428571429,0.9285714285714286,0.0004
668,0.4213218092918396,0.8067039251327515,0.9038461538461539,0.9615384615384616,0.8571428571428571,0.9285714285714286,0.0004
669,0.4358733743429184,0.9022088646888733,0.8269230769230769,0.9807692307692307,0.8571428571428571,0.9285714285714286,0.0004
670,0.5010528266429901,0.9412490129470825,0.8076923076923077,0.9807692307692307,0.9285714285714286,0.8571428571428571,0.0004
671,0.28318408131599426,1.8181910514831543,0.8653846153846154,1.0,0.7142857142857143,0.7857142857142857,0.0004
672,0.48041127622127533,0.863378643989563,0.8076923076923077,0.9423076923076923,0.8571428571428571,0.9285714285714286,0.0004
673,0.5597273111343384,1.440533995628357,0.8269230769230769,0.9423076923076923,0.7142857142857143,0.8571428571428571,0.0004
674,0.3820473253726959,1.812469482421875,0.9038461538461539,0.9807692307692307,0.6428571428571429,0.7857142857142857,0.0004
675,0.5805900692939758,1.635033130645752,0.8461538461538461,0.9423076923076923,0.6428571428571429,0.7857142857142857,0.0004
676,0.3709598481655121,1.08469557762146,0.8653846153846154,0.9615384615384616,0.9285714285714286,0.9285714285714286,0.0004
677,0.47577718645334244,1.1133496761322021,0.7884615384615384,0.9615384615384616,0.8571428571428571,0.9285714285714286,0.0004
678,0.5740554928779602,1.6334776878356934,0.8076923076923077,0.9615384615384616,0.5,0.8571428571428571,0.0004
679,0.5897750854492188,1.189543604850769,0.7884615384615384,0.9807692307692307,0.7142857142857143,0.9285714285714286,0.0004
680,0.38086310029029846,2.0369529724121094,0.8653846153846154,0.9807692307692307,0.6428571428571429,0.7142857142857143,0.0004
681,0.4260820001363754,1.3824312686920166,0.8653846153846154,0.9615384615384616,0.7857142857142857,0.7857142857142857,0.0004
682,0.44344937801361084,1.8249130249023438,0.9038461538461539,0.9807692307692307,0.6428571428571429,0.8571428571428571,0.0004
683,0.528071254491806,0.9790496826171875,0.8653846153846154,0.9615384615384616,0.8571428571428571,0.9285714285714286,0.0004
684,0.4372372031211853,2.0263450145721436,0.9038461538461539,0.9807692307692307,0.6428571428571429,0.7857142857142857,0.0004
685,0.504636824131012,1.5223289728164673,0.8076923076923077,0.9807692307692307,0.7857142857142857,0.8571428571428571,0.0004
686,0.3349311649799347,2.0062079429626465,0.8653846153846154,1.0,0.6428571428571429,0.8571428571428571,0.0004
687,0.45070236921310425,1.1586198806762695,0.8269230769230769,0.9615384615384616,0.7857142857142857,0.8571428571428571,0.0004
688,0.4759611487388611,1.6131823062896729,0.7884615384615384,0.9615384615384616,0.5714285714285714,0.8571428571428571,0.0004
689,0.5558073222637177,1.6526737213134766,0.7884615384615384,1.0,0.7857142857142857,0.8571428571428571,0.0004
690,0.3854577988386154,1.0471181869506836,0.8653846153846154,1.0,0.7142857142857143,0.9285714285714286,0.0004
691,0.4289926588535309,2.113173007965088,0.9038461538461539,0.9807692307692307,0.5,0.7857142857142857,0.0004
692,0.24474471807479858,1.731210708618164,0.9230769230769231,1.0,0.8571428571428571,0.8571428571428571,0.0004
693,0.5754921138286591,0.9155679941177368,0.7884615384615384,0.9807692307692307,0.8571428571428571,0.9285714285714286,0.0004
694,0.4935116767883301,1.4007227420806885,0.8269230769230769,0.9615384615384616,0.7142857142857143,0.8571428571428571,0.0004
695,0.4835931807756424,1.4694578647613525,0.8653846153846154,0.9423076923076923,0.7142857142857143,0.9285714285714286,0.0004
696,0.4076555520296097,0.9482463598251343,0.8461538461538461,0.9807692307692307,0.7857142857142857,0.9285714285714286,0.0004
697,0.44531771540641785,1.456965684890747,0.8076923076923077,1.0,0.7857142857142857,0.8571428571428571,0.0004
698,0.4384091794490814,1.208864450454712,0.8846153846153846,0.9807692307692307,0.7142857142857143,0.9285714285714286,0.0004
699,0.33506831526756287,0.8450999855995178,0.8461538461538461,1.0,1.0,0.9285714285714286,0.0004
700,0.42405591905117035,1.2264585494995117,0.8653846153846154,0.9615384615384616,0.7857142857142857,0.8571428571428571,0.0004
701,0.7000966966152191,0.9008817672729492,0.8269230769230769,0.9615384615384616,0.8571428571428571,0.8571428571428571,0.0004
702,0.4872666001319885,1.4812806844711304,0.8269230769230769,0.9615384615384616,0.7857142857142857,0.8571428571428571,0.0004
703,0.4084034711122513,1.0461353063583374,0.8846153846153846,1.0,0.8571428571428571,0.9285714285714286,0.0004
704,0.2689840793609619,1.2565178871154785,0.9230769230769231,0.9807692307692307,0.7857142857142857,0.8571428571428571,0.0004
705,0.3806562274694443,0.9600620269775391,0.9038461538461539,0.9807692307692307,0.8571428571428571,0.9285714285714286,0.0004
706,0.4131462574005127,1.2600221633911133,0.7884615384615384,0.9807692307692307,0.7142857142857143,0.8571428571428571,0.0004
707,0.378484770655632,1.3123385906219482,0.8461538461538461,0.9615384615384616,0.9285714285714286,0.8571428571428571,0.0004
708,0.6437116414308548,1.7332344055175781,0.8461538461538461,0.9807692307692307,0.7142857142857143,0.7142857142857143,0.0004
709,0.43028898537158966,2.429497241973877,0.8076923076923077,0.9615384615384616,0.5714285714285714,0.7857142857142857,0.0004
710,0.32874998450279236,1.0118176937103271,0.8653846153846154,0.9807692307692307,0.8571428571428571,0.8571428571428571,0.0004
711,0.318266823887825,1.5533244609832764,0.8653846153846154,1.0,0.6428571428571429,0.8571428571428571,0.0004
712,0.324531614780426,0.818496823310852,0.9230769230769231,1.0,0.8571428571428571,0.9285714285714286,0.0004
713,0.5568163245916367,1.338992953300476,0.8461538461538461,0.9615384615384616,0.7857142857142857,0.8571428571428571,0.0004
714,0.3413645923137665,1.1667566299438477,0.8653846153846154,0.9615384615384616,0.9285714285714286,0.8571428571428571,0.0004
715,0.395113006234169,1.5218698978424072,0.8846153846153846,1.0,0.7142857142857143,0.8571428571428571,0.0004
716,0.47771306335926056,1.265001893043518,0.8653846153846154,0.9615384615384616,0.7142857142857143,0.8571428571428571,0.0004
717,0.5895511209964752,1.572495937347412,0.7884615384615384,0.9807692307692307,0.5714285714285714,0.8571428571428571,0.0004
718,0.3638913035392761,1.7178094387054443,0.8653846153846154,1.0,0.6428571428571429,0.8571428571428571,0.0004
719,0.43375280499458313,0.9194378852844238,0.8461538461538461,1.0,0.9285714285714286,0.8571428571428571,0.0004
720,0.4832775294780731,1.0745818614959717,0.8846153846153846,0.9423076923076923,0.7142857142857143,0.9285714285714286,0.0004
721,0.5196152925491333,1.8175554275512695,0.8076923076923077,0.9615384615384616,0.8571428571428571,0.7142857142857143,0.0004
722,0.45147843658924103,0.9712944030761719,0.9038461538461539,0.9807692307692307,0.7142857142857143,0.9285714285714286,0.0004
723,0.2416442111134529,0.785224199295044,0.9230769230769231,1.0,0.8571428571428571,0.9285714285714286,0.0004
724,0.33933497220277786,1.2054023742675781,0.9038461538461539,1.0,0.6428571428571429,0.7857142857142857,0.0004
725,0.6597644835710526,1.2510302066802979,0.8076923076923077,0.9615384615384616,0.7142857142857143,0.8571428571428571,0.0004
726,0.629481852054596,0.6155581474304199,0.7884615384615384,0.9423076923076923,0.8571428571428571,0.9285714285714286,0.0004
727,0.39286695420742035,1.2768421173095703,0.8653846153846154,0.9807692307692307,0.7857142857142857,0.8571428571428571,0.0004
728,0.353887215256691,0.6986808776855469,0.8846153846153846,0.9615384615384616,0.9285714285714286,0.9285714285714286,0.0004
729,0.35139942169189453,0.8695192337036133,0.8461538461538461,1.0,0.8571428571428571,0.9285714285714286,0.0004
730,0.2973574250936508,1.335107445716858,0.8653846153846154,1.0,0.7857142857142857,0.9285714285714286,0.0004
731,0.6072854250669479,1.3172922134399414,0.7884615384615384,0.9807692307692307,0.7857142857142857,0.8571428571428571,0.0004
732,0.9002817869186401,0.8182727098464966,0.7692307692307693,0.9423076923076923,0.8571428571428571,0.8571428571428571,0.0004
733,0.4204541891813278,1.333998203277588,0.8653846153846154,1.0,0.7142857142857143,0.9285714285714286,0.0004
734,0.8481498062610626,1.6049003601074219,0.8076923076923077,0.9230769230769231,0.6428571428571429,0.8571428571428571,0.0004
735,0.4658123403787613,1.8240811824798584,0.8461538461538461,0.9615384615384616,0.5714285714285714,0.8571428571428571,0.0004
736,0.6618342101573944,2.119229316711426,0.8461538461538461,0.9615384615384616,0.5714285714285714,0.7142857142857143,0.0004
737,0.6208475828170776,1.6266579627990723,0.8269230769230769,0.9038461538461539,0.5714285714285714,0.9285714285714286,0.0004
738,0.4861294776201248,1.8530153036117554,0.8653846153846154,0.9807692307692307,0.6428571428571429,0.7857142857142857,0.0004
739,0.48051658272743225,1.2150441408157349,0.7884615384615384,0.9230769230769231,0.7857142857142857,0.7857142857142857,0.0004
740,0.5811553299427032,1.794957160949707,0.7884615384615384,0.9807692307692307,0.6428571428571429,0.8571428571428571,0.0004
741,0.4410005509853363,2.078928232192993,0.8653846153846154,0.9615384615384616,0.7142857142857143,0.8571428571428571,0.0004
742,0.5148946046829224,1.3897870779037476,0.8461538461538461,0.9807692307692307,0.7857142857142857,0.8571428571428571,0.0004
743,0.436510294675827,1.256072998046875,0.8076923076923077,0.9807692307692307,0.7857142857142857,0.9285714285714286,0.0004
744,0.31683358550071716,0.6839092969894409,0.9038461538461539,0.9807692307692307,0.9285714285714286,0.9285714285714286,0.0004
745,0.46080344915390015,1.2708995342254639,0.8461538461538461,0.9807692307692307,0.7857142857142857,0.8571428571428571,0.0004
746,0.4635326862335205,1.718390941619873,0.8846153846153846,0.9615384615384616,0.7857142857142857,0.7857142857142857,0.0004
747,0.25107885897159576,1.600890874862671,0.9038461538461539,0.9807692307692307,0.8571428571428571,0.8571428571428571,0.0004
748,0.4623136967420578,1.1556085348129272,0.8653846153846154,0.9807692307692307,0.7142857142857143,0.9285714285714286,0.0004
749,0.5501375496387482,1.4559392929077148,0.8269230769230769,0.9807692307692307,0.8571428571428571,0.8571428571428571,0.0004
750,0.3206218034029007,1.4746489524841309,0.8846153846153846,0.9807692307692307,0.7857142857142857,0.8571428571428571,0.0004
751,0.5145311951637268,2.3640172481536865,0.8846153846153846,0.9423076923076923,0.5714285714285714,0.7857142857142857,0.0004
752,0.5696695744991302,0.9229382276535034,0.7884615384615384,1.0,0.9285714285714286,0.9285714285714286,0.0004
753,0.3990935683250427,1.3296390771865845,0.8846153846153846,0.9807692307692307,0.7857142857142857,0.8571428571428571,0.0004
754,0.5408401787281036,1.545056700706482,0.8076923076923077,0.9807692307692307,0.5,0.8571428571428571,0.0004
755,0.4681398272514343,2.1330502033233643,0.8461538461538461,0.9807692307692307,0.5,0.7857142857142857,0.0004
756,0.5020318925380707,0.9649906158447266,0.8269230769230769,0.9615384615384616,0.7857142857142857,0.9285714285714286,0.0004
757,0.532328650355339,0.9681566953659058,0.8653846153846154,0.9807692307692307,0.8571428571428571,0.9285714285714286,0.0004
758,0.3643549382686615,0.8664010763168335,0.9038461538461539,0.9807692307692307,1.0,0.8571428571428571,0.0004
759,0.4638316333293915,1.286137580871582,0.8461538461538461,0.9807692307692307,0.8571428571428571,0.8571428571428571,0.0004
760,0.4883665144443512,0.8367879986763,0.8846153846153846,0.9807692307692307,0.9285714285714286,0.9285714285714286,0.0004
761,0.5462667346000671,0.952311098575592,0.8653846153846154,0.9807692307692307,0.8571428571428571,0.8571428571428571,0.0004
762,0.4185672402381897,1.547926664352417,0.8269230769230769,0.9807692307692307,0.7857142857142857,0.8571428571428571,0.0004
763,0.43177899718284607,0.7706403732299805,0.8269230769230769,1.0,0.9285714285714286,0.9285714285714286,0.0004
764,0.48179031908512115,1.640470027923584,0.8269230769230769,0.9807692307692307,0.6428571428571429,0.9285714285714286,0.0004
765,0.8986511826515198,1.4652595520019531,0.6730769230769231,0.9230769230769231,0.7142857142857143,0.9285714285714286,0.0004
766,0.38074681907892227,1.074516773223877,0.8846153846153846,0.9423076923076923,0.8571428571428571,0.9285714285714286,0.0004
767,0.4507441967725754,1.760488748550415,0.8846153846153846,0.9807692307692307,0.7142857142857143,0.8571428571428571,0.0004
768,0.2750811278820038,1.1371747255325317,0.9230769230769231,0.9807692307692307,0.7142857142857143,0.8571428571428571,0.0004
769,0.3505827710032463,1.126453161239624,0.8653846153846154,0.9615384615384616,0.7857142857142857,0.8571428571428571,0.0004
770,0.31423987448215485,1.363215446472168,0.9038461538461539,1.0,0.7857142857142857,0.7857142857142857,0.0004
771,0.49337761104106903,0.946183443069458,0.8461538461538461,0.9615384615384616,0.8571428571428571,0.9285714285714286,0.0004
772,0.5161281228065491,1.1008985042572021,0.8076923076923077,0.9807692307692307,0.7857142857142857,0.9285714285714286,0.0004
773,0.5140017569065094,1.3182353973388672,0.8269230769230769,0.9807692307692307,0.7142857142857143,0.9285714285714286,0.0004
774,0.463032528758049,1.525984525680542,0.8269230769230769,0.9807692307692307,0.7857142857142857,0.7857142857142857,0.0004
775,0.581275463104248,1.901139259338379,0.7884615384615384,0.9230769230769231,0.5714285714285714,0.8571428571428571,0.0004
776,0.6283598691225052,0.8170596957206726,0.7884615384615384,0.9423076923076923,0.8571428571428571,0.9285714285714286,0.0004
777,0.4011015146970749,1.6048150062561035,0.8076923076923077,0.9807692307692307,0.7857142857142857,0.8571428571428571,0.0004
778,0.566885232925415,2.0358691215515137,0.8269230769230769,0.9807692307692307,0.7142857142857143,0.8571428571428571,0.0004
779,0.38089698553085327,1.361694097518921,0.8461538461538461,0.9807692307692307,0.7142857142857143,0.9285714285714286,0.0004
780,0.45209041237831116,0.951280951499939,0.8653846153846154,0.9807692307692307,0.8571428571428571,0.9285714285714286,0.0004
781,0.5497963428497314,1.496420979499817,0.75,0.9807692307692307,0.5714285714285714,0.9285714285714286,0.0004
782,0.3284457102417946,1.3153663873672485,0.8653846153846154,1.0,0.7857142857142857,0.9285714285714286,0.0004
783,0.3759249895811081,0.9697433710098267,0.8461538461538461,0.9423076923076923,0.7857142857142857,0.9285714285714286,0.0004
784,0.4397040605545044,1.4811561107635498,0.8461538461538461,1.0,0.7142857142857143,0.9285714285714286,0.0004
785,0.38011622428894043,0.9066519737243652,0.8269230769230769,1.0,0.9285714285714286,0.8571428571428571,0.0004
786,0.48371046781539917,0.6132550835609436,0.7884615384615384,1.0,1.0,0.9285714285714286,0.0004
787,0.420036256313324,2.067378282546997,0.8461538461538461,0.9807692307692307,0.5714285714285714,0.8571428571428571,0.0004
788,0.4706036299467087,1.2044599056243896,0.8653846153846154,1.0,0.7857142857142857,0.8571428571428571,0.0004
789,0.5499600023031235,0.8556271195411682,0.8269230769230769,0.9423076923076923,0.9285714285714286,0.9285714285714286,0.0004
790,0.31028003990650177,1.6322805881500244,0.9230769230769231,0.9807692307692307,0.7142857142857143,0.8571428571428571,0.0004
791,0.9525575637817383,0.9119322299957275,0.7115384615384616,0.9038461538461539,0.7857142857142857,0.9285714285714286,0.0004
792,0.4143485724925995,1.1344130039215088,0.8461538461538461,0.9807692307692307,0.9285714285714286,0.8571428571428571,0.0004
793,0.4706566631793976,1.0389940738677979,0.8269230769230769,1.0,0.7142857142857143,0.9285714285714286,0.0004
794,0.7547120302915573,1.861778974533081,0.8269230769230769,0.9423076923076923,0.7142857142857143,0.8571428571428571,0.0004
795,0.4952622056007385,0.8426270484924316,0.8269230769230769,0.9807692307692307,0.7857142857142857,0.9285714285714286,0.0004
796,0.28758572041988373,1.1726347208023071,0.9038461538461539,0.9807692307692307,0.7857142857142857,0.9285714285714286,0.0004
797,0.5840018391609192,1.4083914756774902,0.8076923076923077,0.9615384615384616,0.7857142857142857,0.8571428571428571,0.0004
798,0.6185573637485504,0.9535747170448303,0.8076923076923077,0.9423076923076923,0.9285714285714286,0.9285714285714286,0.0004
799,0.44892531633377075,1.6099627017974854,0.8846153846153846,0.9423076923076923,0.7857142857142857,0.8571428571428571,0.0004
800,0.5639083832502365,1.140390157699585,0.8076923076923077,0.9615384615384616,0.8571428571428571,0.8571428571428571,0.0004
801,0.5350881963968277,0.8537253141403198,0.8461538461538461,0.9423076923076923,0.8571428571428571,0.8571428571428571,0.0004
802,0.3908611536026001,1.3203715085983276,0.8461538461538461,0.9615384615384616,0.7857142857142857,0.8571428571428571,0.0004
803,0.5680444240570068,1.7054190635681152,0.8269230769230769,0.9230769230769231,0.5714285714285714,0.8571428571428571,0.0004
804,0.6806734204292297,0.7394357323646545,0.7884615384615384,0.9230769230769231,0.9285714285714286,0.9285714285714286,0.0004
805,0.37619394063949585,0.9596246480941772,0.9038461538461539,0.9807692307692307,0.9285714285714286,0.8571428571428571,0.0004
806,0.5253756940364838,0.9296648502349854,0.8076923076923077,0.9807692307692307,0.8571428571428571,0.8571428571428571,0.0004
807,0.5068962126970291,1.4265291690826416,0.8076923076923077,0.9423076923076923,0.6428571428571429,0.8571428571428571,0.0004
808,0.5851469337940216,1.2323391437530518,0.8269230769230769,0.9807692307692307,0.7857142857142857,0.7857142857142857,0.0004
809,0.367957666516304,1.1976810693740845,0.8846153846153846,0.9807692307692307,0.7857142857142857,0.8571428571428571,0.0004
810,0.7998269200325012,1.293543815612793,0.7884615384615384,0.9615384615384616,0.5714285714285714,0.9285714285714286,0.0004
811,0.5276485830545425,1.1566367149353027,0.8653846153846154,0.9807692307692307,0.7142857142857143,0.9285714285714286,0.0004
812,0.5164645165205002,1.6338467597961426,0.7884615384615384,0.9423076923076923,0.7142857142857143,0.8571428571428571,0.0004
813,0.24530063569545746,2.026052713394165,0.9423076923076923,1.0,0.6428571428571429,0.8571428571428571,0.0004
814,0.6307709813117981,1.3276901245117188,0.7692307692307693,1.0,0.7142857142857143,0.8571428571428571,0.0004
815,0.8058623671531677,0.7679048180580139,0.8076923076923077,0.9230769230769231,0.7857142857142857,0.8571428571428571,0.0004
816,0.4201313853263855,1.2027157545089722,0.7884615384615384,0.9807692307692307,0.7857142857142857,0.8571428571428571,0.0004
817,0.504377081990242,1.0269068479537964,0.8461538461538461,0.9615384615384616,0.7142857142857143,0.8571428571428571,0.0004
818,0.6554611772298813,0.7226016521453857,0.7307692307692307,0.9038461538461539,0.9285714285714286,0.9285714285714286,0.0004
819,0.349072590470314,1.247293472290039,0.8846153846153846,1.0,0.7142857142857143,0.8571428571428571,0.0004
820,0.6219546943902969,1.1917452812194824,0.75,0.9615384615384616,0.8571428571428571,0.8571428571428571,0.0004
821,0.4435887932777405,1.3731415271759033,0.8076923076923077,0.9807692307692307,0.7857142857142857,0.8571428571428571,0.0004
822,0.32535116374492645,1.2644381523132324,0.8653846153846154,0.9807692307692307,0.7857142857142857,0.9285714285714286,0.0004
823,0.5953511744737625,1.1965510845184326,0.8076923076923077,0.9807692307692307,0.8571428571428571,0.9285714285714286,0.0004
824,0.3214414417743683,1.113671898841858,0.9038461538461539,0.9807692307692307,0.7142857142857143,0.9285714285714286,0.0004
825,0.46992960572242737,1.4474315643310547,0.7884615384615384,0.9807692307692307,0.7142857142857143,0.8571428571428571,0.0004
826,0.39529313147068024,1.7214710712432861,0.8653846153846154,1.0,0.7857142857142857,0.8571428571428571,0.0004
827,0.39811259508132935,1.4811303615570068,0.8461538461538461,0.9807692307692307,0.6428571428571429,0.9285714285714286,0.0004
828,0.5569766163825989,1.178770661354065,0.8076923076923077,0.9230769230769231,0.7857142857142857,0.9285714285714286,0.0004
829,0.5396927893161774,0.9777407646179199,0.8653846153846154,0.9615384615384616,0.8571428571428571,0.9285714285714286,0.0004
830,0.8297825902700424,1.1113978624343872,0.8076923076923077,0.9038461538461539,0.8571428571428571,0.8571428571428571,0.0004
831,0.4719122499227524,1.5021755695343018,0.8076923076923077,0.9807692307692307,0.5714285714285714,0.8571428571428571,0.0004
832,0.5053866803646088,1.050816297531128,0.9038461538461539,0.9615384615384616,0.7857142857142857,0.9285714285714286,0.0004
833,0.3617941588163376,1.2983577251434326,0.8846153846153846,0.9807692307692307,0.8571428571428571,0.7857142857142857,0.0004
834,0.7121440172195435,1.1724765300750732,0.75,0.9423076923076923,0.8571428571428571,0.8571428571428571,0.0004
835,0.4870186150074005,1.0372896194458008,0.8461538461538461,0.9423076923076923,0.7857142857142857,0.9285714285714286,0.0004
836,0.441680446267128,1.5873634815216064,0.9038461538461539,0.9615384615384616,0.7142857142857143,0.8571428571428571,0.0004
837,0.366540789604187,1.3157715797424316,0.9038461538461539,1.0,0.8571428571428571,0.9285714285714286,0.0004
838,0.4367423951625824,1.2395813465118408,0.8269230769230769,0.9807692307692307,0.7857142857142857,0.8571428571428571,0.0004
839,0.2815884053707123,0.9402542114257812,0.8846153846153846,0.9807692307692307,0.7857142857142857,0.9285714285714286,0.0004
840,0.45188212394714355,1.4467556476593018,0.8269230769230769,0.9807692307692307,0.6428571428571429,0.8571428571428571,0.0004
841,0.32666996121406555,0.9320250749588013,0.9038461538461539,0.9807692307692307,0.8571428571428571,0.8571428571428571,0.0004
842,0.3029763251543045,0.8225575089454651,0.9423076923076923,1.0,0.9285714285714286,0.8571428571428571,0.0004
843,0.31938906013965607,0.9493056535720825,0.9230769230769231,1.0,0.7857142857142857,0.9285714285714286,0.0004
844,0.34400254487991333,1.0106956958770752,0.8846153846153846,0.9807692307692307,0.9285714285714286,0.9285714285714286,0.0004
845,0.4766705185174942,1.5485552549362183,0.8076923076923077,0.9615384615384616,0.7857142857142857,0.7857142857142857,0.0004
846,0.35932955145835876,1.0251518487930298,0.8653846153846154,0.9807692307692307,0.9285714285714286,0.9285714285714286,0.0004
847,0.40183913707733154,0.8560819625854492,0.8846153846153846,0.9423076923076923,0.9285714285714286,0.9285714285714286,0.0004
848,0.4211522042751312,1.2515029907226562,0.8076923076923077,0.9615384615384616,0.7857142857142857,0.7857142857142857,0.0004
849,0.3073778972029686,1.4814571142196655,0.8653846153846154,0.9807692307692307,0.7857142857142857,0.8571428571428571,0.0004
850,0.3954347223043442,1.0703115463256836,0.8076923076923077,0.9807692307692307,0.8571428571428571,0.9285714285714286,0.0004
851,0.5243979096412659,1.0256156921386719,0.8653846153846154,0.9615384615384616,0.7857142857142857,0.9285714285714286,0.0004
852,0.4236597865819931,1.3124536275863647,0.8076923076923077,0.9423076923076923,0.7142857142857143,0.8571428571428571,0.0004
853,0.4246673285961151,1.2143330574035645,0.8846153846153846,0.9615384615384616,0.7142857142857143,0.8571428571428571,0.0004
854,0.33928535878658295,1.5595000982284546,0.8653846153846154,0.9807692307692307,0.6428571428571429,0.7142857142857143,0.0004
855,0.25407835841178894,1.205045461654663,0.9423076923076923,0.9807692307692307,0.8571428571428571,0.8571428571428571,0.0004
856,0.41320157051086426,1.0399987697601318,0.8846153846153846,0.9615384615384616,0.7142857142857143,0.9285714285714286,0.0004
857,0.5175383687019348,1.6555100679397583,0.8269230769230769,0.9807692307692307,0.8571428571428571,0.8571428571428571,0.0004
858,0.4304177463054657,1.8317553997039795,0.8269230769230769,0.9423076923076923,0.7857142857142857,0.7857142857142857,0.0004
859,0.7739947885274887,0.8487932085990906,0.8076923076923077,0.9230769230769231,0.7857142857142857,0.9285714285714286,0.0004
860,0.26409224420785904,1.0017608404159546,0.9038461538461539,1.0,0.7857142857142857,0.9285714285714286,0.0004
861,0.27537284046411514,1.069495677947998,0.8846153846153846,0.9615384615384616,0.9285714285714286,0.9285714285714286,0.0004
862,0.5969874262809753,0.8964893817901611,0.8461538461538461,0.9038461538461539,0.8571428571428571,0.8571428571428571,0.0004
863,0.36077168583869934,0.8074337244033813,0.8846153846153846,0.9807692307692307,0.8571428571428571,0.8571428571428571,0.0004
864,0.4164668917655945,1.3632514476776123,0.8653846153846154,0.9807692307692307,0.7857142857142857,0.9285714285714286,0.0004
865,0.3953655883669853,1.8872625827789307,0.8846153846153846,0.9807692307692307,0.7142857142857143,0.8571428571428571,0.0004
866,0.4769299030303955,1.265572428703308,0.8653846153846154,0.9615384615384616,0.7857142857142857,0.8571428571428571,0.0004
867,0.4784518778324127,0.8740204572677612,0.9038461538461539,0.9423076923076923,0.8571428571428571,0.9285714285714286,0.0004
868,0.37384718656539917,0.9102019667625427,0.8461538461538461,0.9615384615384616,0.7857142857142857,0.9285714285714286,0.0004
869,0.5319957435131073,1.5211279392242432,0.7884615384615384,0.9615384615384616,0.7142857142857143,0.9285714285714286,0.0004
870,0.3544650822877884,1.1358486413955688,0.8461538461538461,0.9615384615384616,0.9285714285714286,0.7857142857142857,0.0004
871,0.4234568625688553,0.8435258269309998,0.8653846153846154,0.9807692307692307,0.9285714285714286,0.9285714285714286,0.0004
872,0.6062827110290527,0.8810569047927856,0.75,0.9807692307692307,0.9285714285714286,0.9285714285714286,0.0004
873,0.69325190782547,0.8916194438934326,0.7884615384615384,0.9230769230769231,0.8571428571428571,0.9285714285714286,0.0004
874,0.39261583983898163,1.2829246520996094,0.8461538461538461,0.9807692307692307,0.7857142857142857,0.9285714285714286,0.0004
875,0.27496593445539474,0.9890792369842529,0.8846153846153846,1.0,0.8571428571428571,0.9285714285714286,0.0004
876,0.41039252281188965,2.017866611480713,0.8846153846153846,0.9615384615384616,0.7857142857142857,0.8571428571428571,0.0004
877,0.2872674763202667,0.6833839416503906,0.9038461538461539,0.9807692307692307,0.9285714285714286,0.9285714285714286,0.0004
878,0.5743683576583862,1.2690625190734863,0.8076923076923077,0.9807692307692307,0.7857142857142857,0.8571428571428571,0.0004
879,0.42288433015346527,1.3126955032348633,0.8461538461538461,0.9807692307692307,0.8571428571428571,0.7857142857142857,0.0004
880,0.33619076013565063,1.599677562713623,0.8846153846153846,0.9807692307692307,0.7142857142857143,0.8571428571428571,0.0004
881,0.5746909230947495,1.2361927032470703,0.8076923076923077,0.9615384615384616,0.9285714285714286,0.9285714285714286,0.0004
882,0.4610564261674881,1.503415584564209,0.8653846153846154,0.9615384615384616,0.6428571428571429,0.9285714285714286,0.0004
883,0.4993623197078705,0.9254125952720642,0.8653846153846154,0.9615384615384616,0.8571428571428571,0.9285714285714286,0.0004
884,0.3506558761000633,0.887234628200531,0.9038461538461539,1.0,0.8571428571428571,0.9285714285714286,0.0004
885,0.47155575454235077,1.0686969757080078,0.8269230769230769,0.9807692307692307,0.8571428571428571,0.9285714285714286,0.0004
886,0.5342008471488953,1.649154782295227,0.7884615384615384,0.9807692307692307,0.6428571428571429,0.8571428571428571,0.0004
887,0.41660672426223755,1.4160438776016235,0.8269230769230769,0.9807692307692307,0.7857142857142857,0.9285714285714286,0.0004
888,0.5570801198482513,1.2802321910858154,0.7884615384615384,0.9615384615384616,0.7857142857142857,0.8571428571428571,0.0004
889,0.3899601548910141,1.9148989915847778,0.8846153846153846,0.9615384615384616,0.5714285714285714,0.7857142857142857,0.0004
890,0.606232225894928,1.2051305770874023,0.8269230769230769,0.9807692307692307,0.8571428571428571,0.9285714285714286,0.0004
891,0.3561713397502899,1.3001431226730347,0.8653846153846154,0.9807692307692307,0.7857142857142857,0.9285714285714286,0.0004
892,0.5748787373304367,1.1910743713378906,0.8269230769230769,0.9423076923076923,0.7142857142857143,0.8571428571428571,0.0004
893,0.3330506831407547,1.775348424911499,0.9038461538461539,0.9807692307692307,0.7142857142857143,0.7857142857142857,0.0004
894,0.6365876197814941,1.5966300964355469,0.8269230769230769,0.9615384615384616,0.7857142857142857,0.8571428571428571,0.0004
895,0.46726052463054657,1.8074920177459717,0.8846153846153846,0.9423076923076923,0.8571428571428571,0.8571428571428571,0.0004
896,0.40503355860710144,1.6254075765609741,0.8846153846153846,0.9615384615384616,0.7142857142857143,0.8571428571428571,0.0004
897,0.48863519728183746,1.5486247539520264,0.8653846153846154,0.9807692307692307,0.7142857142857143,0.7857142857142857,0.0004
898,0.7678128182888031,1.3117796182632446,0.8076923076923077,0.9615384615384616,0.7857142857142857,0.8571428571428571,0.0004
899,0.6864018738269806,1.5205583572387695,0.8269230769230769,0.9423076923076923,0.7857142857142857,0.7857142857142857,0.0004
900,0.252295158803463,0.9214186668395996,0.9615384615384616,1.0,0.8571428571428571,0.9285714285714286,0.0004
901,0.448089137673378,1.021357774734497,0.8653846153846154,0.9615384615384616,0.7142857142857143,0.8571428571428571,0.0004
902,0.35540056228637695,1.5773346424102783,0.8653846153846154,0.9615384615384616,0.5714285714285714,0.7857142857142857,0.0004
903,0.36880700290203094,1.5075106620788574,0.8846153846153846,0.9807692307692307,0.7142857142857143,0.8571428571428571,0.0004
904,0.34462763369083405,1.0029346942901611,0.8461538461538461,1.0,0.8571428571428571,0.8571428571428571,0.0004
905,0.49579955637454987,1.205549955368042,0.8076923076923077,0.9615384615384616,0.8571428571428571,0.7857142857142857,0.0004
906,0.3733808696269989,0.8652476072311401,0.9230769230769231,0.9807692307692307,0.8571428571428571,0.9285714285714286,0.0004
907,0.3163428157567978,0.762088418006897,0.9230769230769231,1.0,0.9285714285714286,0.9285714285714286,0.0004
908,0.3997858315706253,0.7218099236488342,0.8846153846153846,0.9615384615384616,0.7857142857142857,0.9285714285714286,0.0004
909,0.4085859954357147,0.9142300486564636,0.8846153846153846,1.0,0.7857142857142857,0.8571428571428571,0.0004
910,0.3601854145526886,0.8299031257629395,0.8653846153846154,0.9615384615384616,0.8571428571428571,0.9285714285714286,0.0004
911,0.375962570309639,1.0129170417785645,0.8653846153846154,0.9807692307692307,0.7857142857142857,0.9285714285714286,0.0004
912,0.46518512070178986,0.959735631942749,0.8269230769230769,0.9615384615384616,0.7857142857142857,0.9285714285714286,0.0004
913,0.3639907091856003,1.3682425022125244,0.8653846153846154,0.9807692307692307,0.7857142857142857,0.8571428571428571,0.0004
914,0.4986742287874222,1.1716082096099854,0.8461538461538461,0.9807692307692307,0.7857142857142857,0.8571428571428571,0.0004
915,0.34522657096385956,1.5406818389892578,0.8653846153846154,1.0,0.7142857142857143,0.8571428571428571,0.0004
916,0.3868456780910492,1.3668667078018188,0.8846153846153846,0.9615384615384616,0.6428571428571429,0.9285714285714286,0.0004
917,0.4686955213546753,1.0526206493377686,0.8653846153846154,1.0,0.8571428571428571,0.9285714285714286,0.0004
918,0.6361694037914276,0.7463576793670654,0.7884615384615384,0.9423076923076923,0.7857142857142857,0.8571428571428571,0.0004
919,0.3500209003686905,1.244063377380371,0.9038461538461539,0.9807692307692307,0.6428571428571429,0.8571428571428571,0.0004
920,0.21564503759145737,2.225499391555786,0.9230769230769231,1.0,0.7857142857142857,0.7857142857142857,0.0004
921,0.43346892297267914,1.0245683193206787,0.9038461538461539,1.0,0.8571428571428571,0.9285714285714286,0.0004
922,0.3957569748163223,1.0563194751739502,0.8461538461538461,1.0,0.8571428571428571,0.9285714285714286,0.0004
923,0.3811885267496109,1.1089942455291748,0.7884615384615384,0.9807692307692307,0.8571428571428571,0.9285714285714286,0.0004
924,0.37146948277950287,1.7992243766784668,0.9038461538461539,0.9615384615384616,0.7857142857142857,0.8571428571428571,0.0004
925,0.5637278258800507,1.4044095277786255,0.8653846153846154,0.9807692307692307,0.6428571428571429,0.9285714285714286,0.0004
926,0.45422595739364624,1.1674952507019043,0.8461538461538461,0.9615384615384616,0.7857142857142857,0.9285714285714286,0.0004
927,0.6534135043621063,1.8027286529541016,0.8461538461538461,0.9423076923076923,0.7857142857142857,0.7857142857142857,0.0004
928,0.4391278177499771,0.9102078676223755,0.8076923076923077,0.9423076923076923,0.8571428571428571,0.9285714285714286,0.0004
929,0.41402003169059753,1.6042425632476807,0.8461538461538461,0.9807692307692307,0.6428571428571429,0.8571428571428571,0.0004
930,0.2980223447084427,1.48405921459198,0.8653846153846154,1.0,0.7857142857142857,0.9285714285714286,0.0004
931,0.5663380920886993,1.2824416160583496,0.8461538461538461,0.9615384615384616,0.7857142857142857,0.8571428571428571,0.0004
932,0.33410488814115524,0.8531896471977234,0.9038461538461539,1.0,0.9285714285714286,0.9285714285714286,0.0004
933,0.4974006116390228,2.0332963466644287,0.7692307692307693,0.9807692307692307,0.7857142857142857,0.8571428571428571,0.0004
934,0.32214052975177765,1.089800477027893,0.8846153846153846,1.0,0.7142857142857143,0.9285714285714286,0.0004
935,0.5892845392227173,0.9014151096343994,0.8269230769230769,0.9807692307692307,0.8571428571428571,0.9285714285714286,0.0004
936,0.44404684007167816,1.225008487701416,0.9230769230769231,0.9807692307692307,0.8571428571428571,0.8571428571428571,0.0004
937,0.5438174456357956,1.248209834098816,0.8846153846153846,0.9615384615384616,0.7857142857142857,0.9285714285714286,0.0004
938,0.3786464035511017,0.9264184236526489,0.8653846153846154,0.9807692307692307,0.9285714285714286,0.9285714285714286,0.0004
939,0.3558538928627968,1.951425552368164,0.8653846153846154,0.9615384615384616,0.7142857142857143,0.7857142857142857,0.0004
940,0.35192887485027313,0.967309296131134,0.8653846153846154,0.9807692307692307,0.9285714285714286,0.9285714285714286,0.0004
941,0.5807452201843262,1.1031688451766968,0.8269230769230769,0.9807692307692307,0.7857142857142857,0.9285714285714286,0.0004
942,0.671693354845047,1.021085262298584,0.7884615384615384,0.9615384615384616,0.8571428571428571,0.9285714285714286,0.0004
943,0.4995456039905548,1.3839999437332153,0.7692307692307693,1.0,0.7142857142857143,0.8571428571428571,0.0004
944,0.2189180701971054,2.1969146728515625,0.9230769230769231,1.0,0.7142857142857143,0.7142857142857143,0.0004
945,0.5370689630508423,1.5265694856643677,0.8653846153846154,0.9615384615384616,0.6428571428571429,0.9285714285714286,0.0004
946,0.42655374109745026,1.2864803075790405,0.8846153846153846,0.9423076923076923,0.7142857142857143,0.8571428571428571,0.0004
947,0.38958707451820374,1.9945261478424072,0.8653846153846154,1.0,0.7142857142857143,0.8571428571428571,0.0004
948,0.33869797736406326,0.5534604787826538,0.8846153846153846,1.0,0.8571428571428571,0.9285714285714286,0.0004
949,0.27113062143325806,1.0004136562347412,0.9038461538461539,1.0,0.7857142857142857,0.9285714285714286,0.0004
950,0.40963441133499146,1.4363079071044922,0.8846153846153846,1.0,0.7857142857142857,0.8571428571428571,0.0004
951,0.2660946771502495,2.1888070106506348,0.9038461538461539,1.0,0.7142857142857143,0.7857142857142857,0.0004
952,0.5433255508542061,1.0013294219970703,0.8461538461538461,0.9807692307692307,0.7857142857142857,0.8571428571428571,0.0004
953,0.5214239656925201,1.3586399555206299,0.8269230769230769,0.9807692307692307,0.7857142857142857,0.8571428571428571,0.0004
954,0.40897372364997864,1.1139118671417236,0.8846153846153846,0.9807692307692307,0.8571428571428571,0.8571428571428571,0.0004
955,0.31148070096969604,1.7752978801727295,0.9038461538461539,1.0,0.7142857142857143,0.8571428571428571,0.0004
956,0.2944914624094963,0.797142505645752,0.9423076923076923,0.9807692307692307,0.9285714285714286,0.9285714285714286,0.0004
957,0.5029027909040451,1.9106944799423218,0.8461538461538461,0.9615384615384616,0.5714285714285714,0.8571428571428571,0.0004
958,0.42877116799354553,1.518284797668457,0.8653846153846154,0.9807692307692307,0.6428571428571429,0.8571428571428571,0.0004
959,0.34897710382938385,0.746758222579956,0.9230769230769231,1.0,0.9285714285714286,0.9285714285714286,0.0004
960,0.5128340274095535,0.9024728536605835,0.8653846153846154,0.9807692307692307,0.8571428571428571,0.8571428571428571,0.0004
961,0.48214492201805115,1.2367615699768066,0.8461538461538461,0.9423076923076923,0.7142857142857143,0.9285714285714286,0.0004
962,0.29572097957134247,1.7466096878051758,0.9038461538461539,1.0,0.7142857142857143,0.8571428571428571,0.0004
963,0.47351033985614777,1.0429307222366333,0.8846153846153846,0.9615384615384616,0.7142857142857143,0.9285714285714286,0.0004
964,0.5963458716869354,1.8952460289001465,0.8461538461538461,0.9807692307692307,0.7142857142857143,0.7857142857142857,0.0004
965,0.5360225290060043,0.7565970420837402,0.8461538461538461,1.0,0.8571428571428571,0.9285714285714286,0.0004
966,0.22667938470840454,0.9870401620864868,0.9230769230769231,1.0,0.8571428571428571,0.9285714285714286,0.0004
967,0.34345875680446625,1.2682812213897705,0.9038461538461539,0.9807692307692307,0.7857142857142857,0.8571428571428571,0.0004
968,0.3960292786359787,1.9759800434112549,0.8653846153846154,0.9615384615384616,0.6428571428571429,0.9285714285714286,0.0004
969,0.46973849833011627,1.6940360069274902,0.8461538461538461,1.0,0.7857142857142857,0.8571428571428571,0.0004
970,0.40016433596611023,1.6955859661102295,0.8269230769230769,0.9615384615384616,0.8571428571428571,0.8571428571428571,0.0004
971,0.5561310946941376,1.6942288875579834,0.75,0.9807692307692307,0.6428571428571429,0.8571428571428571,0.0004
972,0.42100031673908234,1.1746147871017456,0.8653846153846154,1.0,0.6428571428571429,0.9285714285714286,0.0004
973,0.3522530645132065,1.0626157522201538,0.8653846153846154,0.9807692307692307,0.7857142857142857,0.8571428571428571,0.0004
974,0.31015917658805847,1.1200060844421387,0.9230769230769231,0.9807692307692307,0.7857142857142857,0.8571428571428571,0.0004
975,0.392384797334671,1.0153558254241943,0.8653846153846154,1.0,0.8571428571428571,0.8571428571428571,0.0004
976,0.5112985372543335,1.293511986732483,0.8461538461538461,0.9615384615384616,0.7857142857142857,0.8571428571428571,0.0004
977,0.39904555678367615,0.9478960037231445,0.8653846153846154,0.9807692307692307,0.9285714285714286,0.9285714285714286,0.0004
978,0.5799614787101746,1.5009164810180664,0.8076923076923077,0.9615384615384616,0.7142857142857143,0.9285714285714286,0.0004
979,0.4729152023792267,1.9739298820495605,0.7692307692307693,0.9615384615384616,0.5714285714285714,0.8571428571428571,0.0004
980,0.3491528779268265,1.48685622215271,0.8461538461538461,0.9615384615384616,0.8571428571428571,0.9285714285714286,0.0004
981,0.3757997006177902,2.1115543842315674,0.8846153846153846,0.9807692307692307,0.6428571428571429,0.7857142857142857,0.0004
982,0.5757823586463928,2.226762294769287,0.7692307692307693,0.9807692307692307,0.5714285714285714,0.8571428571428571,0.0004
983,0.412890300154686,1.8149940967559814,0.8653846153846154,0.9807692307692307,0.6428571428571429,0.8571428571428571,0.0004
984,0.45083796977996826,0.7995625138282776,0.8653846153846154,0.9807692307692307,0.9285714285714286,0.9285714285714286,0.0004
985,0.4148169904947281,0.5939297080039978,0.8461538461538461,0.9807692307692307,1.0,0.9285714285714286,0.0004
986,0.47131554782390594,2.0890142917633057,0.7692307692307693,1.0,0.6428571428571429,0.8571428571428571,0.0004
987,0.37148021161556244,0.9711708426475525,0.8269230769230769,0.9807692307692307,0.8571428571428571,0.9285714285714286,0.0004
988,0.5792773962020874,2.195830821990967,0.8269230769230769,0.9807692307692307,0.5714285714285714,0.7142857142857143,0.0004
989,0.3675419092178345,0.8557296395301819,0.8461538461538461,0.9615384615384616,0.9285714285714286,0.9285714285714286,0.0004
990,0.455141618847847,1.2368282079696655,0.8653846153846154,0.9807692307692307,0.7142857142857143,0.9285714285714286,0.0004
991,0.38533560931682587,1.5111525058746338,0.8653846153846154,1.0,0.7142857142857143,0.8571428571428571,0.0004
992,0.5642681568861008,2.180795431137085,0.8461538461538461,0.9807692307692307,0.6428571428571429,0.7857142857142857,0.0004
993,0.2553972601890564,1.716954231262207,0.9230769230769231,1.0,0.5714285714285714,0.7857142857142857,0.0004
994,0.45223936438560486,1.1462055444717407,0.8461538461538461,0.9423076923076923,0.7857142857142857,0.8571428571428571,0.0004
995,0.7000502645969391,1.386455774307251,0.7884615384615384,0.9423076923076923,0.7142857142857143,0.9285714285714286,0.0004
996,0.8172119855880737,1.4302644729614258,0.8269230769230769,0.9423076923076923,0.5714285714285714,0.8571428571428571,0.0004
997,0.7731142640113831,1.0829668045043945,0.7692307692307693,0.9423076923076923,0.6428571428571429,0.9285714285714286,0.0004
