epoch,train_loss,val_loss,train_acc_action,train_acc_status,val_acc_action,val_acc_status,learning_rate
1,1.6709541082382202,1.5183409452438354,0.2692307692307692,0.8269230769230769,0.35714285714285715,0.8571428571428571,0.0004
2,1.588015377521515,1.556045651435852,0.2692307692307692,0.8269230769230769,0.21428571428571427,0.8571428571428571,0.0004
3,1.675923228263855,1.5817065238952637,0.36538461538461536,0.8269230769230769,0.21428571428571427,0.8571428571428571,0.0004
4,1.5785518884658813,1.5402907133102417,0.36538461538461536,0.8269230769230769,0.21428571428571427,0.8571428571428571,0.0004
5,1.563652217388153,1.523020625114441,0.38461538461538464,0.8269230769230769,0.21428571428571427,0.8571428571428571,0.0004
6,1.591929852962494,1.516781210899353,0.34615384615384615,0.8269230769230769,0.42857142857142855,0.8571428571428571,0.0004
7,1.5577162504196167,1.52919340133667,0.25,0.8269230769230769,0.21428571428571427,0.8571428571428571,0.0004
8,1.561983585357666,1.54689359664917,0.34615384615384615,0.8269230769230769,0.21428571428571427,0.8571428571428571,0.0004
9,1.5559279918670654,1.5566918849945068,0.3269230769230769,0.8269230769230769,0.21428571428571427,0.8571428571428571,0.0004
10,1.5653406977653503,1.5648199319839478,0.34615384615384615,0.8269230769230769,0.21428571428571427,0.8571428571428571,0.0004
11,1.5582022070884705,1.565714716911316,0.36538461538461536,0.8269230769230769,0.21428571428571427,0.8571428571428571,0.0004
12,1.5647356510162354,1.5557806491851807,0.36538461538461536,0.8269230769230769,0.21428571428571427,0.8571428571428571,0.0004
13,1.5359315872192383,1.5478519201278687,0.36538461538461536,0.8269230769230769,0.21428571428571427,0.8571428571428571,0.0004
14,1.519251823425293,1.5410290956497192,0.36538461538461536,0.8269230769230769,0.21428571428571427,0.8571428571428571,0.0004
15,1.5209136605262756,1.5327228307724,0.36538461538461536,0.8269230769230769,0.21428571428571427,0.8571428571428571,0.0004
16,1.5822212100028992,1.526604413986206,0.36538461538461536,0.8269230769230769,0.21428571428571427,0.8571428571428571,0.0004
17,1.5555665493011475,1.5212348699569702,0.36538461538461536,0.8269230769230769,0.21428571428571427,0.8571428571428571,0.0004
18,1.5360361337661743,1.518439769744873,0.36538461538461536,0.8269230769230769,0.21428571428571427,0.8571428571428571,0.0004
19,1.561065673828125,1.5173654556274414,0.3269230769230769,0.8269230769230769,0.21428571428571427,0.8571428571428571,0.0004
20,1.607093870639801,1.5244756937026978,0.2692307692307692,0.8269230769230769,0.21428571428571427,0.8571428571428571,0.0004
21,1.5639322400093079,1.5286742448806763,0.3269230769230769,0.8269230769230769,0.21428571428571427,0.8571428571428571,0.0004
22,1.5306569337844849,1.5403605699539185,0.34615384615384615,0.8269230769230769,0.21428571428571427,0.8571428571428571,0.0004
23,1.567753255367279,1.5507917404174805,0.36538461538461536,0.8269230769230769,0.21428571428571427,0.8571428571428571,0.0004
24,1.5457051396369934,1.558121919631958,0.38461538461538464,0.8269230769230769,0.21428571428571427,0.8571428571428571,0.0004
25,1.6138850450515747,1.5597236156463623,0.36538461538461536,0.8269230769230769,0.21428571428571427,0.8571428571428571,0.0004
26,1.55254328250885,1.559819221496582,0.36538461538461536,0.8269230769230769,0.21428571428571427,0.8571428571428571,0.0004
27,1.5471745729446411,1.5553162097930908,0.36538461538461536,0.8269230769230769,0.21428571428571427,0.8571428571428571,0.0004
28,1.558793842792511,1.5495234727859497,0.36538461538461536,0.8269230769230769,0.21428571428571427,0.8571428571428571,0.0004
29,1.5830346941947937,1.5403056144714355,0.36538461538461536,0.8269230769230769,0.21428571428571427,0.8571428571428571,0.0004
30,1.538489282131195,1.5297996997833252,0.34615384615384615,0.8269230769230769,0.21428571428571427,0.8571428571428571,0.0004
31,1.5653992891311646,1.5197279453277588,0.3269230769230769,0.8269230769230769,0.21428571428571427,0.8571428571428571,0.0004
32,1.5508044362068176,1.5155673027038574,0.40384615384615385,0.8269230769230769,0.21428571428571427,0.8571428571428571,0.0004
33,1.550756573677063,1.5123498439788818,0.46153846153846156,0.8269230769230769,0.21428571428571427,0.8571428571428571,0.0004
34,1.5786850452423096,1.512795329093933,0.3269230769230769,0.8269230769230769,0.21428571428571427,0.8571428571428571,0.0004
35,1.538191556930542,1.5150398015975952,0.38461538461538464,0.8269230769230769,0.21428571428571427,0.8571428571428571,0.0004
36,1.5591492652893066,1.5204695463180542,0.3269230769230769,0.8269230769230769,0.21428571428571427,0.8571428571428571,0.0004
37,1.5528256297111511,1.5295491218566895,0.4230769230769231,0.8269230769230769,0.21428571428571427,0.8571428571428571,0.0004
38,1.5371984243392944,1.5375310182571411,0.36538461538461536,0.8269230769230769,0.21428571428571427,0.8571428571428571,0.0004
39,1.534841239452362,1.5452388525009155,0.36538461538461536,0.8269230769230769,0.21428571428571427,0.8571428571428571,0.0004
40,1.5791125893592834,1.5548639297485352,0.36538461538461536,0.8269230769230769,0.21428571428571427,0.8571428571428571,0.0004
41,1.5685541033744812,1.5564963817596436,0.36538461538461536,0.8269230769230769,0.21428571428571427,0.8571428571428571,0.0004
42,1.577100396156311,1.5563058853149414,0.36538461538461536,0.8269230769230769,0.21428571428571427,0.8571428571428571,0.0004
43,1.5924437046051025,1.5523754358291626,0.36538461538461536,0.8269230769230769,0.21428571428571427,0.8571428571428571,0.0004
44,1.5445274114608765,1.5456607341766357,0.36538461538461536,0.8269230769230769,0.21428571428571427,0.8571428571428571,0.0004
45,1.57026207447052,1.5384278297424316,0.36538461538461536,0.8269230769230769,0.21428571428571427,0.8571428571428571,0.0004
46,1.5531825423240662,1.5352123975753784,0.36538461538461536,0.8269230769230769,0.21428571428571427,0.8571428571428571,0.0004
47,1.5569283962249756,1.5321769714355469,0.38461538461538464,0.8269230769230769,0.35714285714285715,0.8571428571428571,0.0004
48,1.559746265411377,1.5313947200775146,0.38461538461538464,0.8269230769230769,0.35714285714285715,0.8571428571428571,0.0004
49,1.569032371044159,1.5302295684814453,0.3269230769230769,0.8269230769230769,0.21428571428571427,0.8571428571428571,0.0004
50,1.5495017170906067,1.5307649374008179,0.2692307692307692,0.8269230769230769,0.21428571428571427,0.8571428571428571,0.0004
51,1.5747408866882324,1.5340123176574707,0.38461538461538464,0.8269230769230769,0.21428571428571427,0.8571428571428571,0.0004
52,1.5676633715629578,1.5385268926620483,0.38461538461538464,0.8269230769230769,0.21428571428571427,0.8571428571428571,0.0004
53,1.5635523200035095,1.5406955480575562,0.36538461538461536,0.8269230769230769,0.21428571428571427,0.8571428571428571,0.0004
54,1.5573636293411255,1.542388677597046,0.36538461538461536,0.8269230769230769,0.21428571428571427,0.8571428571428571,0.0004
55,1.5374635457992554,1.544631838798523,0.36538461538461536,0.8269230769230769,0.21428571428571427,0.8571428571428571,0.0004
56,1.5559980869293213,1.545011043548584,0.36538461538461536,0.8269230769230769,0.21428571428571427,0.8571428571428571,0.0004
57,1.5550613403320312,1.5426760911941528,0.36538461538461536,0.8269230769230769,0.21428571428571427,0.8571428571428571,0.0004
58,1.5671879649162292,1.5383875370025635,0.36538461538461536,0.8269230769230769,0.21428571428571427,0.8571428571428571,0.0004
59,1.5468105673789978,1.5381312370300293,0.36538461538461536,0.8269230769230769,0.21428571428571427,0.8571428571428571,0.0004
60,1.5530820488929749,1.5343307256698608,0.36538461538461536,0.8269230769230769,0.21428571428571427,0.8571428571428571,0.0004
61,1.53789621591568,1.5321074724197388,0.34615384615384615,0.8269230769230769,0.21428571428571427,0.8571428571428571,0.0004
62,1.5641025304794312,1.5318005084991455,0.34615384615384615,0.8269230769230769,0.21428571428571427,0.8571428571428571,0.0004
63,1.535461187362671,1.5298800468444824,0.4230769230769231,0.8269230769230769,0.21428571428571427,0.8571428571428571,0.0004
64,1.5799787044525146,1.528754711151123,0.3076923076923077,0.8269230769230769,0.21428571428571427,0.8571428571428571,0.0004
65,1.5394282341003418,1.5285428762435913,0.38461538461538464,0.8269230769230769,0.21428571428571427,0.8571428571428571,0.0004
66,1.5349741578102112,1.5294228792190552,0.4230769230769231,0.8269230769230769,0.21428571428571427,0.8571428571428571,0.0004
67,1.5525241494178772,1.5277020931243896,0.38461538461538464,0.8269230769230769,0.21428571428571427,0.8571428571428571,0.0004
68,1.5805015563964844,1.5252922773361206,0.34615384615384615,0.8269230769230769,0.21428571428571427,0.8571428571428571,0.0004
69,1.5320743322372437,1.5268473625183105,0.40384615384615385,0.8269230769230769,0.21428571428571427,0.8571428571428571,0.0004
70,1.5556841492652893,1.5281561613082886,0.36538461538461536,0.8269230769230769,0.21428571428571427,0.8571428571428571,0.0004
71,1.585193157196045,1.5298433303833008,0.36538461538461536,0.8269230769230769,0.21428571428571427,0.8571428571428571,0.0004
72,1.568214774131775,1.5295963287353516,0.36538461538461536,0.8269230769230769,0.21428571428571427,0.8571428571428571,0.0004
73,1.5565263032913208,1.5317463874816895,0.36538461538461536,0.8269230769230769,0.21428571428571427,0.8571428571428571,0.0004
74,1.6123383045196533,1.5344198942184448,0.36538461538461536,0.8269230769230769,0.21428571428571427,0.8571428571428571,0.0004
75,1.563687026500702,1.5348213911056519,0.38461538461538464,0.8269230769230769,0.21428571428571427,0.8571428571428571,0.0004
76,1.5475820899009705,1.5348795652389526,0.19230769230769232,0.8269230769230769,0.35714285714285715,0.8571428571428571,0.0004
77,1.5719521045684814,1.5374815464019775,0.28846153846153844,0.8269230769230769,0.35714285714285715,0.8571428571428571,0.0004
78,1.5441730618476868,1.5368010997772217,0.36538461538461536,0.8269230769230769,0.21428571428571427,0.8571428571428571,0.0004
79,1.5528958439826965,1.536771535873413,0.36538461538461536,0.8269230769230769,0.21428571428571427,0.8571428571428571,0.0004
80,1.5860771536827087,1.5338995456695557,0.36538461538461536,0.8269230769230769,0.21428571428571427,0.8571428571428571,0.0004
81,1.5533882975578308,1.5313193798065186,0.34615384615384615,0.8269230769230769,0.21428571428571427,0.8571428571428571,0.0004
82,1.5446051955223083,1.5316556692123413,0.36538461538461536,0.8269230769230769,0.21428571428571427,0.8571428571428571,0.0004
83,1.5420405268669128,1.5352989435195923,0.36538461538461536,0.8269230769230769,0.21428571428571427,0.8571428571428571,0.0004
84,1.54948490858078,1.5366848707199097,0.36538461538461536,0.8269230769230769,0.21428571428571427,0.8571428571428571,0.0004
85,1.5799753069877625,1.540799617767334,0.36538461538461536,0.8269230769230769,0.21428571428571427,0.8571428571428571,0.0004
86,1.548433780670166,1.5384340286254883,0.36538461538461536,0.8269230769230769,0.21428571428571427,0.8571428571428571,0.0004
87,1.5798847675323486,1.5386682748794556,0.36538461538461536,0.8269230769230769,0.21428571428571427,0.8571428571428571,0.0004
88,1.571969747543335,1.531948208808899,0.36538461538461536,0.8269230769230769,0.21428571428571427,0.8571428571428571,0.0004
89,1.5548152923583984,1.5254402160644531,0.36538461538461536,0.8269230769230769,0.21428571428571427,0.8571428571428571,0.0004
90,1.5610858798027039,1.5207794904708862,0.34615384615384615,0.8269230769230769,0.21428571428571427,0.8571428571428571,0.0004
91,1.539175271987915,1.5200587511062622,0.36538461538461536,0.8269230769230769,0.21428571428571427,0.8571428571428571,0.0004
92,1.5609331130981445,1.521864891052246,0.3076923076923077,0.8269230769230769,0.35714285714285715,0.8571428571428571,0.0004
93,1.5708224773406982,1.5256154537200928,0.2692307692307692,0.8269230769230769,0.35714285714285715,0.8571428571428571,0.0004
94,1.5554755926132202,1.5334982872009277,0.36538461538461536,0.8269230769230769,0.21428571428571427,0.8571428571428571,0.0004
95,1.5766724348068237,1.5356227159500122,0.34615384615384615,0.8269230769230769,0.21428571428571427,0.8571428571428571,0.0004
96,1.5505099892616272,1.5377765893936157,0.3076923076923077,0.8269230769230769,0.21428571428571427,0.8571428571428571,0.0004
97,1.5994415283203125,1.5381723642349243,0.36538461538461536,0.8269230769230769,0.21428571428571427,0.8571428571428571,0.0004
98,1.5699432492256165,1.5348091125488281,0.40384615384615385,0.8269230769230769,0.21428571428571427,0.8571428571428571,0.0004
99,1.5683063864707947,1.5327379703521729,0.36538461538461536,0.8269230769230769,0.21428571428571427,0.8571428571428571,0.0004
100,1.584345281124115,1.5309823751449585,0.38461538461538464,0.8269230769230769,0.21428571428571427,0.8571428571428571,0.0004
101,1.599427342414856,1.525766134262085,0.36538461538461536,0.8269230769230769,0.21428571428571427,0.8571428571428571,0.0004
102,1.560372769832611,1.5242983102798462,0.4423076923076923,0.8269230769230769,0.21428571428571427,0.8571428571428571,0.0004
103,1.5557931065559387,1.5249969959259033,0.4423076923076923,0.8269230769230769,0.21428571428571427,0.8571428571428571,0.0004
104,1.5385107398033142,1.5278706550598145,0.36538461538461536,0.8269230769230769,0.21428571428571427,0.8571428571428571,0.0004
105,1.591458797454834,1.5348600149154663,0.34615384615384615,0.8269230769230769,0.21428571428571427,0.8571428571428571,0.0004
106,1.5450862646102905,1.5389297008514404,0.38461538461538464,0.8269230769230769,0.21428571428571427,0.8571428571428571,0.0004
107,1.5552356243133545,1.5433082580566406,0.36538461538461536,0.8269230769230769,0.21428571428571427,0.8571428571428571,0.0004
108,1.5729992985725403,1.5478050708770752,0.36538461538461536,0.8269230769230769,0.21428571428571427,0.8571428571428571,0.0004
109,1.5647206902503967,1.550008773803711,0.36538461538461536,0.8269230769230769,0.21428571428571427,0.8571428571428571,0.0004
110,1.5777328610420227,1.542433261871338,0.36538461538461536,0.8269230769230769,0.21428571428571427,0.8571428571428571,0.0004
111,1.536335051059723,1.5308959484100342,0.34615384615384615,0.8269230769230769,0.21428571428571427,0.8571428571428571,0.0004
112,1.5826855897903442,1.5250705480575562,0.3269230769230769,0.8269230769230769,0.21428571428571427,0.8571428571428571,0.0004
113,1.5837281942367554,1.5174665451049805,0.38461538461538464,0.8269230769230769,0.35714285714285715,0.8571428571428571,0.0004
114,1.5381864309310913,1.5147415399551392,0.3076923076923077,0.8269230769230769,0.35714285714285715,0.8571428571428571,0.0004
115,1.5500872135162354,1.5166728496551514,0.36538461538461536,0.8269230769230769,0.35714285714285715,0.8571428571428571,0.0004
116,1.5883007049560547,1.5186330080032349,0.3269230769230769,0.8269230769230769,0.21428571428571427,0.8571428571428571,0.0004
117,1.5869636535644531,1.5293294191360474,0.36538461538461536,0.8269230769230769,0.21428571428571427,0.8571428571428571,0.0004
118,1.5614103078842163,1.5392684936523438,0.36538461538461536,0.8269230769230769,0.21428571428571427,0.8571428571428571,0.0004
119,1.5606871843338013,1.5466258525848389,0.40384615384615385,0.8269230769230769,0.21428571428571427,0.8571428571428571,0.0004
120,1.528988242149353,1.5491955280303955,0.38461538461538464,0.8269230769230769,0.21428571428571427,0.8571428571428571,0.0004
121,1.5678430199623108,1.545865535736084,0.36538461538461536,0.8269230769230769,0.21428571428571427,0.8571428571428571,0.0004
122,1.566727876663208,1.5410517454147339,0.38461538461538464,0.8269230769230769,0.21428571428571427,0.8571428571428571,0.0004
123,1.5136343836784363,1.5320388078689575,0.34615384615384615,0.8269230769230769,0.21428571428571427,0.8571428571428571,0.0004
124,1.5544958114624023,1.5231609344482422,0.38461538461538464,0.8269230769230769,0.21428571428571427,0.8571428571428571,0.0004
125,1.5821128487586975,1.517394781112671,0.34615384615384615,0.8269230769230769,0.21428571428571427,0.8571428571428571,0.0004
126,1.5581983923912048,1.5096001625061035,0.34615384615384615,0.8269230769230769,0.5,0.8571428571428571,0.0004
127,1.5085395574569702,1.5056089162826538,0.5,0.8269230769230769,0.42857142857142855,0.8571428571428571,0.0004
128,1.544740617275238,1.509057641029358,0.28846153846153844,0.8269230769230769,0.42857142857142855,0.8571428571428571,0.0004
129,1.547214388847351,1.5229734182357788,0.3076923076923077,0.8269230769230769,0.21428571428571427,0.8571428571428571,0.0004
130,1.5285516381263733,1.5348690748214722,0.36538461538461536,0.8269230769230769,0.21428571428571427,0.8571428571428571,0.0004
131,1.5601653456687927,1.5450854301452637,0.38461538461538464,0.8269230769230769,0.21428571428571427,0.8571428571428571,0.0004
132,1.5314951539039612,1.5441738367080688,0.40384615384615385,0.8269230769230769,0.21428571428571427,0.8571428571428571,0.0004
133,1.5854439735412598,1.542407751083374,0.36538461538461536,0.8269230769230769,0.21428571428571427,0.8571428571428571,0.0004
134,1.5842657089233398,1.5363655090332031,0.36538461538461536,0.8269230769230769,0.21428571428571427,0.8571428571428571,0.0004
135,1.5379306077957153,1.527163028717041,0.38461538461538464,0.8269230769230769,0.21428571428571427,0.8571428571428571,0.0004
136,1.5251573324203491,1.5179779529571533,0.34615384615384615,0.8269230769230769,0.35714285714285715,0.8571428571428571,0.0004
137,1.5541189312934875,1.5118722915649414,0.5384615384615384,0.8269230769230769,0.2857142857142857,0.8571428571428571,0.0004
138,1.568906307220459,1.5107059478759766,0.36538461538461536,0.8269230769230769,0.35714285714285715,0.8571428571428571,0.0004
139,1.5530245900154114,1.5263826847076416,0.4230769230769231,0.8269230769230769,0.2857142857142857,0.8571428571428571,0.0004
140,1.5621587038040161,1.5222786664962769,0.4230769230769231,0.8269230769230769,0.35714285714285715,0.8571428571428571,0.0004
141,1.577688217163086,1.5261820554733276,0.46153846153846156,0.8269230769230769,0.35714285714285715,0.8571428571428571,0.0004
142,1.5139074921607971,1.540879249572754,0.46153846153846156,0.8269230769230769,0.35714285714285715,0.8571428571428571,0.0004
143,1.5259565114974976,1.5413309335708618,0.4423076923076923,0.8269230769230769,0.35714285714285715,0.8571428571428571,0.0004
144,1.4974076747894287,1.5565588474273682,0.4423076923076923,0.8269230769230769,0.2857142857142857,0.8571428571428571,0.0004
145,1.5240446329116821,1.5267198085784912,0.46153846153846156,0.8269230769230769,0.35714285714285715,0.8571428571428571,0.0004
146,1.47528874874115,1.5088547468185425,0.5,0.8269230769230769,0.35714285714285715,0.8571428571428571,0.0004
147,1.47665274143219,1.5596697330474854,0.5192307692307693,0.8269230769230769,0.35714285714285715,0.8571428571428571,0.0004
148,1.5254848003387451,1.5869308710098267,0.4230769230769231,0.8269230769230769,0.35714285714285715,0.8571428571428571,0.0004
149,1.4032778143882751,1.6431759595870972,0.5,0.8269230769230769,0.35714285714285715,0.8571428571428571,0.0004
150,1.4575568437576294,1.7369521856307983,0.5,0.8269230769230769,0.35714285714285715,0.8571428571428571,0.0004
151,1.455359160900116,1.668243408203125,0.5,0.8269230769230769,0.35714285714285715,0.8571428571428571,0.0004
152,1.367919683456421,1.678288459777832,0.5192307692307693,0.8269230769230769,0.35714285714285715,0.8571428571428571,0.0004
153,1.3294094800949097,1.8427784442901611,0.5384615384615384,0.8269230769230769,0.35714285714285715,0.8571428571428571,0.0004
154,1.5492550134658813,1.997209906578064,0.40384615384615385,0.8269230769230769,0.2857142857142857,0.8571428571428571,0.0004
155,1.4184163212776184,1.9413869380950928,0.46153846153846156,0.8269230769230769,0.35714285714285715,0.8571428571428571,0.0004
156,1.353722095489502,2.0607059001922607,0.5192307692307693,0.8269230769230769,0.35714285714285715,0.21428571428571427,0.0004
157,1.3414037227630615,2.04559326171875,0.5192307692307693,0.8076923076923077,0.35714285714285715,0.14285714285714285,0.0004
158,1.4097540974617004,1.9446251392364502,0.5,0.7884615384615384,0.35714285714285715,0.8571428571428571,0.0004
159,1.4420118927955627,1.851292610168457,0.38461538461538464,0.8269230769230769,0.35714285714285715,0.8571428571428571,0.0004
160,1.5201606750488281,1.7364938259124756,0.4423076923076923,0.8269230769230769,0.2857142857142857,0.8571428571428571,0.0004
161,1.5411972403526306,1.6932685375213623,0.40384615384615385,0.8269230769230769,0.2857142857142857,0.8571428571428571,0.0004
162,1.3257632851600647,1.7887219190597534,0.5961538461538461,0.8269230769230769,0.35714285714285715,0.8571428571428571,0.0004
163,1.4772772192955017,1.8170610666275024,0.5192307692307693,0.8269230769230769,0.35714285714285715,0.8571428571428571,0.0004
164,1.3027705550193787,1.8386387825012207,0.5576923076923077,0.8269230769230769,0.35714285714285715,0.8571428571428571,0.0004
165,1.5741320848464966,1.817907691001892,0.40384615384615385,0.8269230769230769,0.35714285714285715,0.8571428571428571,0.0004
166,1.4594067931175232,1.7678560018539429,0.4807692307692308,0.8269230769230769,0.35714285714285715,0.8571428571428571,0.0004
167,1.2750641703605652,1.7489709854125977,0.6153846153846154,0.8269230769230769,0.35714285714285715,0.8571428571428571,0.0004
168,1.368708848953247,1.7389111518859863,0.5576923076923077,0.8269230769230769,0.35714285714285715,0.8571428571428571,0.0004
169,1.5008331537246704,1.7003161907196045,0.4230769230769231,0.8269230769230769,0.35714285714285715,0.8571428571428571,0.0004
170,1.326159656047821,1.6838688850402832,0.5576923076923077,0.8269230769230769,0.35714285714285715,0.8571428571428571,0.0004
171,1.5680310726165771,1.6554431915283203,0.4230769230769231,0.8269230769230769,0.35714285714285715,0.8571428571428571,0.0004
172,1.3720235228538513,1.6565860509872437,0.5576923076923077,0.8269230769230769,0.35714285714285715,0.8571428571428571,0.0004
173,1.4092158079147339,1.686840534210205,0.4807692307692308,0.8269230769230769,0.35714285714285715,0.8571428571428571,0.0004
174,1.4724457263946533,1.7390708923339844,0.5192307692307693,0.8269230769230769,0.35714285714285715,0.8571428571428571,0.0004
175,1.343518853187561,1.81271493434906,0.5576923076923077,0.8269230769230769,0.35714285714285715,0.8571428571428571,0.0004
176,1.3057721257209778,1.9064137935638428,0.5576923076923077,0.8269230769230769,0.35714285714285715,0.8571428571428571,0.0004
177,1.249798059463501,2.052736282348633,0.6153846153846154,0.8269230769230769,0.35714285714285715,0.8571428571428571,0.0004
178,1.449252724647522,2.1177377700805664,0.5,0.8269230769230769,0.35714285714285715,0.8571428571428571,0.0004
179,1.3391449451446533,2.1539382934570312,0.5,0.8269230769230769,0.35714285714285715,0.8571428571428571,0.0004
180,1.3207566738128662,2.232215642929077,0.4807692307692308,0.8269230769230769,0.35714285714285715,0.7142857142857143,0.0004
181,1.3845711946487427,2.2938952445983887,0.5384615384615384,0.8269230769230769,0.35714285714285715,0.42857142857142855,0.0004
182,1.4223082661628723,2.3467817306518555,0.5,0.8269230769230769,0.35714285714285715,0.14285714285714285,0.0004
183,1.3730030059814453,2.3615574836730957,0.5,0.8269230769230769,0.35714285714285715,0.14285714285714285,0.0004
184,1.3785841464996338,2.3491644859313965,0.5192307692307693,0.8269230769230769,0.35714285714285715,0.2857142857142857,0.0004
185,1.3158995509147644,2.354948043823242,0.5769230769230769,0.8076923076923077,0.35714285714285715,0.14285714285714285,0.0004
186,1.3754764795303345,2.3099262714385986,0.6153846153846154,0.8269230769230769,0.35714285714285715,0.35714285714285715,0.0004
187,1.44882071018219,2.2183804512023926,0.46153846153846156,0.8269230769230769,0.35714285714285715,0.8571428571428571,0.0004
188,1.2545104622840881,2.1701650619506836,0.6346153846153846,0.8269230769230769,0.35714285714285715,0.8571428571428571,0.0004
189,1.3827043175697327,2.167304039001465,0.5576923076923077,0.8269230769230769,0.35714285714285715,0.8571428571428571,0.0004
190,1.4242478013038635,2.1070339679718018,0.5,0.8269230769230769,0.35714285714285715,0.8571428571428571,0.0004
191,1.3224421739578247,2.074723482131958,0.5384615384615384,0.8269230769230769,0.35714285714285715,0.8571428571428571,0.0004
192,1.3233556151390076,2.0190343856811523,0.5576923076923077,0.8269230769230769,0.35714285714285715,0.8571428571428571,0.0004
193,1.3294872045516968,2.0152103900909424,0.6153846153846154,0.8269230769230769,0.35714285714285715,0.8571428571428571,0.0004
194,1.3192638754844666,1.9842636585235596,0.5961538461538461,0.8269230769230769,0.35714285714285715,0.8571428571428571,0.0004
195,1.3612882494926453,1.96487295627594,0.46153846153846156,0.8269230769230769,0.35714285714285715,0.8571428571428571,0.0004
196,1.262668490409851,1.9787298440933228,0.6923076923076923,0.8269230769230769,0.35714285714285715,0.8571428571428571,0.0004
197,1.2339321970939636,1.991983413696289,0.5961538461538461,0.8269230769230769,0.35714285714285715,0.8571428571428571,0.0004
198,1.2125653624534607,2.0046427249908447,0.6730769230769231,0.8269230769230769,0.35714285714285715,0.8571428571428571,0.0004
199,1.318260669708252,2.0125975608825684,0.5192307692307693,0.8269230769230769,0.35714285714285715,0.8571428571428571,0.0004
200,1.2650546431541443,2.097663640975952,0.5769230769230769,0.8076923076923077,0.35714285714285715,0.14285714285714285,0.0004
201,1.2966700792312622,2.1428277492523193,0.5576923076923077,0.9423076923076923,0.35714285714285715,0.14285714285714285,0.0004
202,1.4419689178466797,2.1260948181152344,0.5192307692307693,0.8846153846153846,0.35714285714285715,0.14285714285714285,0.0004
203,1.3278422951698303,2.0955958366394043,0.5,0.7692307692307693,0.35714285714285715,0.07142857142857142,0.0004
204,1.1892699003219604,2.029358148574829,0.6538461538461539,0.8461538461538461,0.35714285714285715,0.7857142857142857,0.0004
205,1.2965681552886963,1.9483073949813843,0.5192307692307693,0.8269230769230769,0.35714285714285715,0.8571428571428571,0.0004
206,1.471475064754486,1.9451496601104736,0.5384615384615384,0.8269230769230769,0.35714285714285715,0.8571428571428571,0.0004
207,1.1350558400154114,1.892493486404419,0.6346153846153846,0.8269230769230769,0.35714285714285715,0.8571428571428571,0.0004
208,1.2595170736312866,1.997406244277954,0.4807692307692308,0.8269230769230769,0.35714285714285715,0.8571428571428571,0.0004
209,1.360153317451477,2.036914348602295,0.5192307692307693,0.8269230769230769,0.35714285714285715,0.8571428571428571,0.0004
210,1.4318620562553406,2.133535385131836,0.5769230769230769,0.8269230769230769,0.35714285714285715,0.21428571428571427,0.0004
211,1.2630793452262878,2.226257562637329,0.6730769230769231,0.8269230769230769,0.35714285714285715,0.07142857142857142,0.0004
212,1.3980233073234558,2.131181240081787,0.5192307692307693,0.8461538461538461,0.35714285714285715,0.14285714285714285,0.0004
213,1.271404504776001,2.0276007652282715,0.5961538461538461,0.8269230769230769,0.35714285714285715,0.9285714285714286,0.0004
214,1.2743109464645386,1.999659776687622,0.5192307692307693,0.8269230769230769,0.35714285714285715,0.8571428571428571,0.0004
215,1.3282702565193176,1.8761136531829834,0.5192307692307693,0.8269230769230769,0.42857142857142855,0.8571428571428571,0.0004
216,1.247330665588379,1.9837007522583008,0.6153846153846154,0.8269230769230769,0.35714285714285715,0.7142857142857143,0.0004
217,1.144884705543518,2.1071135997772217,0.6538461538461539,0.8269230769230769,0.35714285714285715,0.14285714285714285,0.0004
218,1.3848229050636292,2.131319046020508,0.4807692307692308,0.8461538461538461,0.35714285714285715,0.14285714285714285,0.0004
219,1.2273226380348206,2.1442911624908447,0.5961538461538461,0.8076923076923077,0.35714285714285715,0.14285714285714285,0.0004
220,1.1376871466636658,2.1368565559387207,0.6153846153846154,0.9230769230769231,0.35714285714285715,0.14285714285714285,0.0004
221,1.264344871044159,2.029043436050415,0.5961538461538461,0.8461538461538461,0.35714285714285715,0.07142857142857142,0.0004
222,1.2720859050750732,1.9838131666183472,0.5576923076923077,0.8269230769230769,0.35714285714285715,0.7857142857142857,0.0004
223,1.3925252556800842,1.9504859447479248,0.5576923076923077,0.8269230769230769,0.35714285714285715,0.8571428571428571,0.0004
224,1.2569661140441895,2.06496000289917,0.5576923076923077,0.8269230769230769,0.35714285714285715,0.8571428571428571,0.0004
225,1.3170183300971985,2.0688769817352295,0.5576923076923077,0.8269230769230769,0.35714285714285715,0.8571428571428571,0.0004
226,1.3655552864074707,2.055835247039795,0.5769230769230769,0.8269230769230769,0.35714285714285715,0.2857142857142857,0.0004
227,1.2831085920333862,2.108706474304199,0.5769230769230769,0.8269230769230769,0.35714285714285715,0.2857142857142857,0.0004
228,1.2718228697776794,2.2126760482788086,0.5769230769230769,0.8269230769230769,0.35714285714285715,0.2857142857142857,0.0004
229,1.284042775630951,2.347404718399048,0.5192307692307693,0.8846153846153846,0.35714285714285715,0.14285714285714285,0.0004
230,1.1798476576805115,2.3243768215179443,0.5576923076923077,0.8269230769230769,0.35714285714285715,0.14285714285714285,0.0004
231,1.2500253915786743,2.2839231491088867,0.5384615384615384,0.8269230769230769,0.35714285714285715,0.21428571428571427,0.0004
232,1.0779327154159546,2.2769408226013184,0.6346153846153846,0.8653846153846154,0.35714285714285715,0.14285714285714285,0.0004
233,1.3131808042526245,2.340008020401001,0.5769230769230769,0.8076923076923077,0.35714285714285715,0.14285714285714285,0.0004
234,1.1935023665428162,2.405803918838501,0.5576923076923077,0.8461538461538461,0.35714285714285715,0.14285714285714285,0.0004
235,1.3014707565307617,2.4562411308288574,0.5769230769230769,0.8653846153846154,0.35714285714285715,0.14285714285714285,0.0004
236,1.3006765246391296,2.5174436569213867,0.5384615384615384,0.8076923076923077,0.35714285714285715,0.14285714285714285,0.0004
237,1.1767123341560364,2.515901565551758,0.5961538461538461,0.8653846153846154,0.35714285714285715,0.14285714285714285,0.0004
238,1.384206235408783,2.541494607925415,0.6153846153846154,0.8269230769230769,0.35714285714285715,0.14285714285714285,0.0004
239,1.3530511260032654,2.4719419479370117,0.5769230769230769,0.8461538461538461,0.35714285714285715,0.14285714285714285,0.0004
240,1.22287255525589,2.493257999420166,0.5576923076923077,0.7884615384615384,0.35714285714285715,0.14285714285714285,0.0004
241,0.9814026355743408,2.4470505714416504,0.6346153846153846,0.9038461538461539,0.35714285714285715,0.14285714285714285,0.0004
242,1.2977058291435242,2.3640246391296387,0.5769230769230769,0.8653846153846154,0.35714285714285715,0.14285714285714285,0.0004
243,1.2894712686538696,2.3542819023132324,0.6923076923076923,0.7884615384615384,0.35714285714285715,0.21428571428571427,0.0004
244,1.4202629327774048,2.179171323776245,0.4807692307692308,0.8461538461538461,0.35714285714285715,0.8571428571428571,0.0004
245,1.2163046598434448,2.124177932739258,0.6346153846153846,0.8269230769230769,0.35714285714285715,0.8571428571428571,0.0004
246,1.390594482421875,1.9146652221679688,0.5192307692307693,0.8269230769230769,0.35714285714285715,0.8571428571428571,0.0004
247,1.2524223923683167,1.964627742767334,0.5961538461538461,0.8269230769230769,0.35714285714285715,0.8571428571428571,0.0004
248,1.2216005325317383,2.112283229827881,0.5961538461538461,0.8269230769230769,0.35714285714285715,0.6428571428571429,0.0004
249,1.3312088251113892,2.070110321044922,0.5384615384615384,0.8076923076923077,0.35714285714285715,0.2857142857142857,0.0004
250,1.2073063850402832,2.1107897758483887,0.5961538461538461,0.8461538461538461,0.35714285714285715,0.14285714285714285,0.0004
251,1.2756556868553162,2.105863571166992,0.5192307692307693,0.8269230769230769,0.35714285714285715,0.21428571428571427,0.0004
252,1.325978696346283,2.1308789253234863,0.5192307692307693,0.8269230769230769,0.35714285714285715,0.21428571428571427,0.0004
253,1.3063469529151917,2.193455696105957,0.5961538461538461,0.8269230769230769,0.35714285714285715,0.14285714285714285,0.0004
254,1.1762780547142029,2.055340051651001,0.5576923076923077,0.8846153846153846,0.35714285714285715,0.35714285714285715,0.0004
255,1.1664267182350159,2.1514241695404053,0.6730769230769231,0.8076923076923077,0.35714285714285715,0.14285714285714285,0.0004
256,1.2346763014793396,2.0858709812164307,0.5769230769230769,0.8461538461538461,0.35714285714285715,0.2857142857142857,0.0004
257,1.2244362235069275,2.2400636672973633,0.6346153846153846,0.8076923076923077,0.35714285714285715,0.14285714285714285,0.0004
258,1.2331084609031677,2.2025718688964844,0.6538461538461539,0.7884615384615384,0.35714285714285715,0.14285714285714285,0.0004
259,1.161790817975998,2.281787633895874,0.7692307692307693,0.8269230769230769,0.35714285714285715,0.14285714285714285,0.0004
260,1.3060835003852844,2.114823341369629,0.6153846153846154,0.8461538461538461,0.35714285714285715,0.2857142857142857,0.0004
261,1.2583800554275513,2.0624356269836426,0.5961538461538461,0.8269230769230769,0.35714285714285715,0.5714285714285714,0.0004
262,1.035832703113556,2.018850326538086,0.6538461538461539,0.8269230769230769,0.42857142857142855,0.8571428571428571,0.0004
263,1.2661074995994568,1.899858832359314,0.5769230769230769,0.8269230769230769,0.42857142857142855,0.8571428571428571,0.0004
264,1.2073380947113037,1.9743669033050537,0.6730769230769231,0.8269230769230769,0.35714285714285715,0.8571428571428571,0.0004
265,1.007368803024292,2.255225658416748,0.7307692307692307,0.8269230769230769,0.35714285714285715,0.21428571428571427,0.0004
266,1.1402382254600525,2.245891571044922,0.6153846153846154,0.7884615384615384,0.35714285714285715,0.14285714285714285,0.0004
267,1.0475836992263794,2.2403404712677,0.6346153846153846,0.8653846153846154,0.35714285714285715,0.2857142857142857,0.0004
268,1.1006821990013123,2.400785446166992,0.6538461538461539,0.8846153846153846,0.35714285714285715,0.07142857142857142,0.0004
269,1.1468648314476013,2.367020606994629,0.5961538461538461,0.8653846153846154,0.35714285714285715,0.14285714285714285,0.0004
270,1.1319976449012756,2.3530521392822266,0.6346153846153846,0.8653846153846154,0.35714285714285715,0.14285714285714285,0.0004
271,1.0637762546539307,2.398106575012207,0.6923076923076923,0.8653846153846154,0.35714285714285715,0.14285714285714285,0.0004
272,1.212997555732727,2.0960068702697754,0.6346153846153846,0.8269230769230769,0.42857142857142855,0.21428571428571427,0.0004
273,1.2320505380630493,2.2719340324401855,0.6153846153846154,0.8076923076923077,0.35714285714285715,0.21428571428571427,0.0004
274,1.0766337513923645,2.0799779891967773,0.6730769230769231,0.8461538461538461,0.42857142857142855,0.35714285714285715,0.0004
275,1.175338089466095,2.2320022583007812,0.5576923076923077,0.9038461538461539,0.35714285714285715,0.14285714285714285,0.0004
276,1.387771189212799,1.8166871070861816,0.5961538461538461,0.8076923076923077,0.5,0.35714285714285715,0.0004
277,1.0845105946063995,2.268298387527466,0.6538461538461539,0.8846153846153846,0.35714285714285715,0.14285714285714285,0.0004
278,1.0501028895378113,2.246861696243286,0.7115384615384616,0.9230769230769231,0.35714285714285715,0.14285714285714285,0.0004
279,1.309897780418396,2.303978443145752,0.6153846153846154,0.7884615384615384,0.35714285714285715,0.14285714285714285,0.0004
280,1.158325433731079,1.9889955520629883,0.6730769230769231,0.8653846153846154,0.42857142857142855,0.2857142857142857,0.0004
281,1.3574988842010498,1.7918378114700317,0.5384615384615384,0.8269230769230769,0.42857142857142855,0.42857142857142855,0.0004
282,1.1699941158294678,2.3009769916534424,0.6346153846153846,0.8269230769230769,0.35714285714285715,0.07142857142857142,0.0004
283,1.401262879371643,2.310699939727783,0.5961538461538461,0.7884615384615384,0.35714285714285715,0.21428571428571427,0.0004
284,1.252103328704834,2.3563196659088135,0.5961538461538461,0.8653846153846154,0.35714285714285715,0.21428571428571427,0.0004
285,1.3013883233070374,2.3394827842712402,0.6153846153846154,0.8461538461538461,0.35714285714285715,0.6428571428571429,0.0004
286,1.2883538603782654,2.3167638778686523,0.5961538461538461,0.8076923076923077,0.35714285714285715,0.7857142857142857,0.0004
287,1.149424433708191,2.2245168685913086,0.6923076923076923,0.8269230769230769,0.35714285714285715,0.5714285714285714,0.0004
288,1.36721932888031,2.236929178237915,0.5,0.8461538461538461,0.35714285714285715,0.42857142857142855,0.0004
289,1.271420955657959,2.1810574531555176,0.5769230769230769,0.8461538461538461,0.35714285714285715,0.5,0.0004
290,1.5476308465003967,2.210780620574951,0.4807692307692308,0.8269230769230769,0.35714285714285715,0.8571428571428571,0.0004
291,1.07002654671669,2.1673223972320557,0.6153846153846154,0.8269230769230769,0.35714285714285715,0.8571428571428571,0.0004
292,1.1446444988250732,2.1263020038604736,0.7307692307692307,0.8269230769230769,0.35714285714285715,0.8571428571428571,0.0004
293,1.1406580209732056,2.047978401184082,0.5769230769230769,0.8269230769230769,0.35714285714285715,0.8571428571428571,0.0004
294,1.1614599227905273,2.06490159034729,0.5961538461538461,0.8269230769230769,0.35714285714285715,0.8571428571428571,0.0004
295,1.2709272503852844,2.061051845550537,0.5961538461538461,0.8269230769230769,0.35714285714285715,0.8571428571428571,0.0004
296,1.201188564300537,2.032313585281372,0.6153846153846154,0.8269230769230769,0.35714285714285715,0.8571428571428571,0.0004
297,1.1518216729164124,2.0713999271392822,0.5961538461538461,0.8269230769230769,0.35714285714285715,0.8571428571428571,0.0004
298,1.1899067759513855,2.118546724319458,0.5961538461538461,0.8269230769230769,0.35714285714285715,0.21428571428571427,0.0004
299,1.4192762970924377,2.1574554443359375,0.5769230769230769,0.8269230769230769,0.35714285714285715,0.14285714285714285,0.0004
300,1.2220783233642578,2.169553756713867,0.6730769230769231,0.8269230769230769,0.35714285714285715,0.21428571428571427,0.0004
301,1.0410833954811096,2.074913501739502,0.6923076923076923,0.8653846153846154,0.35714285714285715,0.2857142857142857,0.0004
302,1.1477603912353516,2.093292474746704,0.6538461538461539,0.8653846153846154,0.35714285714285715,0.2857142857142857,0.0004
303,1.1837744116783142,2.0991387367248535,0.6153846153846154,0.8653846153846154,0.35714285714285715,0.21428571428571427,0.0004
304,1.2159206867218018,2.2011685371398926,0.6538461538461539,0.7692307692307693,0.35714285714285715,0.14285714285714285,0.0004
305,1.271369755268097,2.206244707107544,0.6153846153846154,0.7307692307692307,0.35714285714285715,0.14285714285714285,0.0004
306,1.105887234210968,2.08829927444458,0.6538461538461539,0.9230769230769231,0.35714285714285715,0.21428571428571427,0.0004
307,1.284665584564209,2.1608688831329346,0.6346153846153846,0.8269230769230769,0.35714285714285715,0.14285714285714285,0.0004
308,1.1690913438796997,1.8210084438323975,0.6153846153846154,0.8269230769230769,0.5,0.42857142857142855,0.0004
309,1.0679171085357666,1.8959004878997803,0.6346153846153846,0.8461538461538461,0.35714285714285715,0.35714285714285715,0.0004
310,1.277994453907013,2.006378650665283,0.6538461538461539,0.8269230769230769,0.35714285714285715,0.2857142857142857,0.0004
311,1.1434547305107117,2.1433215141296387,0.5576923076923077,0.8269230769230769,0.35714285714285715,0.42857142857142855,0.0004
312,1.1272534728050232,2.0484416484832764,0.5961538461538461,0.8076923076923077,0.42857142857142855,0.21428571428571427,0.0004
313,1.3018298745155334,2.1321535110473633,0.5961538461538461,0.8846153846153846,0.35714285714285715,0.14285714285714285,0.0004
314,1.0263422131538391,2.0573530197143555,0.6923076923076923,0.8269230769230769,0.42857142857142855,0.2857142857142857,0.0004
315,1.191054880619049,2.3273868560791016,0.6538461538461539,0.8076923076923077,0.35714285714285715,0.14285714285714285,0.0004
316,1.1425116062164307,2.0484495162963867,0.5576923076923077,0.8269230769230769,0.35714285714285715,0.5,0.0004
317,1.3774815201759338,1.6636598110198975,0.5576923076923077,0.8461538461538461,0.42857142857142855,0.7142857142857143,0.0004
318,1.330623984336853,2.0596845149993896,0.5576923076923077,0.8461538461538461,0.35714285714285715,0.2857142857142857,0.0004
319,1.4968600273132324,2.3857192993164062,0.5192307692307693,0.7115384615384616,0.35714285714285715,0.14285714285714285,0.0004
320,1.275367796421051,2.3360164165496826,0.5384615384615384,0.8076923076923077,0.35714285714285715,0.35714285714285715,0.0004
321,1.1318143606185913,2.2665998935699463,0.6730769230769231,0.8076923076923077,0.35714285714285715,0.2857142857142857,0.0004
322,1.221347451210022,2.316175937652588,0.5384615384615384,0.8461538461538461,0.35714285714285715,0.14285714285714285,0.0004
323,1.2343800067901611,2.2765426635742188,0.5961538461538461,0.8461538461538461,0.35714285714285715,0.35714285714285715,0.0004
324,1.1578943729400635,2.2389464378356934,0.5769230769230769,0.8076923076923077,0.35714285714285715,0.42857142857142855,0.0004
325,1.1023459434509277,2.2847862243652344,0.6153846153846154,0.8076923076923077,0.35714285714285715,0.2857142857142857,0.0004
326,1.2737575769424438,2.2672600746154785,0.5192307692307693,0.8269230769230769,0.35714285714285715,0.8571428571428571,0.0004
327,1.1664896607398987,2.2976090908050537,0.5961538461538461,0.8269230769230769,0.35714285714285715,0.9285714285714286,0.0004
328,1.0543513596057892,2.312727928161621,0.6923076923076923,0.8269230769230769,0.35714285714285715,0.7857142857142857,0.0004
329,1.2607244849205017,2.287984609603882,0.5769230769230769,0.8269230769230769,0.35714285714285715,0.2857142857142857,0.0004
330,1.0717490315437317,2.2851290702819824,0.6346153846153846,0.8269230769230769,0.35714285714285715,0.14285714285714285,0.0004
331,1.3812202215194702,2.257650852203369,0.5769230769230769,0.8269230769230769,0.35714285714285715,0.14285714285714285,0.0004
332,1.3470697402954102,2.246551275253296,0.5961538461538461,0.8269230769230769,0.35714285714285715,0.14285714285714285,0.0004
333,1.2191659212112427,2.1095480918884277,0.6153846153846154,0.8653846153846154,0.35714285714285715,0.35714285714285715,0.0004
334,1.2376598119735718,2.09018874168396,0.5384615384615384,0.8461538461538461,0.35714285714285715,0.42857142857142855,0.0004
335,1.1563993692398071,2.0846028327941895,0.6923076923076923,0.8269230769230769,0.35714285714285715,0.8571428571428571,0.0004
336,1.1588703989982605,2.1224050521850586,0.6346153846153846,0.8269230769230769,0.35714285714285715,0.8571428571428571,0.0004
337,1.1750032901763916,2.1241254806518555,0.5384615384615384,0.8269230769230769,0.35714285714285715,0.8571428571428571,0.0004
338,1.115660548210144,2.058345079421997,0.6538461538461539,0.8269230769230769,0.35714285714285715,0.8571428571428571,0.0004
339,1.2274261116981506,1.9452545642852783,0.6153846153846154,0.8269230769230769,0.35714285714285715,0.8571428571428571,0.0004
340,1.267361044883728,1.8942577838897705,0.6346153846153846,0.8269230769230769,0.35714285714285715,0.7857142857142857,0.0004
341,1.0607600212097168,1.9759364128112793,0.6923076923076923,0.8269230769230769,0.35714285714285715,0.7857142857142857,0.0004
342,1.1703469157218933,2.0263311862945557,0.7115384615384616,0.8269230769230769,0.35714285714285715,0.21428571428571427,0.0004
343,1.1656790375709534,2.223153591156006,0.6730769230769231,0.8076923076923077,0.35714285714285715,0.07142857142857142,0.0004
344,1.2340819835662842,2.2235913276672363,0.6538461538461539,0.8653846153846154,0.35714285714285715,0.07142857142857142,0.0004
345,0.9410452246665955,2.3055291175842285,0.6730769230769231,0.8653846153846154,0.35714285714285715,0.14285714285714285,0.0004
346,1.1440401673316956,2.3348476886749268,0.5576923076923077,0.8653846153846154,0.35714285714285715,0.14285714285714285,0.0004
347,1.2216405868530273,2.0104620456695557,0.5769230769230769,0.7692307692307693,0.35714285714285715,0.35714285714285715,0.0004
348,1.0479433238506317,2.2640907764434814,0.6538461538461539,0.8846153846153846,0.42857142857142855,0.21428571428571427,0.0004
349,1.1030424237251282,2.3850202560424805,0.6730769230769231,0.8076923076923077,0.35714285714285715,0.21428571428571427,0.0004
350,1.359144926071167,2.0772688388824463,0.5384615384615384,0.7884615384615384,0.42857142857142855,0.2857142857142857,0.0004
351,0.9845238029956818,2.181210517883301,0.6538461538461539,0.9230769230769231,0.35714285714285715,0.35714285714285715,0.0004
352,1.0329603552818298,2.26277232170105,0.6923076923076923,0.8269230769230769,0.35714285714285715,0.2857142857142857,0.0004
353,1.1909295916557312,2.1723289489746094,0.6153846153846154,0.8076923076923077,0.42857142857142855,0.21428571428571427,0.0004
354,1.0536718368530273,1.921574354171753,0.7115384615384616,0.8461538461538461,0.42857142857142855,0.42857142857142855,0.0004
355,1.1587086915969849,1.9759433269500732,0.6730769230769231,0.8846153846153846,0.5,0.35714285714285715,0.0004
356,1.1936323046684265,2.170469284057617,0.6538461538461539,0.8461538461538461,0.42857142857142855,0.21428571428571427,0.0004
357,1.1201962232589722,1.9881136417388916,0.75,0.8076923076923077,0.5,0.35714285714285715,0.0004
358,1.1616876721382141,2.220785617828369,0.6346153846153846,0.7692307692307693,0.42857142857142855,0.2857142857142857,0.0004
359,1.048257827758789,2.170112371444702,0.7307692307692307,0.8653846153846154,0.42857142857142855,0.14285714285714285,0.0004
360,1.0835087895393372,1.859015703201294,0.6923076923076923,0.8846153846153846,0.5,0.42857142857142855,0.0004
361,1.2412116527557373,1.7051632404327393,0.6730769230769231,0.7884615384615384,0.5,0.5,0.0004
362,1.012567400932312,2.2886457443237305,0.6923076923076923,0.8653846153846154,0.35714285714285715,0.14285714285714285,0.0004
363,0.9963181018829346,2.0498881340026855,0.6538461538461539,0.8653846153846154,0.5,0.2857142857142857,0.0004
364,1.2910771369934082,2.4615848064422607,0.6153846153846154,0.8461538461538461,0.35714285714285715,0.14285714285714285,0.0004
365,1.0240829586982727,2.24580717086792,0.7307692307692307,0.8461538461538461,0.42857142857142855,0.2857142857142857,0.0004
366,1.3192210793495178,0.992141842842102,0.6346153846153846,0.8846153846153846,0.7857142857142857,0.8571428571428571,0.0004
367,1.4061011672019958,2.3561248779296875,0.5384615384615384,0.8269230769230769,0.35714285714285715,0.7142857142857143,0.0004
368,1.2564502954483032,2.4949870109558105,0.5769230769230769,0.8269230769230769,0.35714285714285715,0.8571428571428571,0.0004
369,1.3265524506568909,2.573395013809204,0.5961538461538461,0.8269230769230769,0.35714285714285715,0.2857142857142857,0.0004
370,1.2138755321502686,2.2195072174072266,0.5769230769230769,0.8846153846153846,0.42857142857142855,0.2857142857142857,0.0004
371,1.2944571375846863,2.301180362701416,0.5192307692307693,0.8461538461538461,0.35714285714285715,0.14285714285714285,0.0004
372,1.410109281539917,2.192976236343384,0.6153846153846154,0.8076923076923077,0.35714285714285715,0.14285714285714285,0.0004
373,1.314432442188263,2.0727477073669434,0.6153846153846154,0.8076923076923077,0.35714285714285715,0.2857142857142857,0.0004
374,1.4413989782333374,2.054901123046875,0.5576923076923077,0.7884615384615384,0.35714285714285715,0.2857142857142857,0.0004
375,1.253445029258728,1.991112232208252,0.6153846153846154,0.8269230769230769,0.35714285714285715,0.35714285714285715,0.0004
376,0.9335744976997375,2.292677879333496,0.7307692307692307,0.9230769230769231,0.35714285714285715,0.2857142857142857,0.0004
377,1.0073914229869843,2.495194911956787,0.6538461538461539,0.9230769230769231,0.35714285714285715,0.14285714285714285,0.0004
378,1.1475927829742432,2.473130702972412,0.6153846153846154,0.8653846153846154,0.35714285714285715,0.0,0.0004
379,1.1817041039466858,2.3235018253326416,0.5192307692307693,0.8653846153846154,0.35714285714285715,0.2857142857142857,0.0004
380,1.1447529196739197,2.2397303581237793,0.5192307692307693,0.8846153846153846,0.35714285714285715,0.2857142857142857,0.0004
381,1.253071665763855,2.0634524822235107,0.5384615384615384,0.8846153846153846,0.35714285714285715,0.35714285714285715,0.0004
382,1.3107158541679382,1.986698031425476,0.5192307692307693,0.8076923076923077,0.35714285714285715,0.5,0.0004
383,1.0226064920425415,2.284470796585083,0.5576923076923077,0.9038461538461539,0.35714285714285715,0.21428571428571427,0.0004
384,1.2246597409248352,2.4745447635650635,0.5576923076923077,0.8846153846153846,0.35714285714285715,0.14285714285714285,0.0004
385,1.1764453649520874,2.6378579139709473,0.5769230769230769,0.8076923076923077,0.35714285714285715,0.14285714285714285,0.0004
386,1.282639741897583,2.6877963542938232,0.6538461538461539,0.75,0.35714285714285715,0.14285714285714285,0.0004
387,1.2324773669242859,2.7111544609069824,0.6153846153846154,0.8269230769230769,0.35714285714285715,0.07142857142857142,0.0004
388,1.0696024894714355,2.705451488494873,0.6923076923076923,0.8461538461538461,0.35714285714285715,0.07142857142857142,0.0004
389,1.183177888393402,2.6476383209228516,0.6346153846153846,0.8076923076923077,0.35714285714285715,0.14285714285714285,0.0004
390,1.1946958303451538,2.548588752746582,0.6153846153846154,0.8653846153846154,0.35714285714285715,0.21428571428571427,0.0004
391,1.254084825515747,2.603708028793335,0.6346153846153846,0.8653846153846154,0.35714285714285715,0.07142857142857142,0.0004
392,1.180862307548523,2.433081865310669,0.6923076923076923,0.8076923076923077,0.35714285714285715,0.21428571428571427,0.0004
393,1.0556674003601074,2.369579792022705,0.75,0.8269230769230769,0.35714285714285715,0.21428571428571427,0.0004
394,1.3194908499717712,2.2628402709960938,0.6153846153846154,0.8461538461538461,0.35714285714285715,0.14285714285714285,0.0004
395,1.1558727622032166,2.00856876373291,0.6923076923076923,0.8076923076923077,0.35714285714285715,0.7857142857142857,0.0004
396,1.0146341025829315,2.03851056098938,0.6923076923076923,0.8269230769230769,0.35714285714285715,0.8571428571428571,0.0004
397,0.9952996969223022,2.0218544006347656,0.7307692307692307,0.8269230769230769,0.35714285714285715,0.8571428571428571,0.0004
398,1.1295442581176758,1.8235044479370117,0.6923076923076923,0.8269230769230769,0.42857142857142855,0.8571428571428571,0.0004
399,1.1836398839950562,1.6775184869766235,0.6346153846153846,0.8269230769230769,0.42857142857142855,0.8571428571428571,0.0004
400,1.2200735807418823,1.8077577352523804,0.5576923076923077,0.8269230769230769,0.42857142857142855,0.8571428571428571,0.0004
401,1.0781173706054688,2.098446846008301,0.6730769230769231,0.8269230769230769,0.35714285714285715,0.8571428571428571,0.0004
402,1.2751426100730896,2.106013536453247,0.5769230769230769,0.8269230769230769,0.35714285714285715,0.2857142857142857,0.0004
403,1.1697484254837036,2.103240489959717,0.6153846153846154,0.8846153846153846,0.35714285714285715,0.35714285714285715,0.0004
404,1.0819315910339355,1.952043890953064,0.6538461538461539,0.8846153846153846,0.35714285714285715,0.42857142857142855,0.0004
405,1.0773429870605469,1.7279132604599,0.6923076923076923,0.8653846153846154,0.42857142857142855,0.5,0.0004
406,1.2002858519554138,2.1635212898254395,0.6346153846153846,0.8653846153846154,0.35714285714285715,0.21428571428571427,0.0004
407,1.0882142782211304,2.30837345123291,0.6346153846153846,0.9038461538461539,0.35714285714285715,0.21428571428571427,0.0004
408,1.1658087968826294,2.256258964538574,0.6538461538461539,0.8076923076923077,0.35714285714285715,0.2857142857142857,0.0004
409,1.2674006223678589,2.3489465713500977,0.6346153846153846,0.8653846153846154,0.35714285714285715,0.0,0.0004
410,1.207582175731659,2.2228784561157227,0.5576923076923077,0.8461538461538461,0.35714285714285715,0.21428571428571427,0.0004
411,1.0119789242744446,2.562690019607544,0.7115384615384616,0.8846153846153846,0.2857142857142857,0.07142857142857142,0.0004
412,1.335395097732544,1.859292984008789,0.5576923076923077,0.9038461538461539,0.42857142857142855,0.35714285714285715,0.0004
413,1.114290475845337,1.9283307790756226,0.6153846153846154,0.8461538461538461,0.42857142857142855,0.2857142857142857,0.0004
414,1.0783970355987549,2.091341495513916,0.6538461538461539,0.9230769230769231,0.42857142857142855,0.2857142857142857,0.0004
415,1.062506079673767,2.426978349685669,0.7307692307692307,0.8846153846153846,0.35714285714285715,0.14285714285714285,0.0004
416,1.1487752795219421,2.4024500846862793,0.5769230769230769,0.8846153846153846,0.35714285714285715,0.14285714285714285,0.0004
417,1.1319133043289185,2.079516887664795,0.6538461538461539,0.9423076923076923,0.42857142857142855,0.35714285714285715,0.0004
418,1.2212316989898682,2.356844663619995,0.6538461538461539,0.8653846153846154,0.35714285714285715,0.07142857142857142,0.0004
419,1.145798146724701,2.1499288082122803,0.6538461538461539,0.8269230769230769,0.42857142857142855,0.14285714285714285,0.0004
420,1.0162549316883087,1.7128028869628906,0.6923076923076923,0.8653846153846154,0.5714285714285714,0.42857142857142855,0.0004
421,1.1833491325378418,2.348020553588867,0.6346153846153846,0.8269230769230769,0.42857142857142855,0.21428571428571427,0.0004
422,1.0817140340805054,2.6049649715423584,0.6346153846153846,0.8653846153846154,0.35714285714285715,0.14285714285714285,0.0004
423,0.9381468296051025,2.653104305267334,0.7307692307692307,0.8846153846153846,0.35714285714285715,0.07142857142857142,0.0004
424,0.9898527562618256,2.8606841564178467,0.5961538461538461,0.8846153846153846,0.2857142857142857,0.0,0.0004
425,1.0675386488437653,2.7223730087280273,0.6538461538461539,0.8653846153846154,0.35714285714285715,0.07142857142857142,0.0004
426,1.24772709608078,2.123776912689209,0.6153846153846154,0.8653846153846154,0.5,0.2857142857142857,0.0004
427,1.2215188145637512,2.230372190475464,0.6153846153846154,0.8653846153846154,0.5,0.2857142857142857,0.0004
428,0.9919049739837646,2.111088514328003,0.6730769230769231,0.8653846153846154,0.5,0.35714285714285715,0.0004
429,1.0004438161849976,2.374903917312622,0.6923076923076923,0.9038461538461539,0.42857142857142855,0.21428571428571427,0.0004
430,1.0835543274879456,2.6023786067962646,0.6538461538461539,0.8461538461538461,0.35714285714285715,0.21428571428571427,0.0004
431,1.0582842528820038,1.869110107421875,0.7307692307692307,0.8653846153846154,0.5714285714285714,0.42857142857142855,0.0004
432,0.9143166542053223,2.0998964309692383,0.6923076923076923,0.8653846153846154,0.5,0.2857142857142857,0.0004
433,1.1555205583572388,2.0651352405548096,0.5961538461538461,0.8846153846153846,0.5,0.2857142857142857,0.0004
434,0.9702702164649963,2.4957528114318848,0.6730769230769231,0.8846153846153846,0.35714285714285715,0.21428571428571427,0.0004
435,1.151858925819397,2.5328407287597656,0.5961538461538461,0.8076923076923077,0.42857142857142855,0.07142857142857142,0.0004
436,1.0888643860816956,2.4595680236816406,0.6153846153846154,0.8846153846153846,0.42857142857142855,0.14285714285714285,0.0004
437,0.9379226863384247,2.439234733581543,0.7884615384615384,0.9038461538461539,0.42857142857142855,0.14285714285714285,0.0004
438,1.2359173893928528,2.3238680362701416,0.6730769230769231,0.8076923076923077,0.42857142857142855,0.21428571428571427,0.0004
439,1.236745834350586,2.3297176361083984,0.6153846153846154,0.8461538461538461,0.42857142857142855,0.2857142857142857,0.0004
440,1.0670225620269775,2.5227177143096924,0.6730769230769231,0.8269230769230769,0.42857142857142855,0.21428571428571427,0.0004
441,1.351785123348236,2.318364381790161,0.5384615384615384,0.8461538461538461,0.42857142857142855,0.2857142857142857,0.0004
442,1.1420813500881195,1.6523706912994385,0.6923076923076923,0.8653846153846154,0.6428571428571429,0.42857142857142855,0.0004
443,1.011907935142517,2.1312129497528076,0.6538461538461539,0.8653846153846154,0.5,0.2857142857142857,0.0004
444,1.1910253167152405,1.7829310894012451,0.5769230769230769,0.7884615384615384,0.5,0.5,0.0004
445,1.0665872693061829,1.383652925491333,0.75,0.8461538461538461,0.7142857142857143,0.7857142857142857,0.0004
446,1.1962828040122986,2.0642759799957275,0.6538461538461539,0.9230769230769231,0.42857142857142855,0.2857142857142857,0.0004
447,1.1624914407730103,1.947808027267456,0.6923076923076923,0.8461538461538461,0.42857142857142855,0.35714285714285715,0.0004
448,0.7840121984481812,2.143066644668579,0.8076923076923077,0.8846153846153846,0.42857142857142855,0.2857142857142857,0.0004
449,0.983772337436676,1.6656982898712158,0.6923076923076923,0.8653846153846154,0.5714285714285714,0.42857142857142855,0.0004
450,1.131859540939331,1.92055344581604,0.6346153846153846,0.8846153846153846,0.42857142857142855,0.42857142857142855,0.0004
451,1.4338082075119019,2.0491018295288086,0.6153846153846154,0.8076923076923077,0.35714285714285715,0.35714285714285715,0.0004
452,1.17363041639328,2.113973617553711,0.6730769230769231,0.8076923076923077,0.5,0.35714285714285715,0.0004
453,1.1758494973182678,2.561866283416748,0.6153846153846154,0.8461538461538461,0.35714285714285715,0.14285714285714285,0.0004
454,1.2426486611366272,2.419205904006958,0.5961538461538461,0.8076923076923077,0.42857142857142855,0.07142857142857142,0.0004
455,1.081023633480072,2.3320870399475098,0.6538461538461539,0.8269230769230769,0.42857142857142855,0.21428571428571427,0.0004
456,1.118322730064392,2.100538492202759,0.6538461538461539,0.8653846153846154,0.42857142857142855,0.2857142857142857,0.0004
457,1.0242678821086884,2.2456400394439697,0.6538461538461539,0.9038461538461539,0.35714285714285715,0.14285714285714285,0.0004
458,1.3444503545761108,2.245643377304077,0.5,0.8076923076923077,0.42857142857142855,0.14285714285714285,0.0004
459,1.035606175661087,2.4310145378112793,0.6730769230769231,0.8461538461538461,0.35714285714285715,0.14285714285714285,0.0004
460,1.1214602589607239,2.4170258045196533,0.6153846153846154,0.8846153846153846,0.35714285714285715,0.07142857142857142,0.0004
461,1.190101146697998,2.301628828048706,0.5576923076923077,0.8846153846153846,0.35714285714285715,0.2857142857142857,0.0004
462,1.0833191871643066,2.104321002960205,0.6923076923076923,0.8461538461538461,0.35714285714285715,0.2857142857142857,0.0004
463,1.0837604403495789,1.9825615882873535,0.6346153846153846,0.8461538461538461,0.35714285714285715,0.2857142857142857,0.0004
464,1.1784534454345703,2.0322344303131104,0.5769230769230769,0.8076923076923077,0.35714285714285715,0.2857142857142857,0.0004
465,1.1741362810134888,2.23302960395813,0.6346153846153846,0.8269230769230769,0.35714285714285715,0.21428571428571427,0.0004
466,1.1368072628974915,2.3207168579101562,0.6923076923076923,0.8461538461538461,0.35714285714285715,0.14285714285714285,0.0004
467,1.0680884718894958,2.138449192047119,0.6923076923076923,0.8461538461538461,0.35714285714285715,0.42857142857142855,0.0004
468,1.2681326270103455,2.1289048194885254,0.5384615384615384,0.8269230769230769,0.35714285714285715,0.35714285714285715,0.0004
469,1.13918536901474,2.2161550521850586,0.6346153846153846,0.8076923076923077,0.35714285714285715,0.21428571428571427,0.0004
470,0.9462867379188538,2.0364623069763184,0.75,0.8846153846153846,0.42857142857142855,0.21428571428571427,0.0004
471,1.0776473879814148,2.230133295059204,0.6346153846153846,0.8076923076923077,0.35714285714285715,0.14285714285714285,0.0004
472,1.0004947781562805,2.2530155181884766,0.7115384615384616,0.8269230769230769,0.35714285714285715,0.21428571428571427,0.0004
473,1.2201879024505615,2.159491777420044,0.6153846153846154,0.8653846153846154,0.42857142857142855,0.21428571428571427,0.0004
474,1.214203119277954,2.4762351512908936,0.5769230769230769,0.8269230769230769,0.35714285714285715,0.14285714285714285,0.0004
475,1.1890743970870972,2.5196070671081543,0.6538461538461539,0.7884615384615384,0.35714285714285715,0.14285714285714285,0.0004
476,1.1632779240608215,2.3882668018341064,0.6153846153846154,0.8076923076923077,0.35714285714285715,0.14285714285714285,0.0004
477,1.0239580869674683,2.542738914489746,0.6923076923076923,0.8461538461538461,0.35714285714285715,0.14285714285714285,0.0004
478,1.141877830028534,2.4821908473968506,0.6730769230769231,0.8846153846153846,0.35714285714285715,0.14285714285714285,0.0004
479,1.1412761211395264,2.5145010948181152,0.6153846153846154,0.8653846153846154,0.35714285714285715,0.14285714285714285,0.0004
480,1.097629874944687,2.5500242710113525,0.5961538461538461,0.9038461538461539,0.35714285714285715,0.14285714285714285,0.0004
481,1.1865441799163818,2.3759422302246094,0.5961538461538461,0.8461538461538461,0.35714285714285715,0.21428571428571427,0.0004
482,1.018652319908142,2.3475077152252197,0.6923076923076923,0.7884615384615384,0.35714285714285715,0.21428571428571427,0.0004
483,1.0018868744373322,2.463531494140625,0.7115384615384616,0.8461538461538461,0.35714285714285715,0.07142857142857142,0.0004
484,1.1898975372314453,2.338282585144043,0.6730769230769231,0.8076923076923077,0.35714285714285715,0.14285714285714285,0.0004
485,1.2002384066581726,2.313588857650757,0.6153846153846154,0.8653846153846154,0.35714285714285715,0.07142857142857142,0.0004
486,1.1080012917518616,2.0359184741973877,0.6923076923076923,0.8269230769230769,0.35714285714285715,0.2857142857142857,0.0004
487,1.2516819834709167,2.1766624450683594,0.5769230769230769,0.8269230769230769,0.35714285714285715,0.5,0.0004
488,1.1619548797607422,1.7683231830596924,0.6346153846153846,0.8269230769230769,0.5,0.8571428571428571,0.0004
489,1.061893343925476,1.8490524291992188,0.7115384615384616,0.8269230769230769,0.35714285714285715,0.8571428571428571,0.0004
490,1.063713788986206,1.553311824798584,0.6730769230769231,0.8269230769230769,0.6428571428571429,0.8571428571428571,0.0004
491,1.0267420411109924,1.8139126300811768,0.6538461538461539,0.8269230769230769,0.42857142857142855,0.8571428571428571,0.0004
492,1.3758285641670227,2.018526315689087,0.5,0.8269230769230769,0.35714285714285715,0.2857142857142857,0.0004
493,1.3891739249229431,1.9803239107131958,0.5576923076923077,0.8461538461538461,0.42857142857142855,0.7142857142857143,0.0004
494,1.094087541103363,1.9098387956619263,0.6730769230769231,0.8269230769230769,0.42857142857142855,0.5714285714285714,0.0004
495,1.284499704837799,2.054257869720459,0.6346153846153846,0.8461538461538461,0.35714285714285715,0.35714285714285715,0.0004
496,1.1604623794555664,2.021380662918091,0.5769230769230769,0.8269230769230769,0.42857142857142855,0.2857142857142857,0.0004
497,1.2409564852714539,2.1316933631896973,0.5961538461538461,0.8653846153846154,0.35714285714285715,0.14285714285714285,0.0004
498,1.0438238680362701,2.081608772277832,0.6730769230769231,0.8653846153846154,0.35714285714285715,0.21428571428571427,0.0004
499,1.184276521205902,1.904620885848999,0.6153846153846154,0.8269230769230769,0.42857142857142855,0.2857142857142857,0.0004
500,1.1824822425842285,1.9456586837768555,0.5961538461538461,0.9038461538461539,0.42857142857142855,0.2857142857142857,0.0004
501,1.0565903782844543,1.9914581775665283,0.6923076923076923,0.8846153846153846,0.42857142857142855,0.21428571428571427,0.0004
502,1.2285096645355225,2.0319266319274902,0.6153846153846154,0.8269230769230769,0.42857142857142855,0.14285714285714285,0.0004
503,1.0340139865875244,2.204916477203369,0.6538461538461539,0.7884615384615384,0.35714285714285715,0.14285714285714285,0.0004
504,1.1247017979621887,1.9766924381256104,0.6538461538461539,0.8461538461538461,0.42857142857142855,0.2857142857142857,0.0004
505,1.082913190126419,2.188021183013916,0.6153846153846154,0.9038461538461539,0.35714285714285715,0.14285714285714285,0.0004
506,1.249656319618225,2.1939961910247803,0.5961538461538461,0.7692307692307693,0.35714285714285715,0.21428571428571427,0.0004
507,1.1656147837638855,2.146144390106201,0.5961538461538461,0.9038461538461539,0.35714285714285715,0.14285714285714285,0.0004
508,1.0747811794281006,1.8669533729553223,0.7115384615384616,0.8269230769230769,0.5,0.2857142857142857,0.0004
509,1.2514700889587402,1.642439365386963,0.6153846153846154,0.7884615384615384,0.5,0.5,0.0004
510,1.215945065021515,1.5991346836090088,0.5769230769230769,0.8461538461538461,0.5,0.7142857142857143,0.0004
511,0.9704949855804443,1.6639039516448975,0.7307692307692307,0.8461538461538461,0.5,0.35714285714285715,0.0004
512,1.070350170135498,1.9300565719604492,0.6923076923076923,0.8269230769230769,0.35714285714285715,0.2857142857142857,0.0004
513,1.1088125109672546,1.8059401512145996,0.6153846153846154,0.8653846153846154,0.5,0.42857142857142855,0.0004
514,1.1711871027946472,2.196556568145752,0.5961538461538461,0.8846153846153846,0.42857142857142855,0.21428571428571427,0.0004
515,1.0888309478759766,2.270463466644287,0.6730769230769231,0.8076923076923077,0.35714285714285715,0.07142857142857142,0.0004
516,0.955885499715805,2.113999843597412,0.7115384615384616,0.8846153846153846,0.42857142857142855,0.21428571428571427,0.0004
517,0.9348908066749573,2.240546941757202,0.7307692307692307,0.8846153846153846,0.42857142857142855,0.21428571428571427,0.0004
518,1.0863728523254395,2.0798499584198,0.6538461538461539,0.8461538461538461,0.42857142857142855,0.2857142857142857,0.0004
519,1.157892107963562,2.3472862243652344,0.6538461538461539,0.8846153846153846,0.35714285714285715,0.14285714285714285,0.0004
520,1.148768573999405,2.2321009635925293,0.6346153846153846,0.9038461538461539,0.35714285714285715,0.21428571428571427,0.0004
521,1.0229554772377014,2.4209609031677246,0.7307692307692307,0.8461538461538461,0.35714285714285715,0.14285714285714285,0.0004
522,1.0320155918598175,2.2829113006591797,0.6153846153846154,0.9230769230769231,0.42857142857142855,0.14285714285714285,0.0004
523,1.280112087726593,2.4985828399658203,0.5192307692307693,0.8269230769230769,0.35714285714285715,0.07142857142857142,0.0004
524,1.1650049686431885,2.081920623779297,0.6346153846153846,0.8269230769230769,0.42857142857142855,0.2857142857142857,0.0004
525,1.0491535067558289,2.3045315742492676,0.6346153846153846,0.9038461538461539,0.35714285714285715,0.21428571428571427,0.0004
526,1.0453631579875946,1.7689964771270752,0.6730769230769231,0.9038461538461539,0.5,0.35714285714285715,0.0004
527,1.1380125880241394,2.2780299186706543,0.6346153846153846,0.8076923076923077,0.35714285714285715,0.21428571428571427,0.0004
528,1.1841179132461548,2.3820230960845947,0.6346153846153846,0.7884615384615384,0.35714285714285715,0.21428571428571427,0.0004
529,1.0957139432430267,2.2647910118103027,0.6730769230769231,0.8653846153846154,0.42857142857142855,0.21428571428571427,0.0004
530,1.2212951183319092,2.2400553226470947,0.6153846153846154,0.8076923076923077,0.42857142857142855,0.2857142857142857,0.0004
531,1.2828674912452698,2.2764878273010254,0.5384615384615384,0.8846153846153846,0.42857142857142855,0.14285714285714285,0.0004
532,1.2170672416687012,2.410212993621826,0.5961538461538461,0.8461538461538461,0.35714285714285715,0.14285714285714285,0.0004
533,1.0638989806175232,2.0698657035827637,0.6538461538461539,0.8461538461538461,0.42857142857142855,0.21428571428571427,0.0004
534,1.1415340304374695,1.8416674137115479,0.6153846153846154,0.8461538461538461,0.5,0.35714285714285715,0.0004
535,0.9948319792747498,2.403446912765503,0.6923076923076923,0.8269230769230769,0.2857142857142857,0.6428571428571429,0.0004
536,1.0917457938194275,1.6718151569366455,0.6923076923076923,0.8269230769230769,0.5,0.6428571428571429,0.0004
537,1.1240630149841309,1.4414379596710205,0.5961538461538461,0.8461538461538461,0.5714285714285714,0.42857142857142855,0.0004
538,0.9295375943183899,1.944129467010498,0.6923076923076923,0.8653846153846154,0.5,0.35714285714285715,0.0004
539,1.182775855064392,2.6217703819274902,0.6153846153846154,0.8846153846153846,0.35714285714285715,0.14285714285714285,0.0004
540,1.290211260318756,2.546220064163208,0.6153846153846154,0.7692307692307693,0.35714285714285715,0.14285714285714285,0.0004
541,1.2298208475112915,2.322707176208496,0.6346153846153846,0.8076923076923077,0.42857142857142855,0.21428571428571427,0.0004
542,1.082264244556427,2.516927480697632,0.6538461538461539,0.8653846153846154,0.35714285714285715,0.14285714285714285,0.0004
543,0.9750715494155884,2.5192084312438965,0.6923076923076923,0.8653846153846154,0.35714285714285715,0.14285714285714285,0.0004
544,0.9723240435123444,2.551819086074829,0.6730769230769231,0.8653846153846154,0.35714285714285715,0.07142857142857142,0.0004
545,1.3722628951072693,2.3700835704803467,0.5961538461538461,0.75,0.35714285714285715,0.21428571428571427,0.0004
546,1.1170607209205627,2.4549245834350586,0.7115384615384616,0.8461538461538461,0.35714285714285715,0.14285714285714285,0.0004
547,1.1925667226314545,2.438055992126465,0.6730769230769231,0.7884615384615384,0.35714285714285715,0.14285714285714285,0.0004
548,1.1861575841903687,2.433079242706299,0.6153846153846154,0.8653846153846154,0.35714285714285715,0.07142857142857142,0.0004
549,1.2699421048164368,2.335583209991455,0.5576923076923077,0.8269230769230769,0.35714285714285715,0.2857142857142857,0.0004
550,1.3411864638328552,2.2982189655303955,0.6153846153846154,0.7692307692307693,0.35714285714285715,0.14285714285714285,0.0004
551,1.1522935628890991,2.2544565200805664,0.5769230769230769,0.8653846153846154,0.35714285714285715,0.21428571428571427,0.0004
552,1.2496212124824524,2.2207560539245605,0.5384615384615384,0.8461538461538461,0.35714285714285715,0.35714285714285715,0.0004
553,1.0553131103515625,2.141947031021118,0.6923076923076923,0.8269230769230769,0.35714285714285715,0.35714285714285715,0.0004
554,1.1875056326389313,2.1437036991119385,0.7115384615384616,0.8461538461538461,0.35714285714285715,0.35714285714285715,0.0004
555,1.1095617413520813,2.1745128631591797,0.7115384615384616,0.8269230769230769,0.35714285714285715,0.42857142857142855,0.0004
556,1.140865683555603,2.0790481567382812,0.6346153846153846,0.8461538461538461,0.35714285714285715,0.5,0.0004
557,0.891646146774292,2.11858868598938,0.7115384615384616,0.8461538461538461,0.35714285714285715,0.42857142857142855,0.0004
558,1.1455932259559631,2.129258632659912,0.7115384615384616,0.8653846153846154,0.35714285714285715,0.42857142857142855,0.0004
559,1.074290245771408,2.070443630218506,0.6923076923076923,0.8269230769230769,0.35714285714285715,0.7857142857142857,0.0004
560,1.2807379364967346,2.208199977874756,0.5961538461538461,0.8269230769230769,0.35714285714285715,0.8571428571428571,0.0004
561,1.0751535892486572,2.0877976417541504,0.6923076923076923,0.8269230769230769,0.35714285714285715,0.7857142857142857,0.0004
562,1.1615358591079712,2.1016125679016113,0.6153846153846154,0.8269230769230769,0.35714285714285715,0.7857142857142857,0.0004
563,1.0165091454982758,2.1838839054107666,0.7115384615384616,0.8269230769230769,0.35714285714285715,0.2857142857142857,0.0004
564,1.0098356902599335,2.257472515106201,0.7307692307692307,0.8461538461538461,0.35714285714285715,0.0,0.0004
565,1.0968125462532043,2.2264907360076904,0.6153846153846154,0.8461538461538461,0.35714285714285715,0.14285714285714285,0.0004
566,1.1677619814872742,2.248741388320923,0.6153846153846154,0.8846153846153846,0.35714285714285715,0.14285714285714285,0.0004
567,1.2065991759300232,2.245861768722534,0.6730769230769231,0.8653846153846154,0.35714285714285715,0.21428571428571427,0.0004
568,1.1824111938476562,2.1380741596221924,0.6730769230769231,0.8269230769230769,0.35714285714285715,0.14285714285714285,0.0004
569,1.1959441900253296,2.1410467624664307,0.6153846153846154,0.8846153846153846,0.35714285714285715,0.2857142857142857,0.0004
570,0.9647124707698822,2.267782688140869,0.7307692307692307,0.9230769230769231,0.35714285714285715,0.14285714285714285,0.0004
571,1.098994880914688,2.3313238620758057,0.6346153846153846,0.8846153846153846,0.35714285714285715,0.07142857142857142,0.0004
572,1.2169901728630066,2.2830586433410645,0.5192307692307693,0.9038461538461539,0.35714285714285715,0.14285714285714285,0.0004
573,1.0268341898918152,2.2083516120910645,0.6538461538461539,0.8076923076923077,0.35714285714285715,0.14285714285714285,0.0004
574,1.1302664279937744,2.0883748531341553,0.6730769230769231,0.8846153846153846,0.35714285714285715,0.14285714285714285,0.0004
575,1.1190018057823181,2.246701955795288,0.6730769230769231,0.8461538461538461,0.35714285714285715,0.07142857142857142,0.0004
576,1.1724704504013062,2.2298784255981445,0.5961538461538461,0.8846153846153846,0.35714285714285715,0.14285714285714285,0.0004
577,1.086864709854126,2.2757441997528076,0.6923076923076923,0.8653846153846154,0.35714285714285715,0.07142857142857142,0.0004
578,1.0426973104476929,2.145407199859619,0.7307692307692307,0.8461538461538461,0.35714285714285715,0.21428571428571427,0.0004
579,1.277803897857666,2.3202054500579834,0.6153846153846154,0.8461538461538461,0.35714285714285715,0.14285714285714285,0.0004
580,1.269300103187561,2.261420726776123,0.6153846153846154,0.8269230769230769,0.35714285714285715,0.21428571428571427,0.0004
581,1.140893429517746,2.2586216926574707,0.5576923076923077,0.8653846153846154,0.35714285714285715,0.14285714285714285,0.0004
582,1.0043277740478516,2.2793593406677246,0.6538461538461539,0.9038461538461539,0.35714285714285715,0.21428571428571427,0.0004
583,0.8939144015312195,2.353821277618408,0.7692307692307693,0.8846153846153846,0.35714285714285715,0.21428571428571427,0.0004
584,1.2502792477607727,2.6116867065429688,0.5961538461538461,0.8076923076923077,0.35714285714285715,0.07142857142857142,0.0004
585,1.0104572772979736,2.5194215774536133,0.6923076923076923,0.8846153846153846,0.35714285714285715,0.14285714285714285,0.0004
586,1.1239763498306274,2.41929292678833,0.5961538461538461,0.8653846153846154,0.35714285714285715,0.21428571428571427,0.0004
587,1.0722227096557617,2.5877108573913574,0.6346153846153846,0.8653846153846154,0.35714285714285715,0.14285714285714285,0.0004
588,1.3140515089035034,2.424530506134033,0.6153846153846154,0.8076923076923077,0.35714285714285715,0.21428571428571427,0.0004
589,1.1158227920532227,2.5750434398651123,0.6346153846153846,0.8653846153846154,0.35714285714285715,0.07142857142857142,0.0004
590,1.0153301358222961,2.5019423961639404,0.6538461538461539,0.9230769230769231,0.35714285714285715,0.14285714285714285,0.0004
591,1.182023525238037,2.3571643829345703,0.6730769230769231,0.9230769230769231,0.35714285714285715,0.14285714285714285,0.0004
592,0.9783037304878235,2.3922808170318604,0.6538461538461539,0.8653846153846154,0.42857142857142855,0.07142857142857142,0.0004
593,1.1316499710083008,2.090508222579956,0.5961538461538461,0.8653846153846154,0.42857142857142855,0.14285714285714285,0.0004
594,1.1829511523246765,2.2499003410339355,0.6153846153846154,0.8461538461538461,0.35714285714285715,0.21428571428571427,0.0004
595,1.111591637134552,2.3789563179016113,0.6730769230769231,0.8846153846153846,0.35714285714285715,0.14285714285714285,0.0004
596,0.9762482643127441,2.408930540084839,0.7115384615384616,0.8846153846153846,0.35714285714285715,0.21428571428571427,0.0004
597,1.001444935798645,2.662691354751587,0.7115384615384616,0.8461538461538461,0.35714285714285715,0.14285714285714285,0.0004
598,0.9802850782871246,2.7232213020324707,0.7692307692307693,0.8846153846153846,0.35714285714285715,0.14285714285714285,0.0004
599,1.200415462255478,2.7173848152160645,0.5961538461538461,0.8461538461538461,0.35714285714285715,0.14285714285714285,0.0004
600,1.1483412981033325,2.3639960289001465,0.6346153846153846,0.8461538461538461,0.35714285714285715,0.2857142857142857,0.0004
601,0.9431209862232208,2.666830062866211,0.6923076923076923,0.9038461538461539,0.35714285714285715,0.14285714285714285,0.0004
602,1.0786482691764832,2.43456768989563,0.6538461538461539,0.8653846153846154,0.35714285714285715,0.21428571428571427,0.0004
603,1.020370602607727,2.5264923572540283,0.75,0.8653846153846154,0.35714285714285715,0.07142857142857142,0.0004
604,0.9696153998374939,2.4591598510742188,0.7115384615384616,0.9807692307692307,0.35714285714285715,0.14285714285714285,0.0004
605,1.1130263209342957,1.981621503829956,0.6346153846153846,0.8269230769230769,0.42857142857142855,0.2857142857142857,0.0004
606,0.9976028800010681,2.2915236949920654,0.75,0.8846153846153846,0.42857142857142855,0.14285714285714285,0.0004
607,1.015028178691864,2.525590658187866,0.6730769230769231,0.9038461538461539,0.35714285714285715,0.14285714285714285,0.0004
608,1.10065495967865,2.3450422286987305,0.7307692307692307,0.8846153846153846,0.42857142857142855,0.21428571428571427,0.0004
609,1.0923183858394623,2.6185266971588135,0.7307692307692307,0.9038461538461539,0.35714285714285715,0.21428571428571427,0.0004
610,0.9348552227020264,2.6599416732788086,0.7307692307692307,0.8076923076923077,0.35714285714285715,0.14285714285714285,0.0004
611,1.2453065514564514,2.652191162109375,0.6346153846153846,0.8269230769230769,0.35714285714285715,0.21428571428571427,0.0004
612,1.1643332242965698,2.7177634239196777,0.6538461538461539,0.8846153846153846,0.35714285714285715,0.14285714285714285,0.0004
613,1.1179535388946533,2.687061309814453,0.6538461538461539,0.8653846153846154,0.35714285714285715,0.14285714285714285,0.0004
614,1.2046456933021545,2.449338436126709,0.6346153846153846,0.8653846153846154,0.42857142857142855,0.14285714285714285,0.0004
615,1.0309656262397766,2.3890767097473145,0.7115384615384616,0.9230769230769231,0.42857142857142855,0.2857142857142857,0.0004
616,0.978338897228241,2.7481212615966797,0.7115384615384616,0.9038461538461539,0.35714285714285715,0.07142857142857142,0.0004
617,1.1105475425720215,2.4584081172943115,0.6153846153846154,0.8846153846153846,0.35714285714285715,0.14285714285714285,0.0004
618,0.951898455619812,2.3563601970672607,0.7307692307692307,0.9230769230769231,0.35714285714285715,0.14285714285714285,0.0004
619,1.1487461924552917,2.2659363746643066,0.5769230769230769,0.8269230769230769,0.35714285714285715,0.14285714285714285,0.0004
620,1.049324870109558,2.348407745361328,0.6730769230769231,0.8461538461538461,0.35714285714285715,0.14285714285714285,0.0004
621,1.0094414353370667,2.5971240997314453,0.6923076923076923,0.8653846153846154,0.35714285714285715,0.21428571428571427,0.0004
622,1.1127060651779175,2.8149094581604004,0.6538461538461539,0.8653846153846154,0.35714285714285715,0.14285714285714285,0.0004
623,0.8933248817920685,2.617140293121338,0.7884615384615384,0.8846153846153846,0.35714285714285715,0.21428571428571427,0.0004
624,1.2380300760269165,2.814639091491699,0.5769230769230769,0.8461538461538461,0.35714285714285715,0.07142857142857142,0.0004
625,0.972194492816925,2.436311960220337,0.75,0.8846153846153846,0.42857142857142855,0.2857142857142857,0.0004
626,1.090657651424408,2.5655786991119385,0.6538461538461539,0.9038461538461539,0.35714285714285715,0.21428571428571427,0.0004
627,1.1825456619262695,2.7729640007019043,0.5961538461538461,0.8653846153846154,0.35714285714285715,0.14285714285714285,0.0004
628,1.2647346258163452,2.995457649230957,0.6538461538461539,0.8269230769230769,0.35714285714285715,0.07142857142857142,0.0004
629,1.0535250902175903,3.1546120643615723,0.6923076923076923,0.8653846153846154,0.35714285714285715,0.07142857142857142,0.0004
630,1.1458756029605865,2.879910469055176,0.6923076923076923,0.8653846153846154,0.35714285714285715,0.21428571428571427,0.0004
631,1.172301560640335,2.7476000785827637,0.5769230769230769,0.8461538461538461,0.42857142857142855,0.14285714285714285,0.0004
632,1.0077467560768127,3.2170510292053223,0.7307692307692307,0.8846153846153846,0.35714285714285715,0.0,0.0004
633,1.087552547454834,2.6545894145965576,0.6923076923076923,0.8846153846153846,0.35714285714285715,0.14285714285714285,0.0004
634,1.0657921433448792,2.897143840789795,0.7115384615384616,0.8846153846153846,0.35714285714285715,0.14285714285714285,0.0004
635,0.9498829245567322,2.9107699394226074,0.7115384615384616,0.9038461538461539,0.35714285714285715,0.14285714285714285,0.0004
636,0.9699490070343018,2.855330467224121,0.7115384615384616,0.8846153846153846,0.35714285714285715,0.21428571428571427,0.0004
637,1.1570960879325867,2.882810592651367,0.5769230769230769,0.8653846153846154,0.35714285714285715,0.14285714285714285,0.0004
638,1.338325321674347,2.7117362022399902,0.6153846153846154,0.8653846153846154,0.35714285714285715,0.21428571428571427,0.0004
639,1.1438472867012024,2.3457210063934326,0.6730769230769231,0.8846153846153846,0.42857142857142855,0.35714285714285715,0.0004
640,1.040300965309143,2.479806900024414,0.6730769230769231,0.9230769230769231,0.42857142857142855,0.2857142857142857,0.0004
641,1.1383615732192993,2.830132484436035,0.6730769230769231,0.9038461538461539,0.35714285714285715,0.14285714285714285,0.0004
642,0.9203990995883942,2.9622912406921387,0.7115384615384616,0.9230769230769231,0.35714285714285715,0.07142857142857142,0.0004
643,0.970488429069519,2.833272695541382,0.7307692307692307,0.9038461538461539,0.35714285714285715,0.14285714285714285,0.0004
644,1.0222585201263428,2.7202072143554688,0.6346153846153846,0.8846153846153846,0.35714285714285715,0.2857142857142857,0.0004
645,1.1327000856399536,3.060528516769409,0.6153846153846154,0.8846153846153846,0.35714285714285715,0.14285714285714285,0.0004
646,1.2311633229255676,2.8837761878967285,0.6346153846153846,0.8269230769230769,0.35714285714285715,0.21428571428571427,0.0004
647,0.9734234809875488,3.0459847450256348,0.5961538461538461,0.9230769230769231,0.35714285714285715,0.14285714285714285,0.0004
648,1.2981491684913635,3.0504631996154785,0.6346153846153846,0.8653846153846154,0.35714285714285715,0.14285714285714285,0.0004
649,1.074733316898346,2.928748607635498,0.6538461538461539,0.8653846153846154,0.2857142857142857,0.14285714285714285,0.0004
650,1.1838745474815369,2.91747784614563,0.6538461538461539,0.8269230769230769,0.2857142857142857,0.14285714285714285,0.0004
651,0.8721860349178314,2.762631893157959,0.75,0.9038461538461539,0.35714285714285715,0.21428571428571427,0.0004
652,1.1580208539962769,2.8466672897338867,0.5961538461538461,0.8461538461538461,0.35714285714285715,0.14285714285714285,0.0004
653,1.1457825899124146,2.6586809158325195,0.6730769230769231,0.8076923076923077,0.35714285714285715,0.2857142857142857,0.0004
654,1.3098302483558655,2.4478864669799805,0.5384615384615384,0.9038461538461539,0.35714285714285715,0.2857142857142857,0.0004
655,1.0733143389225006,2.2949461936950684,0.6923076923076923,0.8653846153846154,0.35714285714285715,0.35714285714285715,0.0004
656,1.4138963222503662,2.224323272705078,0.4423076923076923,0.8269230769230769,0.35714285714285715,0.42857142857142855,0.0004
657,1.1991970539093018,2.391340732574463,0.6153846153846154,0.8461538461538461,0.35714285714285715,0.35714285714285715,0.0004
658,1.2995226383209229,2.4761135578155518,0.5192307692307693,0.9038461538461539,0.35714285714285715,0.2857142857142857,0.0004
659,1.1588090062141418,2.709597110748291,0.6923076923076923,0.8461538461538461,0.35714285714285715,0.14285714285714285,0.0004
660,1.1889471411705017,2.748626232147217,0.5769230769230769,0.8653846153846154,0.35714285714285715,0.14285714285714285,0.0004
661,1.0395214557647705,2.753357410430908,0.6538461538461539,0.9038461538461539,0.35714285714285715,0.14285714285714285,0.0004
662,1.2094197273254395,2.567352771759033,0.6538461538461539,0.8269230769230769,0.35714285714285715,0.2857142857142857,0.0004
663,1.0031796097755432,2.6045403480529785,0.6538461538461539,0.9038461538461539,0.35714285714285715,0.21428571428571427,0.0004
664,0.9327220320701599,2.6580426692962646,0.7307692307692307,0.9038461538461539,0.35714285714285715,0.14285714285714285,0.0004
665,1.1185889840126038,2.6777868270874023,0.6923076923076923,0.8653846153846154,0.35714285714285715,0.14285714285714285,0.0004
666,1.1021167635917664,2.6288747787475586,0.5769230769230769,0.8461538461538461,0.35714285714285715,0.21428571428571427,0.0004
667,1.02085679769516,2.7537894248962402,0.6730769230769231,0.9230769230769231,0.35714285714285715,0.14285714285714285,0.0004
668,1.1514743566513062,2.8141493797302246,0.5961538461538461,0.8653846153846154,0.35714285714285715,0.14285714285714285,0.0004
669,1.15419539809227,2.787388801574707,0.5961538461538461,0.8653846153846154,0.35714285714285715,0.14285714285714285,0.0004
670,1.1359280943870544,2.7602133750915527,0.6730769230769231,0.8653846153846154,0.35714285714285715,0.14285714285714285,0.0004
671,1.1423572301864624,2.733609676361084,0.6923076923076923,0.9230769230769231,0.35714285714285715,0.14285714285714285,0.0004
672,1.2441079020500183,2.4985508918762207,0.5769230769230769,0.8461538461538461,0.35714285714285715,0.21428571428571427,0.0004
673,0.9633933901786804,2.8051109313964844,0.6923076923076923,0.9230769230769231,0.35714285714285715,0.14285714285714285,0.0004
674,1.1245171427726746,2.8258461952209473,0.6346153846153846,0.8653846153846154,0.35714285714285715,0.14285714285714285,0.0004
675,1.1631916761398315,2.962411880493164,0.5384615384615384,0.8653846153846154,0.35714285714285715,0.14285714285714285,0.0004
676,0.9821488261222839,2.970019817352295,0.6538461538461539,0.9423076923076923,0.35714285714285715,0.14285714285714285,0.0004
677,1.0587509274482727,3.0576212406158447,0.6538461538461539,0.8461538461538461,0.35714285714285715,0.14285714285714285,0.0004
678,0.9309363961219788,3.0664024353027344,0.6730769230769231,0.9423076923076923,0.35714285714285715,0.14285714285714285,0.0004
679,1.00620436668396,3.152064561843872,0.7692307692307693,0.9230769230769231,0.35714285714285715,0.14285714285714285,0.0004
680,1.0619831085205078,3.207916021347046,0.5961538461538461,0.8846153846153846,0.35714285714285715,0.14285714285714285,0.0004
681,1.1944032311439514,3.2185168266296387,0.6153846153846154,0.8653846153846154,0.35714285714285715,0.14285714285714285,0.0004
682,1.4684532284736633,3.2908895015716553,0.5961538461538461,0.8461538461538461,0.35714285714285715,0.14285714285714285,0.0004
683,1.1908922791481018,3.2367820739746094,0.6538461538461539,0.7884615384615384,0.35714285714285715,0.14285714285714285,0.0004
684,0.9533016681671143,3.2211217880249023,0.6538461538461539,0.8846153846153846,0.35714285714285715,0.14285714285714285,0.0004
685,1.242600679397583,3.1911888122558594,0.6923076923076923,0.8269230769230769,0.35714285714285715,0.14285714285714285,0.0004
686,0.9977631568908691,3.111520767211914,0.7307692307692307,0.8269230769230769,0.35714285714285715,0.07142857142857142,0.0004
687,0.9900313019752502,3.12646484375,0.7884615384615384,0.8653846153846154,0.35714285714285715,0.07142857142857142,0.0004
688,1.1871419548988342,3.0985307693481445,0.5961538461538461,0.8269230769230769,0.35714285714285715,0.07142857142857142,0.0004
689,0.9546926319599152,2.927031993865967,0.6923076923076923,0.8653846153846154,0.35714285714285715,0.14285714285714285,0.0004
690,0.9965310394763947,2.8869404792785645,0.5961538461538461,0.9038461538461539,0.35714285714285715,0.14285714285714285,0.0004
691,1.0920175909996033,2.7603249549865723,0.6346153846153846,0.8653846153846154,0.35714285714285715,0.21428571428571427,0.0004
692,0.9164195656776428,2.726790428161621,0.6923076923076923,0.8846153846153846,0.35714285714285715,0.2857142857142857,0.0004
693,0.9853601455688477,2.714799165725708,0.6153846153846154,0.8846153846153846,0.35714285714285715,0.2857142857142857,0.0004
694,1.135815680027008,2.7655394077301025,0.6923076923076923,0.8653846153846154,0.35714285714285715,0.14285714285714285,0.0004
695,0.9985396265983582,2.7743148803710938,0.7115384615384616,0.8653846153846154,0.35714285714285715,0.14285714285714285,0.0004
696,1.041881501674652,2.814526081085205,0.6346153846153846,0.8653846153846154,0.35714285714285715,0.07142857142857142,0.0004
697,0.9405274987220764,2.7129461765289307,0.6923076923076923,0.9038461538461539,0.35714285714285715,0.14285714285714285,0.0004
698,0.9776384830474854,2.4609360694885254,0.6153846153846154,0.9230769230769231,0.42857142857142855,0.21428571428571427,0.0004
699,1.3782484531402588,2.411646604537964,0.5961538461538461,0.9423076923076923,0.35714285714285715,0.2857142857142857,0.0004
700,1.2224303483963013,2.2911593914031982,0.6346153846153846,0.8653846153846154,0.42857142857142855,0.21428571428571427,0.0004
701,1.1909916400909424,2.388589382171631,0.6730769230769231,0.8846153846153846,0.42857142857142855,0.2857142857142857,0.0004
702,1.1387887001037598,2.613213300704956,0.6153846153846154,0.8846153846153846,0.35714285714285715,0.14285714285714285,0.0004
703,1.0650014281272888,2.658055067062378,0.6153846153846154,0.8269230769230769,0.35714285714285715,0.07142857142857142,0.0004
704,1.1466381549835205,2.7105627059936523,0.6153846153846154,0.8653846153846154,0.35714285714285715,0.14285714285714285,0.0004
705,1.1594502329826355,2.716311454772949,0.7115384615384616,0.8846153846153846,0.35714285714285715,0.14285714285714285,0.0004
706,1.1481870412826538,2.631244659423828,0.6538461538461539,0.9038461538461539,0.35714285714285715,0.14285714285714285,0.0004
707,1.1828696727752686,2.6450343132019043,0.5769230769230769,0.8846153846153846,0.35714285714285715,0.14285714285714285,0.0004
708,1.0810574293136597,2.7498319149017334,0.5961538461538461,0.9230769230769231,0.35714285714285715,0.14285714285714285,0.0004
709,1.147157609462738,2.883915424346924,0.5769230769230769,0.9038461538461539,0.35714285714285715,0.14285714285714285,0.0004
710,0.9157940149307251,2.941495895385742,0.6923076923076923,0.9423076923076923,0.35714285714285715,0.14285714285714285,0.0004
711,1.1261131763458252,2.932436466217041,0.6923076923076923,0.9038461538461539,0.35714285714285715,0.14285714285714285,0.0004
712,1.0429763197898865,3.0099596977233887,0.7692307692307693,0.8461538461538461,0.35714285714285715,0.14285714285714285,0.0004
713,1.0338590741157532,2.891655445098877,0.7307692307692307,0.9038461538461539,0.35714285714285715,0.21428571428571427,0.0004
714,0.9872234761714935,2.9087390899658203,0.7692307692307693,0.8653846153846154,0.35714285714285715,0.14285714285714285,0.0004
715,0.9715668559074402,3.0164761543273926,0.6153846153846154,0.9423076923076923,0.35714285714285715,0.14285714285714285,0.0004
716,1.1062355637550354,3.0270819664001465,0.6538461538461539,0.8846153846153846,0.35714285714285715,0.07142857142857142,0.0004
717,1.0273323357105255,2.897775650024414,0.6538461538461539,0.8653846153846154,0.35714285714285715,0.14285714285714285,0.0004
718,1.1805532574653625,2.618389129638672,0.5,0.8269230769230769,0.35714285714285715,0.21428571428571427,0.0004
719,0.979756772518158,2.95571231842041,0.6730769230769231,0.8653846153846154,0.35714285714285715,0.14285714285714285,0.0004
720,1.4002483487129211,3.007335662841797,0.5576923076923077,0.9038461538461539,0.35714285714285715,0.14285714285714285,0.0004
721,0.928862452507019,3.099091053009033,0.7307692307692307,0.9038461538461539,0.35714285714285715,0.14285714285714285,0.0004
722,0.9963061809539795,3.191581964492798,0.6923076923076923,0.8846153846153846,0.35714285714285715,0.07142857142857142,0.0004
723,1.2218245267868042,3.065852165222168,0.5192307692307693,0.8461538461538461,0.35714285714285715,0.14285714285714285,0.0004
724,1.2869804501533508,2.9996843338012695,0.5961538461538461,0.8269230769230769,0.35714285714285715,0.14285714285714285,0.0004
725,0.883162796497345,3.1336002349853516,0.7692307692307693,0.9230769230769231,0.35714285714285715,0.07142857142857142,0.0004
726,0.9609910249710083,2.995457172393799,0.6923076923076923,0.7692307692307693,0.35714285714285715,0.14285714285714285,0.0004
727,1.0249726176261902,2.801191806793213,0.7115384615384616,0.8269230769230769,0.35714285714285715,0.21428571428571427,0.0004
728,1.0712226927280426,2.7421300411224365,0.5576923076923077,0.9038461538461539,0.35714285714285715,0.14285714285714285,0.0004
729,1.223334789276123,2.8682663440704346,0.5961538461538461,0.8653846153846154,0.35714285714285715,0.07142857142857142,0.0004
730,0.9299297332763672,2.6782021522521973,0.75,0.9230769230769231,0.35714285714285715,0.14285714285714285,0.0004
731,1.117016613483429,2.570824384689331,0.5576923076923077,0.8846153846153846,0.35714285714285715,0.14285714285714285,0.0004
732,0.9209313690662384,2.509716510772705,0.7884615384615384,0.8846153846153846,0.35714285714285715,0.14285714285714285,0.0004
733,1.0719181895256042,2.5992002487182617,0.6730769230769231,0.9230769230769231,0.35714285714285715,0.14285714285714285,0.0004
734,1.1164565086364746,2.685096502304077,0.6538461538461539,0.9038461538461539,0.35714285714285715,0.21428571428571427,0.0004
735,1.1633110642433167,2.6651318073272705,0.5769230769230769,0.9423076923076923,0.35714285714285715,0.21428571428571427,0.0004
736,0.9655285477638245,2.5766654014587402,0.7307692307692307,0.9230769230769231,0.42857142857142855,0.21428571428571427,0.0004
737,1.031997948884964,2.853482723236084,0.6538461538461539,0.8846153846153846,0.35714285714285715,0.14285714285714285,0.0004
738,0.885994166135788,2.814948081970215,0.6923076923076923,0.9230769230769231,0.35714285714285715,0.21428571428571427,0.0004
739,0.9992590546607971,2.971586227416992,0.7115384615384616,0.8461538461538461,0.35714285714285715,0.14285714285714285,0.0004
740,1.175856500864029,3.0279550552368164,0.6346153846153846,0.8653846153846154,0.35714285714285715,0.14285714285714285,0.0004
741,1.105808675289154,2.729243755340576,0.6730769230769231,0.8653846153846154,0.35714285714285715,0.2857142857142857,0.0004
742,0.9798078536987305,2.833496570587158,0.6730769230769231,0.8653846153846154,0.35714285714285715,0.2857142857142857,0.0004
743,1.064081609249115,2.9142065048217773,0.6153846153846154,0.9230769230769231,0.35714285714285715,0.21428571428571427,0.0004
744,1.0186723470687866,2.759979486465454,0.6153846153846154,0.9423076923076923,0.42857142857142855,0.21428571428571427,0.0004
745,1.1059913635253906,2.800877571105957,0.5961538461538461,0.8846153846153846,0.35714285714285715,0.21428571428571427,0.0004
746,1.1631683111190796,2.835296154022217,0.5384615384615384,0.9038461538461539,0.35714285714285715,0.21428571428571427,0.0004
747,1.0482943654060364,2.820385217666626,0.6346153846153846,0.9230769230769231,0.35714285714285715,0.14285714285714285,0.0004
748,1.0952974557876587,2.6354339122772217,0.7307692307692307,0.8653846153846154,0.35714285714285715,0.21428571428571427,0.0004
749,0.9593181312084198,2.9360642433166504,0.7115384615384616,0.9230769230769231,0.35714285714285715,0.14285714285714285,0.0004
750,1.0592538118362427,3.033785820007324,0.6538461538461539,0.9038461538461539,0.35714285714285715,0.14285714285714285,0.0004
751,1.2215024828910828,2.874704599380493,0.5576923076923077,0.8653846153846154,0.35714285714285715,0.21428571428571427,0.0004
752,0.9907948076725006,2.8122546672821045,0.6538461538461539,0.8846153846153846,0.35714285714285715,0.21428571428571427,0.0004
753,0.9813657701015472,3.2641682624816895,0.6538461538461539,0.9423076923076923,0.35714285714285715,0.07142857142857142,0.0004
754,0.9585549831390381,3.195906400680542,0.7307692307692307,0.9230769230769231,0.35714285714285715,0.14285714285714285,0.0004
755,0.9464581906795502,3.2860875129699707,0.6346153846153846,0.9423076923076923,0.2857142857142857,0.14285714285714285,0.0004
756,1.0501366257667542,3.1706972122192383,0.7307692307692307,0.8653846153846154,0.35714285714285715,0.14285714285714285,0.0004
757,0.9261547327041626,3.187671661376953,0.7115384615384616,0.8846153846153846,0.35714285714285715,0.14285714285714285,0.0004
758,1.2013985514640808,3.2127411365509033,0.5769230769230769,0.8653846153846154,0.35714285714285715,0.14285714285714285,0.0004
759,1.1305559277534485,3.000126838684082,0.5384615384615384,0.9038461538461539,0.42857142857142855,0.21428571428571427,0.0004
760,0.9501442015171051,3.4016809463500977,0.7307692307692307,0.8846153846153846,0.2857142857142857,0.14285714285714285,0.0004
761,1.0951187312602997,3.4781904220581055,0.5769230769230769,0.8461538461538461,0.2857142857142857,0.07142857142857142,0.0004
762,0.8549870848655701,3.083378791809082,0.6538461538461539,1.0,0.35714285714285715,0.21428571428571427,0.0004
763,0.961438775062561,3.330280303955078,0.6346153846153846,0.9423076923076923,0.35714285714285715,0.07142857142857142,0.0004
764,0.9716845452785492,3.1346235275268555,0.6538461538461539,0.9807692307692307,0.35714285714285715,0.21428571428571427,0.0004
765,1.0228899121284485,3.2046735286712646,0.6923076923076923,0.9230769230769231,0.35714285714285715,0.07142857142857142,0.0004
766,1.1145546734333038,3.153430223464966,0.6538461538461539,0.9230769230769231,0.35714285714285715,0.14285714285714285,0.0004
767,1.289702832698822,2.999333620071411,0.6153846153846154,0.8653846153846154,0.35714285714285715,0.14285714285714285,0.0004
768,1.1415063738822937,3.1742029190063477,0.6923076923076923,0.9038461538461539,0.35714285714285715,0.14285714285714285,0.0004
769,0.8816914558410645,3.3232545852661133,0.6538461538461539,0.9423076923076923,0.35714285714285715,0.07142857142857142,0.0004
770,1.0158239006996155,3.199227809906006,0.6730769230769231,0.9038461538461539,0.35714285714285715,0.21428571428571427,0.0004
771,1.144970715045929,3.1232924461364746,0.6346153846153846,0.8846153846153846,0.42857142857142855,0.21428571428571427,0.0004
772,1.124190628528595,3.3433218002319336,0.6923076923076923,0.8653846153846154,0.35714285714285715,0.14285714285714285,0.0004
773,1.090110719203949,3.405604839324951,0.6346153846153846,0.9038461538461539,0.35714285714285715,0.14285714285714285,0.0004
774,0.9139808416366577,3.459608554840088,0.6538461538461539,0.9423076923076923,0.35714285714285715,0.14285714285714285,0.0004
775,1.171120285987854,3.671905279159546,0.7115384615384616,0.9038461538461539,0.2857142857142857,0.07142857142857142,0.0004
776,1.056990921497345,3.4466114044189453,0.6730769230769231,0.9230769230769231,0.35714285714285715,0.07142857142857142,0.0004
777,1.1236194372177124,3.3903160095214844,0.6730769230769231,0.8653846153846154,0.35714285714285715,0.21428571428571427,0.0004
778,0.9964099526405334,3.497523784637451,0.5961538461538461,0.9038461538461539,0.35714285714285715,0.14285714285714285,0.0004
779,0.8606983721256256,3.4600682258605957,0.7307692307692307,0.9038461538461539,0.35714285714285715,0.14285714285714285,0.0004
780,1.0456296801567078,3.519212245941162,0.7307692307692307,0.8846153846153846,0.2857142857142857,0.14285714285714285,0.0004
781,0.9522071182727814,3.3528056144714355,0.7307692307692307,0.9038461538461539,0.35714285714285715,0.21428571428571427,0.0004
782,0.8876570165157318,3.7328925132751465,0.6923076923076923,0.9038461538461539,0.35714285714285715,0.07142857142857142,0.0004
783,1.0597694516181946,3.556755542755127,0.6538461538461539,0.8653846153846154,0.35714285714285715,0.14285714285714285,0.0004
784,1.268715262413025,3.184034585952759,0.5961538461538461,0.8653846153846154,0.35714285714285715,0.21428571428571427,0.0004
785,1.1497333645820618,3.0921833515167236,0.6538461538461539,0.8846153846153846,0.35714285714285715,0.14285714285714285,0.0004
786,1.0765277743339539,3.180889129638672,0.7115384615384616,0.8461538461538461,0.35714285714285715,0.14285714285714285,0.0004
787,1.0973736643791199,2.866607189178467,0.5961538461538461,0.8653846153846154,0.42857142857142855,0.21428571428571427,0.0004
788,1.2350967526435852,2.8686771392822266,0.6730769230769231,0.8653846153846154,0.42857142857142855,0.21428571428571427,0.0004
789,1.002590924501419,3.486968994140625,0.6538461538461539,0.9038461538461539,0.35714285714285715,0.14285714285714285,0.0004
790,1.1829716563224792,3.589141368865967,0.5961538461538461,0.8269230769230769,0.35714285714285715,0.14285714285714285,0.0004
791,1.0814955234527588,3.514120578765869,0.6923076923076923,0.8653846153846154,0.35714285714285715,0.14285714285714285,0.0004
792,1.0238203406333923,3.6961681842803955,0.6538461538461539,0.8461538461538461,0.35714285714285715,0.14285714285714285,0.0004
793,1.2001341581344604,3.350482940673828,0.6153846153846154,0.9038461538461539,0.35714285714285715,0.21428571428571427,0.0004
794,0.9502393901348114,3.546844959259033,0.6923076923076923,0.9423076923076923,0.35714285714285715,0.14285714285714285,0.0004
795,0.968294233083725,3.692406415939331,0.6538461538461539,0.9423076923076923,0.2857142857142857,0.14285714285714285,0.0004
796,1.1316154599189758,3.88289213180542,0.5769230769230769,0.9038461538461539,0.35714285714285715,0.14285714285714285,0.0004
797,1.0655429363250732,3.651198387145996,0.6346153846153846,0.8653846153846154,0.35714285714285715,0.21428571428571427,0.0004
798,1.2015036940574646,3.856781482696533,0.6730769230769231,0.8846153846153846,0.35714285714285715,0.14285714285714285,0.0004
799,1.141115963459015,3.588442325592041,0.6346153846153846,0.8653846153846154,0.35714285714285715,0.14285714285714285,0.0004
800,1.264067828655243,3.7301723957061768,0.5769230769230769,0.8461538461538461,0.35714285714285715,0.14285714285714285,0.0004
801,1.1400386095046997,3.5019664764404297,0.6346153846153846,0.8846153846153846,0.35714285714285715,0.14285714285714285,0.0004
802,0.8726993203163147,3.4953041076660156,0.7307692307692307,0.9038461538461539,0.35714285714285715,0.21428571428571427,0.0004
803,1.1556421220302582,3.6928176879882812,0.6346153846153846,0.8653846153846154,0.35714285714285715,0.07142857142857142,0.0004
804,1.050201416015625,3.295910358428955,0.6538461538461539,0.9423076923076923,0.35714285714285715,0.21428571428571427,0.0004
805,1.26935476064682,3.4461050033569336,0.5576923076923077,0.8846153846153846,0.35714285714285715,0.21428571428571427,0.0004
806,1.1966412663459778,3.552163600921631,0.5961538461538461,0.8653846153846154,0.35714285714285715,0.07142857142857142,0.0004
807,1.0214690566062927,3.582545280456543,0.6153846153846154,0.8653846153846154,0.35714285714285715,0.14285714285714285,0.0004
808,1.1695009469985962,3.5665340423583984,0.6923076923076923,0.8461538461538461,0.35714285714285715,0.21428571428571427,0.0004
809,1.2126488089561462,3.7071521282196045,0.5769230769230769,0.8846153846153846,0.35714285714285715,0.14285714285714285,0.0004
810,1.0972310304641724,3.7550673484802246,0.5769230769230769,0.9038461538461539,0.35714285714285715,0.07142857142857142,0.0004
811,0.9668129682540894,3.6049623489379883,0.6538461538461539,0.9230769230769231,0.35714285714285715,0.14285714285714285,0.0004
812,1.1856298446655273,3.6645612716674805,0.5576923076923077,0.9038461538461539,0.35714285714285715,0.14285714285714285,0.0004
813,0.8824821412563324,3.592386245727539,0.75,0.9423076923076923,0.35714285714285715,0.14285714285714285,0.0004
814,1.0789521932601929,3.642179250717163,0.6730769230769231,0.9038461538461539,0.35714285714285715,0.07142857142857142,0.0004
815,1.1408872604370117,3.51104736328125,0.6538461538461539,0.8076923076923077,0.35714285714285715,0.14285714285714285,0.0004
816,0.9093077480792999,3.3052785396575928,0.6923076923076923,0.9423076923076923,0.35714285714285715,0.14285714285714285,0.0004
817,1.059404194355011,3.630798816680908,0.6153846153846154,0.8846153846153846,0.35714285714285715,0.07142857142857142,0.0004
818,1.0400103032588959,3.5015275478363037,0.6923076923076923,0.9230769230769231,0.35714285714285715,0.14285714285714285,0.0004
819,1.0821672081947327,3.6137924194335938,0.6538461538461539,0.9230769230769231,0.35714285714285715,0.07142857142857142,0.0004
820,1.2090637981891632,3.6229095458984375,0.5769230769230769,0.9038461538461539,0.35714285714285715,0.14285714285714285,0.0004
821,1.1968342065811157,3.6076903343200684,0.6346153846153846,0.8461538461538461,0.35714285714285715,0.21428571428571427,0.0004
822,1.0363609492778778,3.5984890460968018,0.6538461538461539,0.8461538461538461,0.35714285714285715,0.07142857142857142,0.0004
823,1.0634546875953674,3.576085090637207,0.5961538461538461,0.9038461538461539,0.2857142857142857,0.21428571428571427,0.0004
824,1.2074946165084839,3.1657214164733887,0.5961538461538461,0.8269230769230769,0.35714285714285715,0.2857142857142857,0.0004
825,1.129317045211792,3.4389073848724365,0.5961538461538461,0.8653846153846154,0.35714285714285715,0.21428571428571427,0.0004
826,0.8867081105709076,3.6046133041381836,0.6923076923076923,0.9423076923076923,0.35714285714285715,0.07142857142857142,0.0004
827,1.0931492149829865,3.7441482543945312,0.5769230769230769,0.9038461538461539,0.35714285714285715,0.07142857142857142,0.0004
828,1.11597341299057,3.6405656337738037,0.6538461538461539,0.9230769230769231,0.35714285714285715,0.14285714285714285,0.0004
829,1.181746780872345,3.3696415424346924,0.5769230769230769,0.9038461538461539,0.35714285714285715,0.21428571428571427,0.0004
830,1.1777123808860779,3.6571078300476074,0.5961538461538461,0.8846153846153846,0.35714285714285715,0.0,0.0004
831,0.922974020242691,3.007859230041504,0.6346153846153846,0.9230769230769231,0.35714285714285715,0.2857142857142857,0.0004
832,1.1375223398208618,3.2236368656158447,0.5576923076923077,0.8846153846153846,0.35714285714285715,0.2857142857142857,0.0004
833,0.8635565340518951,3.3733227252960205,0.7692307692307693,0.9615384615384616,0.35714285714285715,0.21428571428571427,0.0004
834,0.9827406406402588,3.8372573852539062,0.7115384615384616,0.9230769230769231,0.2857142857142857,0.07142857142857142,0.0004
835,1.1007199883460999,3.8202037811279297,0.6153846153846154,0.8653846153846154,0.35714285714285715,0.14285714285714285,0.0004
836,0.9719371497631073,4.08028507232666,0.6346153846153846,0.9038461538461539,0.35714285714285715,0.07142857142857142,0.0004
837,0.9291096031665802,3.9825363159179688,0.7115384615384616,0.8846153846153846,0.35714285714285715,0.14285714285714285,0.0004
838,1.2492163181304932,3.6359589099884033,0.6346153846153846,0.8076923076923077,0.35714285714285715,0.21428571428571427,0.0004
839,0.969967395067215,3.594653367996216,0.5961538461538461,0.9423076923076923,0.35714285714285715,0.21428571428571427,0.0004
840,0.8994293212890625,3.2386045455932617,0.6923076923076923,0.9615384615384616,0.35714285714285715,0.2857142857142857,0.0004
841,0.812738299369812,4.014130592346191,0.75,0.9423076923076923,0.35714285714285715,0.07142857142857142,0.0004
842,0.9721604883670807,3.8106942176818848,0.7115384615384616,0.8846153846153846,0.35714285714285715,0.14285714285714285,0.0004
843,1.2883245944976807,3.9846816062927246,0.5192307692307693,0.8653846153846154,0.35714285714285715,0.14285714285714285,0.0004
844,0.9119356572628021,4.0888237953186035,0.7307692307692307,0.9230769230769231,0.35714285714285715,0.14285714285714285,0.0004
845,0.8913062810897827,3.835172653198242,0.6538461538461539,0.9615384615384616,0.35714285714285715,0.21428571428571427,0.0004
846,0.964530348777771,4.112577438354492,0.6538461538461539,0.9423076923076923,0.35714285714285715,0.14285714285714285,0.0004
847,0.8062067329883575,4.040803909301758,0.6923076923076923,0.9423076923076923,0.35714285714285715,0.14285714285714285,0.0004
848,1.1929131150245667,4.1771087646484375,0.6346153846153846,0.8846153846153846,0.35714285714285715,0.14285714285714285,0.0004
849,1.0772351920604706,4.10036563873291,0.6153846153846154,0.8653846153846154,0.35714285714285715,0.14285714285714285,0.0004
850,1.167866289615631,3.538750410079956,0.6538461538461539,0.8461538461538461,0.35714285714285715,0.21428571428571427,0.0004
851,1.0667336881160736,3.161769390106201,0.6153846153846154,0.8846153846153846,0.35714285714285715,0.14285714285714285,0.0004
852,0.9681614935398102,3.1015446186065674,0.6730769230769231,0.9038461538461539,0.35714285714285715,0.14285714285714285,0.0004
853,1.0627449452877045,2.7859158515930176,0.6923076923076923,0.8269230769230769,0.35714285714285715,0.2857142857142857,0.0004
854,1.1057100892066956,3.318161964416504,0.6153846153846154,0.8846153846153846,0.35714285714285715,0.21428571428571427,0.0004
855,0.9067018628120422,4.003696441650391,0.6923076923076923,0.9230769230769231,0.35714285714285715,0.14285714285714285,0.0004
856,0.8321383595466614,3.9321129322052,0.7307692307692307,0.9230769230769231,0.35714285714285715,0.21428571428571427,0.0004
857,0.8447951376438141,4.291774272918701,0.7692307692307693,0.9230769230769231,0.35714285714285715,0.14285714285714285,0.0004
858,0.8935023546218872,4.11436653137207,0.7115384615384616,0.9230769230769231,0.35714285714285715,0.21428571428571427,0.0004
859,1.2933064699172974,4.195483207702637,0.6346153846153846,0.8269230769230769,0.35714285714285715,0.21428571428571427,0.0004
860,1.0428524017333984,4.299482345581055,0.7115384615384616,0.8461538461538461,0.35714285714285715,0.14285714285714285,0.0004
861,1.041532427072525,4.054629325866699,0.6730769230769231,0.8846153846153846,0.35714285714285715,0.21428571428571427,0.0004
862,1.2370861172676086,4.014143466949463,0.7115384615384616,0.8269230769230769,0.35714285714285715,0.21428571428571427,0.0004
863,1.2019720077514648,3.7824041843414307,0.6923076923076923,0.8846153846153846,0.35714285714285715,0.21428571428571427,0.0004
864,1.200861394405365,3.4711947441101074,0.6923076923076923,0.8269230769230769,0.42857142857142855,0.2857142857142857,0.0004
865,1.35228031873703,3.434582233428955,0.5,0.8269230769230769,0.35714285714285715,0.14285714285714285,0.0004
866,1.0880804061889648,2.82859468460083,0.5961538461538461,0.9423076923076923,0.35714285714285715,0.21428571428571427,0.0004
867,0.9116310775279999,2.7730202674865723,0.75,0.9038461538461539,0.35714285714285715,0.14285714285714285,0.0004
868,1.042719542980194,2.079188585281372,0.6538461538461539,0.8846153846153846,0.42857142857142855,0.35714285714285715,0.0004
869,1.16425621509552,2.196030616760254,0.6346153846153846,0.8269230769230769,0.35714285714285715,0.2857142857142857,0.0004
870,1.1903257369995117,2.4115262031555176,0.6153846153846154,0.8269230769230769,0.35714285714285715,0.2857142857142857,0.0004
871,1.0879494547843933,2.3386151790618896,0.5769230769230769,0.8461538461538461,0.35714285714285715,0.2857142857142857,0.0004
872,1.1071004271507263,2.778975486755371,0.6538461538461539,0.8653846153846154,0.35714285714285715,0.14285714285714285,0.0004
873,1.081098198890686,2.8134098052978516,0.6538461538461539,0.9230769230769231,0.35714285714285715,0.21428571428571427,0.0004
874,0.9736879765987396,3.177471876144409,0.7115384615384616,0.9038461538461539,0.35714285714285715,0.14285714285714285,0.0004
875,1.015396386384964,3.120575428009033,0.6346153846153846,0.9230769230769231,0.42857142857142855,0.21428571428571427,0.0004
876,1.1894679069519043,3.6163253784179688,0.6153846153846154,0.9230769230769231,0.35714285714285715,0.14285714285714285,0.0004
877,0.9726141691207886,3.474010944366455,0.6730769230769231,0.8846153846153846,0.35714285714285715,0.14285714285714285,0.0004
878,1.0933830440044403,3.4071850776672363,0.5576923076923077,0.9038461538461539,0.35714285714285715,0.21428571428571427,0.0004
879,1.0886136591434479,3.526210308074951,0.6538461538461539,0.9038461538461539,0.35714285714285715,0.21428571428571427,0.0004
880,1.05110701918602,3.5348563194274902,0.5961538461538461,0.9423076923076923,0.35714285714285715,0.21428571428571427,0.0004
881,0.852417379617691,3.600721836090088,0.7115384615384616,0.9423076923076923,0.35714285714285715,0.21428571428571427,0.0004
882,0.8689016699790955,3.3586673736572266,0.7692307692307693,0.9423076923076923,0.42857142857142855,0.2857142857142857,0.0004
883,1.3089161217212677,3.835780620574951,0.6730769230769231,0.8461538461538461,0.35714285714285715,0.14285714285714285,0.0004
884,0.9147918820381165,3.8510332107543945,0.7307692307692307,0.9423076923076923,0.35714285714285715,0.14285714285714285,0.0004
885,1.1855031251907349,3.872598648071289,0.6346153846153846,0.8653846153846154,0.2857142857142857,0.14285714285714285,0.0004
886,0.7159008085727692,3.2491555213928223,0.8076923076923077,0.9423076923076923,0.35714285714285715,0.2857142857142857,0.0004
887,1.0438450276851654,4.013688087463379,0.5961538461538461,0.9038461538461539,0.35714285714285715,0.14285714285714285,0.0004
888,0.8971121609210968,3.3055572509765625,0.6538461538461539,0.9423076923076923,0.35714285714285715,0.2857142857142857,0.0004
889,1.1714869737625122,2.7943921089172363,0.6153846153846154,0.9423076923076923,0.35714285714285715,0.42857142857142855,0.0004
890,1.2802701890468597,3.9416756629943848,0.46153846153846156,0.9423076923076923,0.35714285714285715,0.21428571428571427,0.0004
891,1.0165773630142212,3.8147358894348145,0.6346153846153846,0.9615384615384616,0.35714285714285715,0.21428571428571427,0.0004
892,1.4088477492332458,3.4672043323516846,0.5576923076923077,0.8461538461538461,0.2857142857142857,0.14285714285714285,0.0004
893,1.347419559955597,2.189168930053711,0.5961538461538461,0.9038461538461539,0.35714285714285715,0.35714285714285715,0.0004
894,1.6317996978759766,1.8199505805969238,0.5576923076923077,0.8269230769230769,0.21428571428571427,0.7857142857142857,0.0004
895,1.5593203902244568,1.7464731931686401,0.5,0.8269230769230769,0.35714285714285715,0.7142857142857143,0.0004
896,1.3322862386703491,2.42470121383667,0.5384615384615384,0.8461538461538461,0.35714285714285715,0.21428571428571427,0.0004
897,1.2991521954536438,3.094769239425659,0.4423076923076923,0.9038461538461539,0.35714285714285715,0.21428571428571427,0.0004
898,1.560078740119934,3.4817075729370117,0.34615384615384615,0.7692307692307693,0.35714285714285715,0.14285714285714285,0.0004
899,1.3050979375839233,3.592679023742676,0.46153846153846156,0.9038461538461539,0.35714285714285715,0.14285714285714285,0.0004
900,1.548125982284546,3.0787060260772705,0.4230769230769231,0.7884615384615384,0.35714285714285715,0.21428571428571427,0.0004
901,1.3104358911514282,2.6753058433532715,0.4807692307692308,0.8846153846153846,0.35714285714285715,0.14285714285714285,0.0004
902,1.393090307712555,2.394742727279663,0.40384615384615385,0.8846153846153846,0.35714285714285715,0.14285714285714285,0.0004
903,1.318558394908905,2.6722264289855957,0.5192307692307693,0.8846153846153846,0.35714285714285715,0.14285714285714285,0.0004
904,1.3013346195220947,3.4407920837402344,0.5,0.9038461538461539,0.35714285714285715,0.14285714285714285,0.0004
905,1.2864822149276733,3.6134495735168457,0.5769230769230769,0.8846153846153846,0.35714285714285715,0.14285714285714285,0.0004
906,1.0794565677642822,3.965920925140381,0.4807692307692308,0.9615384615384616,0.35714285714285715,0.14285714285714285,0.0004
907,1.329774558544159,4.010037899017334,0.5,0.8653846153846154,0.35714285714285715,0.14285714285714285,0.0004
908,1.2897153496742249,3.907486915588379,0.5384615384615384,0.8846153846153846,0.35714285714285715,0.14285714285714285,0.0004
909,1.2926512956619263,3.667538642883301,0.5384615384615384,0.9038461538461539,0.35714285714285715,0.14285714285714285,0.0004
910,1.4094563126564026,3.217061996459961,0.46153846153846156,0.8269230769230769,0.35714285714285715,0.14285714285714285,0.0004
911,1.3876889944076538,2.8040661811828613,0.38461538461538464,0.8846153846153846,0.35714285714285715,0.14285714285714285,0.0004
912,1.3537439703941345,2.4264328479766846,0.4230769230769231,0.8653846153846154,0.35714285714285715,0.21428571428571427,0.0004
913,1.3106985688209534,2.408834218978882,0.4423076923076923,0.8269230769230769,0.35714285714285715,0.14285714285714285,0.0004
914,1.2974390983581543,2.6662471294403076,0.5,0.8269230769230769,0.35714285714285715,0.21428571428571427,0.0004
915,1.2565571069717407,3.2144904136657715,0.4807692307692308,0.8076923076923077,0.35714285714285715,0.14285714285714285,0.0004
916,1.254605233669281,3.512664794921875,0.4807692307692308,0.8653846153846154,0.35714285714285715,0.14285714285714285,0.0004
917,1.3649985194206238,3.695563793182373,0.46153846153846156,0.8653846153846154,0.35714285714285715,0.14285714285714285,0.0004
918,1.3603732585906982,3.7587366104125977,0.4807692307692308,0.8461538461538461,0.35714285714285715,0.14285714285714285,0.0004
919,1.2390628457069397,3.744619607925415,0.5576923076923077,0.9038461538461539,0.35714285714285715,0.14285714285714285,0.0004
920,1.2433249950408936,3.7140045166015625,0.4807692307692308,0.9038461538461539,0.35714285714285715,0.14285714285714285,0.0004
921,1.2387202382087708,3.6631882190704346,0.5576923076923077,0.8846153846153846,0.35714285714285715,0.14285714285714285,0.0004
922,1.4037151336669922,3.5416054725646973,0.4807692307692308,0.8846153846153846,0.35714285714285715,0.14285714285714285,0.0004
923,1.1611860394477844,3.3161001205444336,0.5192307692307693,0.9230769230769231,0.35714285714285715,0.14285714285714285,0.0004
924,1.0931439995765686,3.271193504333496,0.5384615384615384,0.9230769230769231,0.35714285714285715,0.14285714285714285,0.0004
925,1.116922914981842,3.1945433616638184,0.4807692307692308,0.9423076923076923,0.35714285714285715,0.14285714285714285,0.0004
926,1.32988703250885,3.055661201477051,0.5,0.8653846153846154,0.35714285714285715,0.14285714285714285,0.0004
927,1.4165802001953125,2.9048781394958496,0.4423076923076923,0.8461538461538461,0.35714285714285715,0.14285714285714285,0.0004
928,1.3878310918807983,2.738015651702881,0.46153846153846156,0.9230769230769231,0.35714285714285715,0.14285714285714285,0.0004
929,1.2926206588745117,2.5706095695495605,0.4807692307692308,0.9038461538461539,0.35714285714285715,0.14285714285714285,0.0004
930,1.2777499556541443,2.5557172298431396,0.5192307692307693,0.8846153846153846,0.35714285714285715,0.21428571428571427,0.0004
931,1.1124721765518188,2.587979793548584,0.5192307692307693,0.9230769230769231,0.35714285714285715,0.21428571428571427,0.0004
932,1.3408538699150085,2.769496202468872,0.5,0.8653846153846154,0.35714285714285715,0.14285714285714285,0.0004
933,1.198362946510315,2.865779399871826,0.5,0.9038461538461539,0.35714285714285715,0.14285714285714285,0.0004
934,1.2684127688407898,3.0120513439178467,0.5192307692307693,0.8846153846153846,0.35714285714285715,0.14285714285714285,0.0004
935,1.262822151184082,3.079078197479248,0.5,0.9038461538461539,0.35714285714285715,0.14285714285714285,0.0004
936,1.0625665783882141,3.126340866088867,0.5769230769230769,0.9423076923076923,0.35714285714285715,0.14285714285714285,0.0004
937,1.201803743839264,3.162106513977051,0.46153846153846156,0.9038461538461539,0.35714285714285715,0.14285714285714285,0.0004
938,1.3420177698135376,3.188887596130371,0.46153846153846156,0.8269230769230769,0.35714285714285715,0.14285714285714285,0.0004
939,1.5864525437355042,3.0354690551757812,0.36538461538461536,0.8076923076923077,0.35714285714285715,0.14285714285714285,0.0004
940,1.0885741710662842,2.713561773300171,0.5961538461538461,0.9423076923076923,0.35714285714285715,0.21428571428571427,0.0004
941,1.3268169164657593,2.537477731704712,0.46153846153846156,0.8846153846153846,0.35714285714285715,0.21428571428571427,0.0004
942,1.2708551287651062,2.426781177520752,0.5,0.8653846153846154,0.35714285714285715,0.21428571428571427,0.0004
943,1.1338406205177307,2.518561363220215,0.5961538461538461,0.8846153846153846,0.35714285714285715,0.14285714285714285,0.0004
944,1.2160672843456268,2.573129177093506,0.4807692307692308,0.9038461538461539,0.35714285714285715,0.14285714285714285,0.0004
945,1.1730957627296448,2.7535085678100586,0.5384615384615384,0.9038461538461539,0.35714285714285715,0.14285714285714285,0.0004
946,1.2084413766860962,2.982846260070801,0.5961538461538461,0.8846153846153846,0.35714285714285715,0.14285714285714285,0.0004
947,1.4272170066833496,3.151566982269287,0.4423076923076923,0.8653846153846154,0.35714285714285715,0.14285714285714285,0.0004
948,1.3161066174507141,3.2248458862304688,0.5576923076923077,0.8846153846153846,0.35714285714285715,0.14285714285714285,0.0004
949,1.333228051662445,3.2715601921081543,0.5,0.9038461538461539,0.35714285714285715,0.14285714285714285,0.0004
950,1.2375710606575012,3.287726879119873,0.5192307692307693,0.8846153846153846,0.35714285714285715,0.14285714285714285,0.0004
951,1.3314335942268372,3.2299156188964844,0.5384615384615384,0.8653846153846154,0.35714285714285715,0.14285714285714285,0.0004
952,1.284416675567627,3.007737874984741,0.4423076923076923,0.8653846153846154,0.35714285714285715,0.14285714285714285,0.0004
953,1.152139127254486,2.8336610794067383,0.5576923076923077,0.9423076923076923,0.35714285714285715,0.14285714285714285,0.0004
954,1.1951925158500671,2.6814541816711426,0.5961538461538461,0.9230769230769231,0.35714285714285715,0.21428571428571427,0.0004
955,1.522230625152588,2.55574631690979,0.36538461538461536,0.8653846153846154,0.35714285714285715,0.2857142857142857,0.0004
956,1.3267313838005066,2.6026716232299805,0.4807692307692308,0.8846153846153846,0.35714285714285715,0.21428571428571427,0.0004
957,1.2182458639144897,2.839399814605713,0.5192307692307693,0.9230769230769231,0.35714285714285715,0.14285714285714285,0.0004
958,1.2884119749069214,2.945692539215088,0.4807692307692308,0.9038461538461539,0.35714285714285715,0.14285714285714285,0.0004
959,1.106050431728363,3.185504913330078,0.5769230769230769,0.9230769230769231,0.35714285714285715,0.14285714285714285,0.0004
960,1.34309720993042,3.4263670444488525,0.46153846153846156,0.8653846153846154,0.35714285714285715,0.14285714285714285,0.0004
961,1.047344148159027,3.6096034049987793,0.5961538461538461,0.9423076923076923,0.35714285714285715,0.14285714285714285,0.0004
962,1.150084674358368,3.7076520919799805,0.5384615384615384,0.8846153846153846,0.35714285714285715,0.14285714285714285,0.0004
