epoch,train_loss,val_loss,train_acc_action,train_acc_status,val_acc_action,val_acc_status,learning_rate
1,1.6699485778808594,1.5680184364318848,0.3269230769230769,0.7884615384615384,0.35714285714285715,0.8571428571428571,0.0004
2,1.568188488483429,1.5858218669891357,0.36538461538461536,0.8269230769230769,0.14285714285714285,0.8571428571428571,0.0004
3,1.5780568718910217,1.5022978782653809,0.4807692307692308,0.8269230769230769,0.5714285714285714,0.8571428571428571,0.0004
4,1.5806562304496765,1.4910494089126587,0.4230769230769231,0.8269230769230769,0.42857142857142855,0.8571428571428571,0.0004
5,1.5157219767570496,1.5299086570739746,0.46153846153846156,0.8269230769230769,0.42857142857142855,0.8571428571428571,0.0004
6,1.4175950288772583,1.508710503578186,0.5,0.8269230769230769,0.42857142857142855,0.8571428571428571,0.0004
7,1.4607025980949402,1.6297378540039062,0.4230769230769231,0.8269230769230769,0.14285714285714285,0.8571428571428571,0.0004
8,1.5083863735198975,1.5966615676879883,0.40384615384615385,0.8269230769230769,0.21428571428571427,0.8571428571428571,0.0004
9,1.4864121079444885,1.430034875869751,0.4423076923076923,0.8269230769230769,0.42857142857142855,0.8571428571428571,0.0004
10,1.369727611541748,1.5888433456420898,0.5384615384615384,0.8269230769230769,0.2857142857142857,0.8571428571428571,0.0004
11,1.4397957921028137,1.5148499011993408,0.5384615384615384,0.8269230769230769,0.5714285714285714,0.8571428571428571,0.0004
12,1.4691128134727478,1.5712857246398926,0.4807692307692308,0.8269230769230769,0.42857142857142855,0.8571428571428571,0.0004
13,1.3737165331840515,1.393359899520874,0.5384615384615384,0.8269230769230769,0.5,0.8571428571428571,0.0004
14,1.3367668390274048,1.1891932487487793,0.5961538461538461,0.8269230769230769,0.5,0.8571428571428571,0.0004
15,1.3953063488006592,1.1364610195159912,0.5769230769230769,0.8269230769230769,0.6428571428571429,0.8571428571428571,0.0004
16,1.2732104659080505,1.1813056468963623,0.5,0.8269230769230769,0.7142857142857143,0.8571428571428571,0.0004
17,1.1692879796028137,1.2845330238342285,0.5961538461538461,0.8269230769230769,0.5,0.8571428571428571,0.0004
18,1.1831961870193481,1.3506700992584229,0.6346153846153846,0.8269230769230769,0.5714285714285714,0.8571428571428571,0.0004
19,1.1143245697021484,1.3181713819503784,0.5961538461538461,0.8269230769230769,0.5714285714285714,0.8571428571428571,0.0004
20,1.275738000869751,1.4420440196990967,0.5769230769230769,0.8269230769230769,0.6428571428571429,0.8571428571428571,0.0004
21,1.0894434452056885,1.3008818626403809,0.5769230769230769,0.8269230769230769,0.6428571428571429,0.8571428571428571,0.0004
22,1.0211860239505768,1.1127115488052368,0.7115384615384616,0.8269230769230769,0.7142857142857143,0.9285714285714286,0.0004
23,1.1686777472496033,1.0630913972854614,0.6346153846153846,0.8846153846153846,0.5714285714285714,0.8571428571428571,0.0004
24,1.0583381652832031,1.1703176498413086,0.7307692307692307,0.8461538461538461,0.7142857142857143,0.8571428571428571,0.0004
25,1.2272379696369171,0.9992372989654541,0.5576923076923077,0.8269230769230769,0.7142857142857143,0.9285714285714286,0.0004
26,0.9647574126720428,0.8216364979743958,0.7115384615384616,0.9615384615384616,0.8571428571428571,0.8571428571428571,0.0004
27,1.1345842480659485,1.2395007610321045,0.6730769230769231,0.8653846153846154,0.5714285714285714,0.8571428571428571,0.0004
28,0.9019757807254791,0.7813068628311157,0.7115384615384616,0.9615384615384616,0.8571428571428571,0.9285714285714286,0.0004
29,1.268496811389923,1.2763102054595947,0.6346153846153846,0.9038461538461539,0.7142857142857143,0.8571428571428571,0.0004
30,0.9754506647586823,1.5527918338775635,0.6730769230769231,0.9423076923076923,0.5714285714285714,0.7857142857142857,0.0004
31,1.0874952375888824,1.5137698650360107,0.6538461538461539,0.9038461538461539,0.6428571428571429,0.8571428571428571,0.0004
32,1.2355908751487732,1.3134859800338745,0.5384615384615384,0.9038461538461539,0.5,0.9285714285714286,0.0004
33,0.9967980980873108,1.1567304134368896,0.5961538461538461,0.9423076923076923,0.6428571428571429,0.8571428571428571,0.0004
34,0.9904564917087555,0.944392204284668,0.7115384615384616,0.9615384615384616,0.8571428571428571,0.7857142857142857,0.0004
35,0.9965043365955353,0.9189258217811584,0.6730769230769231,0.9423076923076923,0.6428571428571429,0.8571428571428571,0.0004
36,1.0634710192680359,0.7950398921966553,0.6730769230769231,0.9038461538461539,0.8571428571428571,0.9285714285714286,0.0004
37,1.089730590581894,0.971392810344696,0.6730769230769231,0.9423076923076923,0.7142857142857143,0.9285714285714286,0.0004
38,0.8976342082023621,0.8208475112915039,0.7115384615384616,0.9615384615384616,0.8571428571428571,0.9285714285714286,0.0004
39,0.939961701631546,0.9359846115112305,0.6730769230769231,0.9230769230769231,0.7857142857142857,0.8571428571428571,0.0004
40,0.9910009503364563,0.8982154130935669,0.7307692307692307,0.9038461538461539,0.7142857142857143,0.8571428571428571,0.0004
41,0.9963128566741943,0.9906316995620728,0.6538461538461539,0.9423076923076923,0.7142857142857143,0.8571428571428571,0.0004
42,0.9604446589946747,1.1161253452301025,0.7692307692307693,0.8653846153846154,0.7142857142857143,0.7857142857142857,0.0004
43,0.9267014563083649,1.6746363639831543,0.7307692307692307,0.9423076923076923,0.5714285714285714,0.8571428571428571,0.0004
44,0.9115236699581146,1.2621558904647827,0.6923076923076923,0.9423076923076923,0.5714285714285714,0.7857142857142857,0.0004
45,0.8383046388626099,0.9990135431289673,0.7307692307692307,0.9423076923076923,0.7142857142857143,0.8571428571428571,0.0004
46,0.8780635893344879,0.868789792060852,0.6538461538461539,0.9615384615384616,0.7142857142857143,0.9285714285714286,0.0004
47,0.8218545615673065,0.7930610775947571,0.7115384615384616,1.0,0.8571428571428571,0.9285714285714286,0.0004
48,0.8167512714862823,0.8948452472686768,0.6538461538461539,0.9807692307692307,0.6428571428571429,0.9285714285714286,0.0004
49,0.8158316016197205,1.108947515487671,0.6923076923076923,0.9615384615384616,0.6428571428571429,0.9285714285714286,0.0004
50,0.9626740217208862,1.0859042406082153,0.6153846153846154,0.9807692307692307,0.7857142857142857,0.8571428571428571,0.0004
51,0.9479538798332214,1.1646177768707275,0.6153846153846154,0.9615384615384616,0.7142857142857143,0.8571428571428571,0.0004
52,0.8495765030384064,1.1272928714752197,0.6730769230769231,1.0,0.7857142857142857,0.8571428571428571,0.0004
53,0.9964098632335663,1.7057170867919922,0.6730769230769231,0.9807692307692307,0.5714285714285714,0.8571428571428571,0.0004
54,1.0925270915031433,1.2129380702972412,0.5961538461538461,0.9038461538461539,0.5714285714285714,0.8571428571428571,0.0004
55,1.0351896584033966,0.9829756617546082,0.5769230769230769,0.9615384615384616,0.5714285714285714,0.8571428571428571,0.0004
56,0.9440790712833405,1.4656922817230225,0.7115384615384616,0.9423076923076923,0.6428571428571429,0.8571428571428571,0.0004
57,1.011744201183319,1.2235126495361328,0.5769230769230769,0.9807692307692307,0.5714285714285714,0.7857142857142857,0.0004
58,0.7124836444854736,1.6091458797454834,0.8076923076923077,0.9807692307692307,0.7857142857142857,0.8571428571428571,0.0004
59,0.7615831196308136,1.0143861770629883,0.6923076923076923,0.9807692307692307,0.7142857142857143,0.8571428571428571,0.0004
60,1.1195019483566284,1.0935426950454712,0.5576923076923077,0.9230769230769231,0.7142857142857143,0.9285714285714286,0.0004
61,0.8946815133094788,1.0080825090408325,0.6730769230769231,0.9423076923076923,0.7857142857142857,0.9285714285714286,0.0004
62,1.025745153427124,0.9400811195373535,0.6730769230769231,0.9230769230769231,0.8571428571428571,0.9285714285714286,0.0004
63,0.8030824959278107,1.5057107210159302,0.6538461538461539,0.9615384615384616,0.5714285714285714,0.7857142857142857,0.0004
64,0.7252745628356934,1.2210235595703125,0.7884615384615384,0.9807692307692307,0.7142857142857143,0.8571428571428571,0.0004
65,0.9776991307735443,0.8390467166900635,0.7115384615384616,0.9615384615384616,0.7857142857142857,0.8571428571428571,0.0004
66,0.7189884781837463,0.8097959160804749,0.7307692307692307,0.9423076923076923,0.8571428571428571,0.8571428571428571,0.0004
67,0.9652010798454285,1.1797258853912354,0.6923076923076923,0.9423076923076923,0.7857142857142857,0.8571428571428571,0.0004
68,0.8339446187019348,0.9215899109840393,0.6923076923076923,0.9615384615384616,0.7857142857142857,0.8571428571428571,0.0004
69,0.7480173408985138,1.137850046157837,0.8076923076923077,0.9423076923076923,0.6428571428571429,0.8571428571428571,0.0004
70,0.7724043726921082,1.5634658336639404,0.6923076923076923,0.9615384615384616,0.42857142857142855,0.8571428571428571,0.0004
71,0.9429532885551453,0.9291348457336426,0.6346153846153846,0.9423076923076923,0.6428571428571429,0.9285714285714286,0.0004
72,0.9057476222515106,1.2571477890014648,0.6346153846153846,0.9615384615384616,0.6428571428571429,0.8571428571428571,0.0004
73,0.6812362372875214,0.9084552526473999,0.75,0.9423076923076923,0.7857142857142857,0.9285714285714286,0.0004
74,0.8308003544807434,1.3784315586090088,0.7115384615384616,0.9423076923076923,0.6428571428571429,0.8571428571428571,0.0004
75,0.8174397945404053,1.4254661798477173,0.6923076923076923,0.9807692307692307,0.5714285714285714,0.8571428571428571,0.0004
76,0.9735784828662872,0.9972115755081177,0.6923076923076923,0.9038461538461539,0.6428571428571429,0.9285714285714286,0.0004
77,0.7516914010047913,1.4706820249557495,0.6923076923076923,0.9615384615384616,0.7142857142857143,0.7857142857142857,0.0004
78,0.8238364160060883,1.3959307670593262,0.7692307692307693,0.9423076923076923,0.7142857142857143,0.8571428571428571,0.0004
79,1.032289981842041,1.4064178466796875,0.6923076923076923,0.9423076923076923,0.6428571428571429,0.8571428571428571,0.0004
80,0.9325436353683472,1.2303426265716553,0.6923076923076923,0.9423076923076923,0.6428571428571429,0.8571428571428571,0.0004
81,0.7669863998889923,1.0203856229782104,0.75,0.9807692307692307,0.7142857142857143,0.8571428571428571,0.0004
82,0.8233309090137482,0.9659186005592346,0.6730769230769231,1.0,0.9285714285714286,0.8571428571428571,0.0004
83,0.8784208297729492,1.4075806140899658,0.7307692307692307,0.9615384615384616,0.5,0.8571428571428571,0.0004
84,1.0352571904659271,1.1573896408081055,0.6346153846153846,0.9230769230769231,0.6428571428571429,0.8571428571428571,0.0004
85,0.7877489030361176,0.9636644124984741,0.7692307692307693,0.9038461538461539,0.7857142857142857,0.9285714285714286,0.0004
86,0.7291469275951385,0.6985900402069092,0.7115384615384616,1.0,0.7857142857142857,0.9285714285714286,0.0004
87,0.8964765965938568,0.48732954263687134,0.6538461538461539,0.9807692307692307,0.8571428571428571,0.9285714285714286,0.0004
88,0.8499769568443298,0.5547882318496704,0.6923076923076923,0.9807692307692307,0.9285714285714286,0.9285714285714286,0.0004
89,0.8068498373031616,0.6943261027336121,0.7692307692307693,0.9230769230769231,0.8571428571428571,0.9285714285714286,0.0004
90,0.7691158950328827,1.13041090965271,0.75,0.9615384615384616,0.7857142857142857,0.8571428571428571,0.0004
91,0.674101322889328,1.0725674629211426,0.75,0.9615384615384616,0.6428571428571429,0.9285714285714286,0.0004
92,0.6940575242042542,1.3374574184417725,0.75,0.9615384615384616,0.7142857142857143,0.8571428571428571,0.0004
93,0.657278448343277,1.1812396049499512,0.7307692307692307,1.0,0.6428571428571429,0.9285714285714286,0.0004
94,0.8718516230583191,1.701265811920166,0.75,0.9423076923076923,0.5,0.8571428571428571,0.0004
95,0.7195699214935303,1.3879520893096924,0.7307692307692307,0.9807692307692307,0.7142857142857143,0.8571428571428571,0.0004
96,0.5794601440429688,1.275160551071167,0.7692307692307693,1.0,0.7857142857142857,0.8571428571428571,0.0004
97,0.6053967326879501,1.2480422258377075,0.7884615384615384,0.9807692307692307,0.7142857142857143,0.8571428571428571,0.0004
98,0.9089575111865997,0.8932932615280151,0.6730769230769231,0.9423076923076923,0.7142857142857143,0.9285714285714286,0.0004
99,0.6510516107082367,0.8238714337348938,0.75,0.9615384615384616,0.7857142857142857,0.9285714285714286,0.0004
100,0.6241745948791504,1.1539382934570312,0.7115384615384616,1.0,0.8571428571428571,0.8571428571428571,0.0004
101,0.841854065656662,0.87893146276474,0.6923076923076923,0.9423076923076923,0.7857142857142857,0.9285714285714286,0.0004
102,0.7218644320964813,1.9066319465637207,0.7307692307692307,0.9807692307692307,0.6428571428571429,0.7142857142857143,0.0004
103,0.6167362630367279,1.562253475189209,0.75,1.0,0.6428571428571429,0.8571428571428571,0.0004
104,0.7637682259082794,1.339849591255188,0.6923076923076923,1.0,0.7857142857142857,0.8571428571428571,0.0004
105,0.7097404599189758,1.0220367908477783,0.7307692307692307,1.0,0.7142857142857143,0.9285714285714286,0.0004
106,0.8056815564632416,0.8883108496665955,0.75,0.9615384615384616,0.7857142857142857,0.9285714285714286,0.0004
107,0.7813757658004761,1.2131187915802002,0.6538461538461539,0.9615384615384616,0.5,0.8571428571428571,0.0004
108,0.6181053817272186,1.6936829090118408,0.75,0.9807692307692307,0.7142857142857143,0.7857142857142857,0.0004
109,0.7699998319149017,1.5460641384124756,0.7307692307692307,0.9615384615384616,0.7142857142857143,0.7857142857142857,0.0004
110,0.7146716415882111,1.6210119724273682,0.75,0.9615384615384616,0.6428571428571429,0.7857142857142857,0.0004
111,0.969927191734314,0.9977825880050659,0.75,0.9423076923076923,0.7857142857142857,0.9285714285714286,0.0004
112,0.6430618166923523,0.8383976817131042,0.7307692307692307,0.9615384615384616,0.7857142857142857,0.9285714285714286,0.0004
113,0.7916143536567688,1.5890839099884033,0.6730769230769231,0.9615384615384616,0.6428571428571429,0.7857142857142857,0.0004
114,0.6467339098453522,1.2930264472961426,0.75,0.9807692307692307,0.7857142857142857,0.8571428571428571,0.0004
115,0.6870134770870209,1.5559184551239014,0.75,0.9615384615384616,0.7142857142857143,0.7857142857142857,0.0004
116,0.6528528332710266,0.5615603923797607,0.6730769230769231,0.9807692307692307,0.9285714285714286,0.9285714285714286,0.0004
117,0.69796222448349,1.3168615102767944,0.75,0.9807692307692307,0.6428571428571429,0.8571428571428571,0.0004
118,0.7234530448913574,1.2273142337799072,0.6923076923076923,0.9807692307692307,0.7857142857142857,0.8571428571428571,0.0004
119,0.7605453133583069,0.8037299513816833,0.6923076923076923,0.9807692307692307,0.8571428571428571,0.9285714285714286,0.0004
120,0.7938036322593689,0.9413905143737793,0.6923076923076923,0.9615384615384616,0.8571428571428571,0.8571428571428571,0.0004
121,0.7206762135028839,1.4108600616455078,0.7115384615384616,1.0,0.6428571428571429,0.8571428571428571,0.0004
122,0.8897950053215027,1.6567003726959229,0.6730769230769231,0.9807692307692307,0.5,0.7857142857142857,0.0004
123,0.6974162459373474,1.5337326526641846,0.7692307692307693,0.9423076923076923,0.5714285714285714,0.7857142857142857,0.0004
124,0.8104563355445862,1.3533684015274048,0.6923076923076923,0.9615384615384616,0.5714285714285714,0.8571428571428571,0.0004
125,0.8150493502616882,0.8599438667297363,0.7115384615384616,0.9615384615384616,0.8571428571428571,0.9285714285714286,0.0004
126,0.5761704742908478,0.7170665264129639,0.75,1.0,0.8571428571428571,0.9285714285714286,0.0004
127,0.8140349984169006,0.9584252834320068,0.6538461538461539,0.9615384615384616,0.6428571428571429,0.9285714285714286,0.0004
128,0.9570788741111755,0.5600849390029907,0.6346153846153846,0.9230769230769231,0.9285714285714286,0.9285714285714286,0.0004
129,0.6821360290050507,0.8508856296539307,0.6923076923076923,0.9807692307692307,0.7142857142857143,0.9285714285714286,0.0004
130,0.8256468772888184,0.7805787324905396,0.6923076923076923,0.9423076923076923,0.9285714285714286,0.9285714285714286,0.0004
131,0.6950472444295883,1.250481367111206,0.7692307692307693,0.9423076923076923,0.7142857142857143,0.9285714285714286,0.0004
132,0.7273491621017456,0.7388420701026917,0.7884615384615384,0.9807692307692307,0.9285714285714286,0.9285714285714286,0.0004
133,0.8732723593711853,1.0285553932189941,0.6730769230769231,0.9615384615384616,0.6428571428571429,0.9285714285714286,0.0004
134,0.6674728393554688,1.5853265523910522,0.8269230769230769,0.9423076923076923,0.7142857142857143,0.7857142857142857,0.0004
135,0.6206050515174866,1.3798694610595703,0.75,1.0,0.7142857142857143,0.8571428571428571,0.0004
136,0.5981567203998566,1.9627463817596436,0.75,1.0,0.6428571428571429,0.7857142857142857,0.0004
137,0.6794588267803192,1.6997852325439453,0.7307692307692307,1.0,0.7142857142857143,0.7142857142857143,0.0004
138,0.7488519549369812,0.7184628844261169,0.7692307692307693,0.9423076923076923,0.7142857142857143,0.9285714285714286,0.0004
139,0.8093324899673462,1.9635967016220093,0.6730769230769231,0.9615384615384616,0.5714285714285714,0.7857142857142857,0.0004
140,0.5438202619552612,1.2056562900543213,0.75,1.0,0.7857142857142857,0.8571428571428571,0.0004
141,0.6912518441677094,1.3411450386047363,0.75,0.9807692307692307,0.7857142857142857,0.8571428571428571,0.0004
142,0.6190332770347595,1.1705037355422974,0.7692307692307693,1.0,0.7857142857142857,0.8571428571428571,0.0004
143,0.6510428786277771,0.8533581495285034,0.8076923076923077,0.9423076923076923,0.8571428571428571,0.9285714285714286,0.0004
144,0.6657877266407013,1.2212483882904053,0.7115384615384616,1.0,0.7142857142857143,0.8571428571428571,0.0004
145,0.609908789396286,1.062371015548706,0.7692307692307693,0.9807692307692307,0.6428571428571429,0.9285714285714286,0.0004
146,0.6737743020057678,0.8250199556350708,0.7692307692307693,0.9615384615384616,0.7857142857142857,0.9285714285714286,0.0004
147,0.6580868363380432,1.2041529417037964,0.7115384615384616,0.9615384615384616,0.7142857142857143,0.8571428571428571,0.0004
148,0.8320878446102142,1.3864250183105469,0.6730769230769231,0.9423076923076923,0.5714285714285714,0.8571428571428571,0.0004
149,0.6778035759925842,1.0145610570907593,0.7884615384615384,1.0,0.7142857142857143,0.9285714285714286,0.0004
150,0.9044099152088165,0.8623597025871277,0.6538461538461539,0.9038461538461539,0.7857142857142857,0.8571428571428571,0.0004
151,0.6342588663101196,0.883380651473999,0.75,0.9807692307692307,0.7857142857142857,0.9285714285714286,0.0004
152,0.6577507257461548,0.990326464176178,0.75,0.9807692307692307,0.8571428571428571,0.9285714285714286,0.0004
153,0.7859074175357819,1.4127540588378906,0.8269230769230769,0.9230769230769231,0.42857142857142855,0.9285714285714286,0.0004
154,0.6451631635427475,0.9016080498695374,0.8076923076923077,0.9615384615384616,0.9285714285714286,0.9285714285714286,0.0004
155,0.5032015442848206,1.6849210262298584,0.7884615384615384,1.0,0.6428571428571429,0.7857142857142857,0.0004
156,0.7178806960582733,1.2491888999938965,0.75,0.9615384615384616,0.6428571428571429,0.9285714285714286,0.0004
157,0.6925249099731445,0.8740696310997009,0.7115384615384616,0.9615384615384616,0.9285714285714286,0.9285714285714286,0.0004
158,0.746208906173706,1.50706148147583,0.7307692307692307,0.9615384615384616,0.7857142857142857,0.8571428571428571,0.0004
159,0.801470547914505,0.8153197765350342,0.6730769230769231,0.9807692307692307,0.7142857142857143,0.9285714285714286,0.0004
160,0.7028180956840515,1.3557610511779785,0.7115384615384616,0.9615384615384616,0.7142857142857143,0.8571428571428571,0.0004
161,0.5877078324556351,0.8938801288604736,0.7884615384615384,0.9807692307692307,0.7857142857142857,0.9285714285714286,0.0004
162,0.8337160348892212,1.242365837097168,0.7692307692307693,0.9038461538461539,0.7142857142857143,0.8571428571428571,0.0004
163,0.8601742684841156,1.3357633352279663,0.7115384615384616,0.9038461538461539,0.8571428571428571,0.8571428571428571,0.0004
164,0.6126449704170227,1.6543132066726685,0.8076923076923077,0.9615384615384616,0.5,0.8571428571428571,0.0004
165,0.5435822010040283,1.7512485980987549,0.8076923076923077,1.0,0.5714285714285714,0.7857142857142857,0.0004
166,0.7254073321819305,1.5764737129211426,0.7307692307692307,0.9615384615384616,0.5,0.8571428571428571,0.0004
167,0.5330645442008972,1.2427046298980713,0.7884615384615384,1.0,0.6428571428571429,0.8571428571428571,0.0004
168,0.5691046714782715,1.493248462677002,0.8076923076923077,1.0,0.7142857142857143,0.7857142857142857,0.0004
169,0.6835253536701202,0.8066946864128113,0.6730769230769231,0.9615384615384616,0.9285714285714286,0.9285714285714286,0.0004
170,0.6816189587116241,0.8897836208343506,0.75,0.9807692307692307,0.7857142857142857,0.9285714285714286,0.0004
171,0.5152602046728134,0.8104228973388672,0.7884615384615384,0.9615384615384616,0.8571428571428571,0.9285714285714286,0.0004
172,0.5943295955657959,0.6002433896064758,0.6730769230769231,1.0,0.8571428571428571,0.9285714285714286,0.0004
173,0.6928544044494629,1.2591991424560547,0.6730769230769231,1.0,0.7857142857142857,0.8571428571428571,0.0004
174,0.5249201059341431,1.2957381010055542,0.75,1.0,0.7142857142857143,0.7857142857142857,0.0004
175,0.5789872705936432,1.0673187971115112,0.7884615384615384,0.9807692307692307,0.6428571428571429,0.8571428571428571,0.0004
176,0.5121250450611115,0.9850599765777588,0.8076923076923077,0.9615384615384616,0.7142857142857143,0.9285714285714286,0.0004
177,0.5686661899089813,2.2784578800201416,0.8076923076923077,0.9615384615384616,0.6428571428571429,0.7857142857142857,0.0004
178,0.6586003005504608,1.1499321460723877,0.75,1.0,0.7142857142857143,0.9285714285714286,0.0004
179,0.5064261555671692,1.2360472679138184,0.8653846153846154,1.0,0.7857142857142857,0.8571428571428571,0.0004
180,0.8732987642288208,0.9235785007476807,0.7115384615384616,0.9423076923076923,0.7857142857142857,0.9285714285714286,0.0004
181,0.6188390552997589,1.2637362480163574,0.75,0.9615384615384616,0.5,0.8571428571428571,0.0004
182,0.7883341908454895,1.845994234085083,0.7692307692307693,0.9423076923076923,0.7142857142857143,0.8571428571428571,0.0004
183,0.6649983525276184,1.5537011623382568,0.8076923076923077,0.9615384615384616,0.7857142857142857,0.8571428571428571,0.0004
184,0.6083869189023972,1.9043424129486084,0.7115384615384616,1.0,0.7142857142857143,0.7857142857142857,0.0004
185,0.7796108722686768,0.8024899363517761,0.75,0.9423076923076923,0.7142857142857143,1.0,0.0004
186,0.6175881028175354,1.8951771259307861,0.7692307692307693,0.9807692307692307,0.5714285714285714,0.7857142857142857,0.0004
187,0.6346398591995239,1.0075180530548096,0.8076923076923077,0.9615384615384616,0.7142857142857143,0.9285714285714286,0.0004
188,0.6026993095874786,0.9593311548233032,0.8076923076923077,0.9423076923076923,0.6428571428571429,0.9285714285714286,0.0004
189,0.6696246266365051,1.3422716856002808,0.7115384615384616,0.9807692307692307,0.5714285714285714,0.8571428571428571,0.0004
190,0.6311765313148499,1.2145944833755493,0.7692307692307693,0.9615384615384616,0.7857142857142857,0.8571428571428571,0.0004
191,0.6478951573371887,1.2259658575057983,0.8269230769230769,0.9807692307692307,0.6428571428571429,0.9285714285714286,0.0004
192,0.5078948885202408,1.4653019905090332,0.8653846153846154,0.9807692307692307,0.6428571428571429,0.7857142857142857,0.0004
193,0.8788939714431763,0.8757795095443726,0.7115384615384616,0.9038461538461539,0.9285714285714286,0.9285714285714286,0.0004
194,0.5805949717760086,1.0152215957641602,0.7884615384615384,0.9615384615384616,0.7857142857142857,0.9285714285714286,0.0004
195,0.683520495891571,1.0961544513702393,0.75,0.9615384615384616,0.7142857142857143,0.8571428571428571,0.0004
196,0.6343564987182617,0.9883089065551758,0.6923076923076923,0.9423076923076923,0.7857142857142857,0.9285714285714286,0.0004
197,0.49513864517211914,1.6317894458770752,0.8269230769230769,0.9807692307692307,0.6428571428571429,0.7857142857142857,0.0004
198,0.679191380739212,1.5051767826080322,0.7307692307692307,0.9230769230769231,0.7142857142857143,0.7857142857142857,0.0004
199,0.7337863445281982,1.3664934635162354,0.6923076923076923,0.9423076923076923,0.7142857142857143,0.7857142857142857,0.0004
200,0.35863667726516724,1.0677701234817505,0.9038461538461539,0.9615384615384616,0.7857142857142857,0.8571428571428571,0.0004
201,0.5797368586063385,0.7053641676902771,0.8076923076923077,1.0,0.8571428571428571,0.9285714285714286,0.0004
202,0.6814125627279282,0.9534366130828857,0.7884615384615384,0.9615384615384616,0.7857142857142857,0.9285714285714286,0.0004
203,0.5995904505252838,0.8357765674591064,0.7692307692307693,0.9038461538461539,0.7857142857142857,0.9285714285714286,0.0004
204,0.9031460881233215,1.0017080307006836,0.6153846153846154,0.9038461538461539,0.7857142857142857,0.8571428571428571,0.0004
205,0.8093002438545227,1.149584174156189,0.75,0.9423076923076923,0.8571428571428571,0.9285714285714286,0.0004
206,0.5462950468063354,1.179158329963684,0.8269230769230769,0.9807692307692307,0.5714285714285714,0.9285714285714286,0.0004
207,0.7478483021259308,1.2095119953155518,0.75,1.0,0.7142857142857143,0.9285714285714286,0.0004
208,0.4818047136068344,1.2986438274383545,0.8653846153846154,1.0,0.5714285714285714,0.7857142857142857,0.0004
209,0.650910884141922,1.0932155847549438,0.8269230769230769,0.9615384615384616,0.8571428571428571,0.9285714285714286,0.0004
210,0.7292499840259552,0.8895902633666992,0.7307692307692307,0.9615384615384616,0.7857142857142857,0.9285714285714286,0.0004
211,0.7849636077880859,0.9052919149398804,0.7692307692307693,0.9615384615384616,0.7857142857142857,0.8571428571428571,0.0004
212,0.7824971079826355,1.3843989372253418,0.7115384615384616,0.9615384615384616,0.7857142857142857,0.8571428571428571,0.0004
213,0.6930127739906311,0.7992532253265381,0.7307692307692307,1.0,0.7857142857142857,0.9285714285714286,0.0004
214,0.7048325389623642,1.4644027948379517,0.8076923076923077,0.9807692307692307,0.7857142857142857,0.8571428571428571,0.0004
215,0.5058552622795105,1.0892975330352783,0.7692307692307693,0.9807692307692307,0.8571428571428571,0.9285714285714286,0.0004
216,0.5930339694023132,1.7326716184616089,0.7692307692307693,0.9807692307692307,0.7142857142857143,0.8571428571428571,0.0004
217,0.5782111883163452,0.9989725351333618,0.7884615384615384,0.9807692307692307,0.8571428571428571,0.8571428571428571,0.0004
218,0.7561325132846832,1.4564921855926514,0.8076923076923077,0.9423076923076923,0.6428571428571429,0.7857142857142857,0.0004
219,0.5167869627475739,0.8310074806213379,0.8846153846153846,1.0,0.7857142857142857,0.9285714285714286,0.0004
220,0.6337933242321014,1.3623414039611816,0.8076923076923077,0.9423076923076923,0.7857142857142857,0.9285714285714286,0.0004
221,0.6010418832302094,1.4045076370239258,0.7692307692307693,1.0,0.8571428571428571,0.9285714285714286,0.0004
222,0.6486176401376724,0.7214428186416626,0.9423076923076923,0.9807692307692307,0.8571428571428571,0.9285714285714286,0.0004
223,0.48724374175071716,0.5825909972190857,0.8269230769230769,1.0,0.8571428571428571,0.9285714285714286,0.0004
224,0.5620102733373642,1.689022183418274,0.8461538461538461,0.9615384615384616,0.7857142857142857,0.7857142857142857,0.0004
225,0.8247520327568054,1.3745158910751343,0.6923076923076923,0.9423076923076923,0.8571428571428571,0.8571428571428571,0.0004
226,0.5786277204751968,0.9207417964935303,0.8076923076923077,0.9807692307692307,0.7857142857142857,0.9285714285714286,0.0004
227,0.9910546839237213,1.2008259296417236,0.6923076923076923,0.9038461538461539,0.6428571428571429,0.8571428571428571,0.0004
228,0.5180268883705139,1.0040839910507202,0.8461538461538461,0.9807692307692307,0.8571428571428571,0.9285714285714286,0.0004
229,0.8522271513938904,1.75347101688385,0.7307692307692307,0.9230769230769231,0.7142857142857143,0.8571428571428571,0.0004
230,0.5995117723941803,1.5020742416381836,0.7692307692307693,0.9807692307692307,0.6428571428571429,0.8571428571428571,0.0004
231,0.47766850888729095,1.5048935413360596,0.8653846153846154,0.9807692307692307,0.7142857142857143,0.8571428571428571,0.0004
232,0.47543294727802277,1.6739215850830078,0.7884615384615384,0.9807692307692307,0.6428571428571429,0.7857142857142857,0.0004
233,0.48628729581832886,1.1787235736846924,0.8269230769230769,0.9807692307692307,0.5714285714285714,0.9285714285714286,0.0004
234,0.469430148601532,1.2106844186782837,0.8076923076923077,1.0,0.7857142857142857,0.8571428571428571,0.0004
235,0.6549704670906067,2.0493927001953125,0.8269230769230769,0.9423076923076923,0.6428571428571429,0.7142857142857143,0.0004
236,0.9133135080337524,1.6211211681365967,0.7692307692307693,0.9423076923076923,0.5714285714285714,0.7857142857142857,0.0004
237,0.6470837593078613,0.8202608823776245,0.8076923076923077,0.9423076923076923,0.9285714285714286,0.9285714285714286,0.0004
238,0.8108954727649689,1.2273008823394775,0.7692307692307693,0.9615384615384616,0.6428571428571429,0.8571428571428571,0.0004
239,0.6514690667390823,0.8307244777679443,0.8653846153846154,0.9230769230769231,0.8571428571428571,0.8571428571428571,0.0004
240,0.5152228027582169,1.0191280841827393,0.8846153846153846,1.0,0.7142857142857143,0.9285714285714286,0.0004
241,0.658171683549881,0.74452805519104,0.8076923076923077,0.9423076923076923,0.9285714285714286,0.9285714285714286,0.0004
242,0.5477752834558487,0.6164130568504333,0.8653846153846154,1.0,1.0,0.9285714285714286,0.0004
243,0.5770531892776489,1.1632962226867676,0.8076923076923077,0.9615384615384616,0.7142857142857143,0.9285714285714286,0.0004
244,0.5587519109249115,0.877690851688385,0.7884615384615384,1.0,0.9285714285714286,0.8571428571428571,0.0004
245,0.6000804603099823,1.1250224113464355,0.8461538461538461,0.9807692307692307,0.7857142857142857,0.9285714285714286,0.0004
246,0.6469606757164001,1.748659372329712,0.7884615384615384,0.9615384615384616,0.6428571428571429,0.7857142857142857,0.0004
247,0.4767930209636688,0.987504243850708,0.8653846153846154,1.0,0.7857142857142857,0.9285714285714286,0.0004
248,0.539287880063057,0.9040124416351318,0.8653846153846154,0.9615384615384616,0.8571428571428571,0.8571428571428571,0.0004
249,0.5763853490352631,1.6886799335479736,0.8461538461538461,0.9423076923076923,0.6428571428571429,0.7857142857142857,0.0004
250,0.7828443646430969,1.2830030918121338,0.7115384615384616,0.9423076923076923,0.7142857142857143,0.8571428571428571,0.0004
251,0.7594290375709534,1.296475887298584,0.8269230769230769,0.9230769230769231,0.7857142857142857,0.8571428571428571,0.0004
252,0.4237036854028702,1.2008658647537231,0.8846153846153846,0.9807692307692307,0.8571428571428571,0.8571428571428571,0.0004
253,0.3994840085506439,0.7798374891281128,0.9038461538461539,1.0,0.9285714285714286,0.9285714285714286,0.0004
254,0.6669175624847412,0.9388060569763184,0.7884615384615384,0.9807692307692307,0.7857142857142857,0.9285714285714286,0.0004
255,0.45047062635421753,1.320284128189087,0.8269230769230769,0.9807692307692307,0.6428571428571429,0.8571428571428571,0.0004
256,0.43299412727355957,1.5608885288238525,0.7884615384615384,1.0,0.6428571428571429,0.7857142857142857,0.0004
257,0.6221662759780884,1.676755428314209,0.7884615384615384,0.9615384615384616,0.6428571428571429,0.8571428571428571,0.0004
258,0.40233875811100006,0.9397466778755188,0.9038461538461539,0.9807692307692307,0.8571428571428571,0.8571428571428571,0.0004
259,0.5009079277515411,1.3711445331573486,0.8461538461538461,1.0,0.7857142857142857,0.7857142857142857,0.0004
260,0.43255341053009033,1.401003122329712,0.8461538461538461,0.9807692307692307,0.6428571428571429,0.7857142857142857,0.0004
261,0.31810370087623596,1.1816160678863525,0.8653846153846154,1.0,0.7857142857142857,0.9285714285714286,0.0004
262,0.46370039880275726,0.6613538265228271,0.8846153846153846,0.9807692307692307,0.7857142857142857,0.9285714285714286,0.0004
263,0.6541375517845154,1.5077011585235596,0.7884615384615384,0.9615384615384616,0.7142857142857143,0.8571428571428571,0.0004
264,0.6269507110118866,0.855315089225769,0.8269230769230769,0.9423076923076923,0.7857142857142857,0.8571428571428571,0.0004
265,0.5681620836257935,0.6169193387031555,0.7884615384615384,0.9615384615384616,0.8571428571428571,0.9285714285714286,0.0004
266,0.5774509459733963,1.4689338207244873,0.7884615384615384,0.9807692307692307,0.7142857142857143,0.8571428571428571,0.0004
267,0.6730668097734451,0.972059428691864,0.8461538461538461,0.9423076923076923,0.8571428571428571,0.9285714285714286,0.0004
268,0.4823125749826431,0.7575774192810059,0.8076923076923077,0.9807692307692307,0.8571428571428571,0.9285714285714286,0.0004
269,0.46661047637462616,0.7641338109970093,0.8461538461538461,1.0,0.8571428571428571,0.9285714285714286,0.0004
270,0.5381718724966049,1.3317155838012695,0.8269230769230769,0.9615384615384616,0.7142857142857143,0.8571428571428571,0.0004
271,0.7828131318092346,0.9788092374801636,0.6923076923076923,0.9807692307692307,0.7142857142857143,0.9285714285714286,0.0004
272,0.7683688998222351,0.8551945090293884,0.7884615384615384,0.9423076923076923,0.8571428571428571,0.8571428571428571,0.0004
273,0.6583335250616074,2.0600008964538574,0.8653846153846154,0.9807692307692307,0.6428571428571429,0.7857142857142857,0.0004
274,0.6392567455768585,0.9923064708709717,0.7692307692307693,0.9615384615384616,0.8571428571428571,0.9285714285714286,0.0004
275,0.7236482501029968,0.8243885040283203,0.7115384615384616,0.9807692307692307,0.9285714285714286,0.9285714285714286,0.0004
276,0.5077304989099503,0.9809470176696777,0.8269230769230769,0.9615384615384616,0.8571428571428571,0.9285714285714286,0.0004
277,0.5614390671253204,0.9087938070297241,0.8653846153846154,0.9615384615384616,0.8571428571428571,0.8571428571428571,0.0004
278,0.5085894614458084,1.1307164430618286,0.8461538461538461,0.9807692307692307,0.7142857142857143,0.9285714285714286,0.0004
279,0.3896183967590332,1.282900333404541,0.8653846153846154,1.0,0.6428571428571429,0.8571428571428571,0.0004
280,0.5092373490333557,0.9931570291519165,0.8269230769230769,1.0,0.6428571428571429,0.9285714285714286,0.0004
281,0.4980594664812088,1.3638031482696533,0.75,1.0,0.8571428571428571,0.8571428571428571,0.0004
282,0.507356584072113,1.2497590780258179,0.8461538461538461,0.9615384615384616,0.8571428571428571,0.8571428571428571,0.0004
283,0.46204784512519836,1.415863037109375,0.8461538461538461,0.9807692307692307,0.5714285714285714,0.9285714285714286,0.0004
284,0.5126659125089645,1.2926664352416992,0.8076923076923077,0.9807692307692307,0.8571428571428571,0.9285714285714286,0.0004
285,0.5039476454257965,2.7448325157165527,0.8076923076923077,0.9807692307692307,0.5,0.7857142857142857,0.0004
286,0.4653621166944504,1.845240592956543,0.8846153846153846,1.0,0.7857142857142857,0.7857142857142857,0.0004
287,0.7364729642868042,0.9031850695610046,0.7692307692307693,1.0,0.8571428571428571,0.9285714285714286,0.0004
288,0.30549299716949463,1.2625739574432373,0.8846153846153846,1.0,0.7142857142857143,0.8571428571428571,0.0004
289,0.7233521938323975,1.1614375114440918,0.8269230769230769,0.9615384615384616,0.7142857142857143,0.8571428571428571,0.0004
290,0.8992974162101746,0.7161858081817627,0.7115384615384616,0.9423076923076923,0.9285714285714286,0.9285714285714286,0.0004
291,0.8030864000320435,0.7991138696670532,0.8076923076923077,0.9230769230769231,0.8571428571428571,0.9285714285714286,0.0004
292,0.7630113959312439,1.214540719985962,0.7692307692307693,0.9615384615384616,0.6428571428571429,0.8571428571428571,0.0004
293,0.5276410430669785,1.7024595737457275,0.7884615384615384,0.9807692307692307,0.7857142857142857,0.7857142857142857,0.0004
294,0.7457860112190247,1.0747629404067993,0.7692307692307693,0.9615384615384616,0.7857142857142857,0.9285714285714286,0.0004
295,0.760907918214798,2.1669886112213135,0.75,0.9615384615384616,0.7142857142857143,0.7142857142857143,0.0004
296,0.8759957551956177,1.8196208477020264,0.8076923076923077,0.9615384615384616,0.6428571428571429,0.7857142857142857,0.0004
297,0.7136419117450714,1.4344422817230225,0.7692307692307693,0.9423076923076923,0.7142857142857143,0.8571428571428571,0.0004
298,0.6475045680999756,1.3071887493133545,0.7884615384615384,0.9807692307692307,0.6428571428571429,0.8571428571428571,0.0004
299,0.43741069734096527,1.6566736698150635,0.8269230769230769,0.9615384615384616,0.6428571428571429,0.7857142857142857,0.0004
300,0.4110989570617676,0.88395756483078,0.9038461538461539,1.0,0.8571428571428571,0.9285714285714286,0.0004
301,0.5637432932853699,1.3353445529937744,0.8076923076923077,0.9807692307692307,0.6428571428571429,0.8571428571428571,0.0004
302,0.49165235459804535,1.222409725189209,0.8076923076923077,0.9807692307692307,0.7142857142857143,0.8571428571428571,0.0004
303,0.5118629932403564,1.6179524660110474,0.8269230769230769,1.0,0.7142857142857143,0.8571428571428571,0.0004
304,0.5300368368625641,1.0458875894546509,0.8076923076923077,0.9807692307692307,0.8571428571428571,0.9285714285714286,0.0004
305,0.3944971263408661,1.3119258880615234,0.8461538461538461,1.0,0.6428571428571429,0.8571428571428571,0.0004
306,0.4733996242284775,1.9051792621612549,0.8461538461538461,1.0,0.5714285714285714,0.7857142857142857,0.0004
307,0.4863380938768387,1.8505933284759521,0.8076923076923077,0.9807692307692307,0.7142857142857143,0.8571428571428571,0.0004
308,0.5593835115432739,1.5318410396575928,0.8461538461538461,0.9807692307692307,0.6428571428571429,0.8571428571428571,0.0004
309,0.4924749433994293,1.005228877067566,0.8269230769230769,1.0,0.7857142857142857,0.9285714285714286,0.0004
310,0.6711676865816116,0.7730592489242554,0.7884615384615384,0.9807692307692307,0.8571428571428571,0.9285714285714286,0.0004
311,0.5484272837638855,0.9923793077468872,0.8076923076923077,0.9615384615384616,0.7142857142857143,0.9285714285714286,0.0004
312,0.7962349653244019,1.227041244506836,0.7115384615384616,0.9615384615384616,0.6428571428571429,0.9285714285714286,0.0004
313,0.6232704520225525,1.2002627849578857,0.7884615384615384,0.9807692307692307,0.6428571428571429,0.9285714285714286,0.0004
314,0.6248197853565216,1.2907012701034546,0.8461538461538461,0.9807692307692307,0.8571428571428571,0.8571428571428571,0.0004
315,0.513991579413414,1.2021067142486572,0.8653846153846154,0.9615384615384616,0.7142857142857143,0.8571428571428571,0.0004
316,0.7606444656848907,1.0626132488250732,0.7307692307692307,0.9807692307692307,0.7142857142857143,0.9285714285714286,0.0004
317,0.8988596200942993,1.7613813877105713,0.6923076923076923,0.9230769230769231,0.6428571428571429,0.7857142857142857,0.0004
318,0.4313883036375046,0.9424886703491211,0.8846153846153846,1.0,0.8571428571428571,0.8571428571428571,0.0004
319,0.5119317322969437,0.9702849388122559,0.8269230769230769,0.9615384615384616,0.7142857142857143,0.9285714285714286,0.0004
320,0.4323771893978119,1.1898818016052246,0.8846153846153846,0.9807692307692307,0.7142857142857143,0.8571428571428571,0.0004
321,0.45214682817459106,0.8250558376312256,0.8269230769230769,0.9807692307692307,0.7857142857142857,0.9285714285714286,0.0004
322,0.5059076100587845,1.6039692163467407,0.8653846153846154,0.9807692307692307,0.6428571428571429,0.7857142857142857,0.0004
323,0.8399741053581238,1.182525873184204,0.7884615384615384,0.9615384615384616,0.6428571428571429,0.8571428571428571,0.0004
324,0.6174066960811615,1.3209073543548584,0.8076923076923077,0.9423076923076923,0.7142857142857143,0.9285714285714286,0.0004
325,0.6574265956878662,1.172903299331665,0.75,0.9807692307692307,0.7857142857142857,0.8571428571428571,0.0004
326,0.6595016866922379,1.4008746147155762,0.8461538461538461,0.9615384615384616,0.7142857142857143,0.9285714285714286,0.0004
327,0.5694435238838196,1.5455820560455322,0.7884615384615384,0.9807692307692307,0.8571428571428571,0.8571428571428571,0.0004
328,0.3329913318157196,1.1823949813842773,0.9230769230769231,1.0,0.7857142857142857,0.8571428571428571,0.0004
329,0.669090062379837,1.1654757261276245,0.8076923076923077,0.9423076923076923,0.8571428571428571,0.8571428571428571,0.0004
330,0.7999812066555023,0.7559207677841187,0.8076923076923077,0.9423076923076923,0.9285714285714286,0.9285714285714286,0.0004
331,0.3861227035522461,0.7130807042121887,0.9038461538461539,0.9807692307692307,0.9285714285714286,0.9285714285714286,0.0004
332,0.3985396921634674,1.4287148714065552,0.8653846153846154,0.9615384615384616,0.7857142857142857,0.7857142857142857,0.0004
333,0.5616318583488464,1.408618688583374,0.8461538461538461,0.9615384615384616,0.7142857142857143,0.8571428571428571,0.0004
334,0.3592865914106369,1.2365937232971191,0.8846153846153846,0.9807692307692307,0.8571428571428571,0.8571428571428571,0.0004
335,0.5965105593204498,0.8225411176681519,0.7884615384615384,0.9615384615384616,0.8571428571428571,0.9285714285714286,0.0004
336,0.6366717219352722,1.1795965433120728,0.7884615384615384,0.9615384615384616,0.7142857142857143,0.9285714285714286,0.0004
337,0.3646851181983948,1.1619256734848022,0.8846153846153846,1.0,0.7857142857142857,0.9285714285714286,0.0004
338,0.5422158986330032,1.1862730979919434,0.7884615384615384,0.9615384615384616,0.7142857142857143,0.7857142857142857,0.0004
339,0.7369280159473419,1.1472113132476807,0.8076923076923077,0.9230769230769231,0.8571428571428571,0.8571428571428571,0.0004
340,0.45408664643764496,1.6088629961013794,0.8269230769230769,0.9423076923076923,0.7857142857142857,0.8571428571428571,0.0004
341,0.34558840095996857,1.3741166591644287,0.9038461538461539,1.0,0.8571428571428571,0.8571428571428571,0.0004
342,0.39332035183906555,0.9136614799499512,0.8653846153846154,1.0,0.8571428571428571,0.9285714285714286,0.0004
343,0.3816293030977249,1.0795124769210815,0.8846153846153846,1.0,0.8571428571428571,0.8571428571428571,0.0004
344,0.528128981590271,0.5738573670387268,0.8269230769230769,0.9615384615384616,1.0,0.9285714285714286,0.0004
345,0.4091283082962036,0.9130649566650391,0.9038461538461539,0.9807692307692307,0.7857142857142857,0.9285714285714286,0.0004
346,0.4027191400527954,0.9291832447052002,0.8269230769230769,1.0,0.8571428571428571,0.9285714285714286,0.0004
347,0.36532530188560486,1.1020586490631104,0.8846153846153846,1.0,0.7142857142857143,0.7857142857142857,0.0004
348,0.3527044355869293,0.9395136833190918,0.8846153846153846,1.0,0.8571428571428571,0.9285714285714286,0.0004
349,0.6567842662334442,0.9856501817703247,0.8076923076923077,0.9807692307692307,0.7857142857142857,0.8571428571428571,0.0004
350,0.4346669539809227,1.7859828472137451,0.9038461538461539,0.9807692307692307,0.7142857142857143,0.7857142857142857,0.0004
351,0.4638417363166809,0.8391742706298828,0.8269230769230769,0.9807692307692307,0.9285714285714286,0.9285714285714286,0.0004
352,0.6686508655548096,0.8570847511291504,0.6923076923076923,0.9423076923076923,0.8571428571428571,0.8571428571428571,0.0004
353,0.5310425460338593,0.7272671461105347,0.8846153846153846,0.9423076923076923,0.8571428571428571,0.9285714285714286,0.0004
354,0.47463972866535187,0.702448844909668,0.8076923076923077,1.0,0.9285714285714286,0.9285714285714286,0.0004
355,0.7818779647350311,1.7979193925857544,0.7884615384615384,0.9615384615384616,0.6428571428571429,0.7857142857142857,0.0004
356,0.9076011478900909,1.452897548675537,0.7692307692307693,0.9230769230769231,0.5714285714285714,0.8571428571428571,0.0004
357,0.7855100929737091,1.5670688152313232,0.8076923076923077,0.9615384615384616,0.7857142857142857,0.8571428571428571,0.0004
358,0.4965955466032028,1.04193115234375,0.8653846153846154,0.9615384615384616,0.7857142857142857,0.9285714285714286,0.0004
359,0.49275727570056915,1.3693716526031494,0.8076923076923077,1.0,0.6428571428571429,0.9285714285714286,0.0004
360,0.578632190823555,0.9129875898361206,0.8653846153846154,0.9807692307692307,0.7857142857142857,0.9285714285714286,0.0004
361,0.7253227531909943,1.1384992599487305,0.8076923076923077,0.9423076923076923,0.8571428571428571,0.8571428571428571,0.0004
362,0.553909033536911,1.1496142148971558,0.8269230769230769,0.9615384615384616,0.8571428571428571,0.9285714285714286,0.0004
363,0.4737347811460495,1.3412450551986694,0.8653846153846154,0.9807692307692307,0.7857142857142857,0.8571428571428571,0.0004
364,0.5416940897703171,1.5369292497634888,0.8076923076923077,0.9423076923076923,0.8571428571428571,0.9285714285714286,0.0004
365,0.6022501289844513,1.8234472274780273,0.8653846153846154,0.9423076923076923,0.5714285714285714,0.7142857142857143,0.0004
366,0.49651843309402466,1.2332429885864258,0.8461538461538461,0.9807692307692307,0.7142857142857143,0.9285714285714286,0.0004
367,0.3541456460952759,1.496279001235962,0.9423076923076923,0.9807692307692307,0.8571428571428571,0.8571428571428571,0.0004
368,0.5545526891946793,1.2259761095046997,0.8076923076923077,0.9615384615384616,0.5714285714285714,0.7857142857142857,0.0004
369,0.4376242458820343,1.5488789081573486,0.8076923076923077,1.0,0.7142857142857143,0.7857142857142857,0.0004
370,0.5428403615951538,1.3723833560943604,0.8269230769230769,0.9615384615384616,0.6428571428571429,0.8571428571428571,0.0004
371,0.5801721066236496,0.7910089492797852,0.8653846153846154,0.9807692307692307,0.9285714285714286,0.8571428571428571,0.0004
372,0.5715341866016388,0.8789714574813843,0.8846153846153846,0.9807692307692307,0.8571428571428571,0.9285714285714286,0.0004
373,0.4951557368040085,1.0392496585845947,0.8653846153846154,0.9807692307692307,0.8571428571428571,0.9285714285714286,0.0004
374,0.6397407650947571,1.021031141281128,0.8076923076923077,0.9807692307692307,0.7857142857142857,0.9285714285714286,0.0004
375,0.6222382187843323,0.9092093706130981,0.8653846153846154,0.9615384615384616,0.8571428571428571,0.8571428571428571,0.0004
376,0.39078402519226074,0.5994642972946167,0.8846153846153846,0.9615384615384616,1.0,0.9285714285714286,0.0004
377,0.5086828321218491,1.0553562641143799,0.8269230769230769,0.9807692307692307,0.7857142857142857,0.8571428571428571,0.0004
378,0.5149502158164978,1.5269949436187744,0.8076923076923077,0.9807692307692307,0.8571428571428571,0.8571428571428571,0.0004
379,0.5344728231430054,1.8516499996185303,0.7692307692307693,0.9423076923076923,0.6428571428571429,0.7857142857142857,0.0004
380,0.32041050493717194,1.4688422679901123,0.8846153846153846,1.0,0.7142857142857143,0.7857142857142857,0.0004
381,0.5969477593898773,1.4965752363204956,0.8653846153846154,0.9615384615384616,0.7142857142857143,0.9285714285714286,0.0004
382,0.5205203890800476,0.8544727563858032,0.8461538461538461,1.0,0.8571428571428571,0.9285714285714286,0.0004
383,0.4611968845129013,1.39316725730896,0.8653846153846154,0.9807692307692307,0.7142857142857143,0.9285714285714286,0.0004
384,0.5278853476047516,1.3491706848144531,0.8269230769230769,0.9615384615384616,0.7142857142857143,0.9285714285714286,0.0004
385,0.5079245716333389,1.3907554149627686,0.8269230769230769,0.9615384615384616,0.7857142857142857,0.7857142857142857,0.0004
386,0.39688079059123993,1.0136772394180298,0.8846153846153846,0.9807692307692307,0.8571428571428571,0.9285714285714286,0.0004
387,0.40375007688999176,1.283869743347168,0.8461538461538461,1.0,0.6428571428571429,0.8571428571428571,0.0004
388,0.637116014957428,1.8647797107696533,0.8076923076923077,0.9615384615384616,0.7142857142857143,0.7857142857142857,0.0004
389,0.47842827439308167,0.945965051651001,0.8846153846153846,0.9615384615384616,0.7857142857142857,0.9285714285714286,0.0004
390,0.43852756917476654,1.1380589008331299,0.9038461538461539,0.9615384615384616,0.7857142857142857,0.8571428571428571,0.0004
391,0.45311275124549866,1.6746832132339478,0.8461538461538461,0.9807692307692307,0.6428571428571429,0.8571428571428571,0.0004
392,0.3700650483369827,1.3693410158157349,0.8076923076923077,1.0,0.8571428571428571,0.8571428571428571,0.0004
393,0.49271896481513977,1.7767550945281982,0.8846153846153846,0.9615384615384616,0.7142857142857143,0.8571428571428571,0.0004
394,0.44141867756843567,1.379714012145996,0.8846153846153846,0.9807692307692307,0.7857142857142857,0.8571428571428571,0.0004
395,0.3209415003657341,2.209059000015259,0.9230769230769231,0.9807692307692307,0.7857142857142857,0.7857142857142857,0.0004
396,0.5172867327928543,1.5190768241882324,0.8653846153846154,0.9807692307692307,0.7142857142857143,0.8571428571428571,0.0004
397,0.32446546852588654,1.5896275043487549,0.9038461538461539,1.0,0.6428571428571429,0.7857142857142857,0.0004
398,0.5860478729009628,0.8583588600158691,0.8269230769230769,0.9615384615384616,0.9285714285714286,0.9285714285714286,0.0004
399,0.5094099640846252,1.3427821397781372,0.8461538461538461,0.9615384615384616,0.8571428571428571,0.7857142857142857,0.0004
400,0.4969908446073532,1.1840178966522217,0.8461538461538461,0.9615384615384616,0.7857142857142857,0.9285714285714286,0.0004
401,0.4757305681705475,1.6190357208251953,0.8653846153846154,0.9615384615384616,0.7142857142857143,0.8571428571428571,0.0004
402,0.5801195055246353,0.8846261501312256,0.8269230769230769,0.9615384615384616,0.8571428571428571,0.8571428571428571,0.0004
403,0.24490228295326233,1.276956558227539,0.9038461538461539,1.0,0.7857142857142857,0.8571428571428571,0.0004
404,0.6236514151096344,2.462385892868042,0.8076923076923077,0.9423076923076923,0.5714285714285714,0.7857142857142857,0.0004
405,0.553190678358078,0.7520028352737427,0.8269230769230769,0.9230769230769231,0.9285714285714286,0.9285714285714286,0.0004
406,0.3718242347240448,1.566554069519043,0.8653846153846154,1.0,0.7142857142857143,0.7857142857142857,0.0004
407,0.5220184475183487,0.7703347206115723,0.8076923076923077,0.9807692307692307,0.8571428571428571,0.9285714285714286,0.0004
408,0.4175231233239174,0.8567489385604858,0.8076923076923077,1.0,0.8571428571428571,0.9285714285714286,0.0004
409,0.32763373851776123,1.0102359056472778,0.9038461538461539,1.0,0.7857142857142857,0.8571428571428571,0.0004
410,0.6163094639778137,1.4738752841949463,0.8461538461538461,1.0,0.7857142857142857,0.8571428571428571,0.0004
411,0.4568077027797699,0.8650871515274048,0.8461538461538461,0.9807692307692307,0.8571428571428571,0.8571428571428571,0.0004
412,0.46242164075374603,1.3261899948120117,0.8269230769230769,0.9423076923076923,0.8571428571428571,0.8571428571428571,0.0004
413,0.3514040559530258,1.3319697380065918,0.8653846153846154,0.9807692307692307,0.7857142857142857,0.8571428571428571,0.0004
414,0.6143641322851181,0.7365391254425049,0.7307692307692307,0.9230769230769231,0.9285714285714286,0.9285714285714286,0.0004
415,0.6018956303596497,1.4427313804626465,0.8269230769230769,0.9615384615384616,0.8571428571428571,0.8571428571428571,0.0004
416,0.3738507330417633,1.5034418106079102,0.9230769230769231,0.9423076923076923,0.5714285714285714,0.8571428571428571,0.0004
417,0.63550865650177,0.6951738595962524,0.7307692307692307,0.9615384615384616,0.9285714285714286,0.9285714285714286,0.0004
418,0.7263656258583069,1.329872965812683,0.7692307692307693,0.9423076923076923,0.6428571428571429,0.9285714285714286,0.0004
419,0.5407624989748001,1.122930884361267,0.8461538461538461,0.9807692307692307,0.6428571428571429,0.9285714285714286,0.0004
420,0.6025921851396561,1.1970434188842773,0.8076923076923077,0.9807692307692307,0.7142857142857143,0.8571428571428571,0.0004
421,0.5443460643291473,0.8702783584594727,0.8076923076923077,0.9615384615384616,0.8571428571428571,0.9285714285714286,0.0004
422,0.461611807346344,1.08639657497406,0.8461538461538461,0.9615384615384616,0.7142857142857143,0.9285714285714286,0.0004
423,0.6036976277828217,0.9037483334541321,0.8269230769230769,0.9615384615384616,0.7857142857142857,0.9285714285714286,0.0004
424,0.44658932089805603,1.6511867046356201,0.8846153846153846,0.9423076923076923,0.6428571428571429,0.7857142857142857,0.0004
425,0.3200399726629257,1.3759112358093262,0.9038461538461539,1.0,0.7857142857142857,0.8571428571428571,0.0004
426,0.47779855132102966,0.8104771375656128,0.8653846153846154,0.9807692307692307,0.8571428571428571,0.9285714285714286,0.0004
427,0.44125334918498993,1.1500463485717773,0.8653846153846154,0.9807692307692307,0.7142857142857143,0.8571428571428571,0.0004
428,0.44856663048267365,1.172980546951294,0.8653846153846154,0.9615384615384616,0.6428571428571429,0.9285714285714286,0.0004
429,0.5893129408359528,2.461864471435547,0.8269230769230769,0.9423076923076923,0.5714285714285714,0.7857142857142857,0.0004
430,0.5354290306568146,1.0387893915176392,0.7884615384615384,0.9615384615384616,0.7857142857142857,0.9285714285714286,0.0004
431,0.2602705955505371,1.1094399690628052,0.9615384615384616,1.0,0.7142857142857143,0.9285714285714286,0.0004
432,0.7066826224327087,1.3030579090118408,0.8076923076923077,0.9423076923076923,0.7857142857142857,0.9285714285714286,0.0004
433,0.3590208515524864,1.639225959777832,0.8846153846153846,0.9807692307692307,0.7142857142857143,0.7857142857142857,0.0004
434,0.40688610076904297,0.9519332647323608,0.8846153846153846,0.9615384615384616,0.7857142857142857,0.9285714285714286,0.0004
435,0.34458397328853607,1.6106188297271729,0.9038461538461539,1.0,0.7142857142857143,0.8571428571428571,0.0004
436,0.537023589015007,0.758502721786499,0.8461538461538461,0.9615384615384616,0.9285714285714286,0.9285714285714286,0.0004
437,0.637483686208725,1.4465501308441162,0.8269230769230769,0.9423076923076923,0.7857142857142857,0.8571428571428571,0.0004
438,0.4681667238473892,1.0952708721160889,0.8269230769230769,1.0,0.8571428571428571,0.9285714285714286,0.0004
439,0.46746914088726044,1.4715049266815186,0.9038461538461539,0.9807692307692307,0.5714285714285714,0.8571428571428571,0.0004
440,0.5075678899884224,0.885776162147522,0.8461538461538461,0.9615384615384616,0.8571428571428571,0.9285714285714286,0.0004
441,0.5329135805368423,1.7273118495941162,0.8269230769230769,0.9615384615384616,0.6428571428571429,0.8571428571428571,0.0004
442,0.6588670313358307,0.9301650524139404,0.8076923076923077,0.9423076923076923,0.9285714285714286,0.9285714285714286,0.0004
443,0.531290203332901,1.3200855255126953,0.8461538461538461,0.9615384615384616,0.8571428571428571,0.8571428571428571,0.0004
444,0.6618598401546478,1.0631895065307617,0.7884615384615384,0.9038461538461539,0.7857142857142857,0.8571428571428571,0.0004
445,0.8766435980796814,1.0864248275756836,0.75,0.9230769230769231,0.9285714285714286,0.9285714285714286,0.0004
446,0.6044637262821198,1.166947364807129,0.7692307692307693,0.9615384615384616,0.8571428571428571,0.7857142857142857,0.0004
447,0.6635586023330688,1.224643588066101,0.8076923076923077,0.9615384615384616,0.7142857142857143,0.9285714285714286,0.0004
448,0.4828471839427948,1.3223156929016113,0.8653846153846154,0.9807692307692307,0.7142857142857143,0.9285714285714286,0.0004
449,0.31323419511318207,0.946177065372467,0.9230769230769231,0.9807692307692307,0.9285714285714286,0.9285714285714286,0.0004
450,0.6171183288097382,1.298911690711975,0.8269230769230769,0.9807692307692307,0.6428571428571429,0.7142857142857143,0.0004
451,0.5464470088481903,1.1619195938110352,0.7884615384615384,0.9807692307692307,0.8571428571428571,0.8571428571428571,0.0004
452,0.5252453833818436,1.2008423805236816,0.8269230769230769,0.9807692307692307,0.7857142857142857,0.9285714285714286,0.0004
453,0.6068626940250397,0.9627254009246826,0.8269230769230769,1.0,0.9285714285714286,0.8571428571428571,0.0004
454,0.3374466449022293,1.2703866958618164,0.9038461538461539,1.0,0.7857142857142857,0.9285714285714286,0.0004
455,0.43173471093177795,1.047507405281067,0.8846153846153846,0.9807692307692307,0.8571428571428571,0.9285714285714286,0.0004
456,0.49955031275749207,1.32301926612854,0.8269230769230769,0.9423076923076923,0.6428571428571429,0.9285714285714286,0.0004
457,0.3813147097826004,1.2581603527069092,0.8846153846153846,0.9807692307692307,0.6428571428571429,0.8571428571428571,0.0004
458,0.5458317473530769,1.5157558917999268,0.8653846153846154,0.9615384615384616,0.6428571428571429,0.8571428571428571,0.0004
459,0.48368650674819946,0.8866546154022217,0.8461538461538461,0.9807692307692307,0.8571428571428571,0.9285714285714286,0.0004
460,0.42045848071575165,1.113901138305664,0.9038461538461539,1.0,0.8571428571428571,0.9285714285714286,0.0004
461,0.5437863320112228,0.8200607895851135,0.8269230769230769,0.9807692307692307,0.7142857142857143,0.8571428571428571,0.0004
462,0.5428113639354706,0.9860905408859253,0.8269230769230769,0.9423076923076923,0.9285714285714286,0.8571428571428571,0.0004
463,0.4640048146247864,1.0869184732437134,0.8461538461538461,0.9807692307692307,0.7142857142857143,0.8571428571428571,0.0004
464,0.4733913689851761,1.264312982559204,0.8653846153846154,0.9615384615384616,0.9285714285714286,0.8571428571428571,0.0004
465,0.43026506900787354,1.549640417098999,0.8269230769230769,0.9807692307692307,0.7142857142857143,0.8571428571428571,0.0004
466,0.3572487235069275,0.9113053679466248,0.8653846153846154,0.9807692307692307,0.8571428571428571,0.9285714285714286,0.0004
467,0.47961007058620453,1.0068093538284302,0.8653846153846154,0.9807692307692307,0.7857142857142857,0.9285714285714286,0.0004
468,0.41030703485012054,1.7282451391220093,0.9038461538461539,1.0,0.5714285714285714,0.7857142857142857,0.0004
469,0.5799188017845154,1.6038258075714111,0.8461538461538461,0.9423076923076923,0.6428571428571429,0.8571428571428571,0.0004
470,0.3338641822338104,0.8196815252304077,0.9038461538461539,1.0,0.8571428571428571,0.9285714285714286,0.0004
471,0.44714023172855377,1.6194517612457275,0.8653846153846154,0.9807692307692307,0.7857142857142857,0.8571428571428571,0.0004
472,0.4578620493412018,1.1074628829956055,0.8653846153846154,0.9807692307692307,0.8571428571428571,0.8571428571428571,0.0004
473,0.4567306488752365,1.0840038061141968,0.8653846153846154,0.9423076923076923,0.7857142857142857,0.9285714285714286,0.0004
474,0.4857006072998047,1.2430615425109863,0.8653846153846154,0.9807692307692307,0.7857142857142857,0.9285714285714286,0.0004
475,0.3900972455739975,0.613475501537323,0.8653846153846154,0.9615384615384616,0.9285714285714286,0.9285714285714286,0.0004
476,0.525672972202301,0.7090532779693604,0.8461538461538461,0.9615384615384616,0.8571428571428571,0.9285714285714286,0.0004
477,0.5601583123207092,2.019193649291992,0.8076923076923077,0.9807692307692307,0.6428571428571429,0.7857142857142857,0.0004
478,0.4429731220006943,0.566286563873291,0.8269230769230769,0.9807692307692307,1.0,0.8571428571428571,0.0004
479,0.5491161346435547,1.4934234619140625,0.8653846153846154,0.9423076923076923,0.7142857142857143,0.7857142857142857,0.0004
480,0.3912334740161896,0.6021696925163269,0.8846153846153846,1.0,0.9285714285714286,0.9285714285714286,0.0004
481,0.44449472427368164,0.9791982173919678,0.8461538461538461,0.9807692307692307,0.5714285714285714,0.8571428571428571,0.0004
482,0.5051499307155609,1.1062610149383545,0.8269230769230769,0.9807692307692307,0.8571428571428571,0.9285714285714286,0.0004
483,0.5184955149888992,1.642702579498291,0.8076923076923077,0.9615384615384616,0.6428571428571429,0.7857142857142857,0.0004
484,0.32087646424770355,1.6831536293029785,0.8846153846153846,0.9807692307692307,0.7857142857142857,0.7857142857142857,0.0004
485,1.1787076592445374,2.036146402359009,0.7884615384615384,0.9038461538461539,0.6428571428571429,0.7857142857142857,0.0004
486,0.4076785445213318,1.2385988235473633,0.8269230769230769,0.9807692307692307,0.6428571428571429,0.8571428571428571,0.0004
487,0.6062980145215988,1.0340511798858643,0.8461538461538461,0.9807692307692307,0.6428571428571429,0.9285714285714286,0.0004
488,0.874532550573349,0.9567583203315735,0.75,0.9230769230769231,0.7857142857142857,0.8571428571428571,0.0004
489,0.4054136127233505,1.1849565505981445,0.8846153846153846,0.9615384615384616,0.7857142857142857,0.8571428571428571,0.0004
490,0.46585802733898163,1.0803864002227783,0.8653846153846154,0.9807692307692307,0.7857142857142857,0.8571428571428571,0.0004
491,0.5130416303873062,0.972115159034729,0.8269230769230769,1.0,0.8571428571428571,0.8571428571428571,0.0004
492,0.363930806517601,1.1418380737304688,0.8653846153846154,0.9807692307692307,0.7857142857142857,0.7857142857142857,0.0004
493,0.45708902180194855,0.8955914974212646,0.8846153846153846,0.9807692307692307,0.7142857142857143,0.9285714285714286,0.0004
494,0.3096242994070053,0.659116804599762,0.9038461538461539,0.9807692307692307,0.9285714285714286,0.9285714285714286,0.0004
495,0.3569805920124054,1.288251519203186,0.9038461538461539,1.0,0.7142857142857143,0.7142857142857143,0.0004
496,0.5797688364982605,0.9151267409324646,0.7884615384615384,0.9615384615384616,0.7857142857142857,0.8571428571428571,0.0004
497,0.4311605542898178,0.8395795822143555,0.9038461538461539,0.9807692307692307,0.8571428571428571,0.9285714285714286,0.0004
498,0.5051036477088928,1.281287670135498,0.8461538461538461,0.9807692307692307,0.6428571428571429,0.8571428571428571,0.0004
499,0.45204518735408783,1.1275839805603027,0.8846153846153846,0.9615384615384616,0.7857142857142857,0.8571428571428571,0.0004
500,0.3992081359028816,0.7604184746742249,0.8076923076923077,0.9807692307692307,0.8571428571428571,0.9285714285714286,0.0004
501,0.30303211510181427,1.5226120948791504,0.9230769230769231,0.9807692307692307,0.7142857142857143,0.7857142857142857,0.0004
502,0.5959139317274094,1.849571704864502,0.8269230769230769,0.9807692307692307,0.5714285714285714,0.8571428571428571,0.0004
503,0.2760515511035919,1.243445634841919,0.8846153846153846,1.0,0.7142857142857143,0.8571428571428571,0.0004
504,0.23936928063631058,1.2412489652633667,0.9230769230769231,1.0,0.7142857142857143,0.8571428571428571,0.0004
505,0.3974456936120987,1.8763972520828247,0.8846153846153846,1.0,0.5,0.8571428571428571,0.0004
506,0.44966548681259155,0.9459758400917053,0.8653846153846154,1.0,0.9285714285714286,0.9285714285714286,0.0004
507,0.6688836216926575,1.2544183731079102,0.7307692307692307,0.9423076923076923,0.6428571428571429,0.7857142857142857,0.0004
508,0.3784078359603882,1.0021085739135742,0.8653846153846154,1.0,0.7142857142857143,0.9285714285714286,0.0004
509,0.5575005412101746,1.2182157039642334,0.7692307692307693,0.9615384615384616,0.7857142857142857,0.7857142857142857,0.0004
510,0.5103958547115326,1.2410242557525635,0.8076923076923077,1.0,0.7142857142857143,0.8571428571428571,0.0004
511,0.6830722391605377,0.8187523484230042,0.7884615384615384,0.9807692307692307,0.9285714285714286,0.9285714285714286,0.0004
512,0.35357922315597534,1.1564668416976929,0.8653846153846154,0.9807692307692307,0.7142857142857143,0.9285714285714286,0.0004
513,0.4876689612865448,1.4347752332687378,0.7884615384615384,0.9807692307692307,0.7857142857142857,0.8571428571428571,0.0004
514,0.5587349236011505,1.0378978252410889,0.7884615384615384,0.9615384615384616,0.7857142857142857,0.9285714285714286,0.0004
515,0.7304629385471344,1.836012840270996,0.7692307692307693,0.9423076923076923,0.7142857142857143,0.7857142857142857,0.0004
516,0.6359295845031738,1.2023358345031738,0.7692307692307693,0.9615384615384616,0.7857142857142857,0.8571428571428571,0.0004
517,0.4933616518974304,1.3522961139678955,0.8269230769230769,0.9423076923076923,0.7142857142857143,0.8571428571428571,0.0004
518,0.4407595694065094,1.2619612216949463,0.8846153846153846,1.0,0.7142857142857143,0.8571428571428571,0.0004
519,0.4865158051252365,1.4504289627075195,0.8461538461538461,1.0,0.7857142857142857,0.7857142857142857,0.0004
520,0.5349428504705429,0.9894963502883911,0.8076923076923077,0.9807692307692307,0.8571428571428571,0.9285714285714286,0.0004
521,0.3863220289349556,0.8579623699188232,0.8461538461538461,1.0,0.8571428571428571,0.8571428571428571,0.0004
522,0.3883368521928787,1.5525047779083252,0.8653846153846154,0.9807692307692307,0.7142857142857143,0.7857142857142857,0.0004
523,0.46394310891628265,1.1144626140594482,0.8076923076923077,0.9807692307692307,0.7142857142857143,0.8571428571428571,0.0004
524,0.6663176417350769,1.0492641925811768,0.7692307692307693,0.9615384615384616,0.8571428571428571,0.8571428571428571,0.0004
525,0.4063618332147598,1.071499228477478,0.8461538461538461,0.9807692307692307,0.8571428571428571,0.8571428571428571,0.0004
526,0.6063971519470215,1.0231868028640747,0.7884615384615384,0.9615384615384616,0.8571428571428571,0.8571428571428571,0.0004
527,0.5630562901496887,1.1168053150177002,0.8076923076923077,0.9807692307692307,0.8571428571428571,0.9285714285714286,0.0004
528,0.41478878259658813,1.0098220109939575,0.9230769230769231,0.9615384615384616,0.7857142857142857,0.8571428571428571,0.0004
529,0.41667991876602173,0.9021386504173279,0.8269230769230769,0.9807692307692307,0.8571428571428571,0.8571428571428571,0.0004
530,0.46518026292324066,0.8136298060417175,0.8461538461538461,0.9807692307692307,0.9285714285714286,0.9285714285714286,0.0004
531,0.5122473984956741,0.9557826519012451,0.8269230769230769,0.9615384615384616,0.7857142857142857,0.9285714285714286,0.0004
532,0.45895881950855255,1.002845287322998,0.8653846153846154,1.0,0.9285714285714286,0.8571428571428571,0.0004
533,0.6256127953529358,0.8745688199996948,0.7884615384615384,0.9807692307692307,0.8571428571428571,0.8571428571428571,0.0004
534,0.4512568861246109,1.2631052732467651,0.9038461538461539,0.9615384615384616,0.7142857142857143,0.8571428571428571,0.0004
535,0.45959503948688507,0.9059005975723267,0.9230769230769231,0.9807692307692307,0.7857142857142857,0.8571428571428571,0.0004
536,0.4755691736936569,1.0161056518554688,0.8653846153846154,0.9807692307692307,0.7142857142857143,0.8571428571428571,0.0004
537,0.41060487926006317,0.5859014987945557,0.8653846153846154,0.9807692307692307,0.8571428571428571,0.9285714285714286,0.0004
538,0.4630891680717468,0.8579692244529724,0.8461538461538461,0.9615384615384616,0.7857142857142857,0.9285714285714286,0.0004
539,0.5279422104358673,1.472762107849121,0.7884615384615384,0.9615384615384616,0.7857142857142857,0.7857142857142857,0.0004
540,0.5050092935562134,1.1370261907577515,0.8461538461538461,0.9615384615384616,0.7857142857142857,0.9285714285714286,0.0004
541,0.3138335980474949,1.770958423614502,0.9038461538461539,0.9615384615384616,0.7142857142857143,0.8571428571428571,0.0004
542,0.5517813116312027,1.7975168228149414,0.8076923076923077,0.9807692307692307,0.7142857142857143,0.8571428571428571,0.0004
543,0.4488712251186371,2.406614303588867,0.7884615384615384,1.0,0.6428571428571429,0.7857142857142857,0.0004
544,0.4974837750196457,1.852919101715088,0.8076923076923077,0.9807692307692307,0.7857142857142857,0.8571428571428571,0.0004
545,0.6520966589450836,0.7318682670593262,0.8846153846153846,0.9615384615384616,0.8571428571428571,0.9285714285714286,0.0004
546,0.31880930066108704,0.9194282293319702,0.8846153846153846,0.9807692307692307,0.7857142857142857,0.9285714285714286,0.0004
547,0.3717959225177765,0.6188089847564697,0.8653846153846154,0.9807692307692307,1.0,0.9285714285714286,0.0004
548,0.4134501516819,1.0761610269546509,0.8653846153846154,1.0,0.7142857142857143,0.9285714285714286,0.0004
549,0.7234563827514648,1.5633652210235596,0.75,0.9615384615384616,0.7857142857142857,0.8571428571428571,0.0004
550,0.4532240629196167,1.7435880899429321,0.8653846153846154,0.9807692307692307,0.7857142857142857,0.7857142857142857,0.0004
551,0.3640722781419754,1.908834457397461,0.9038461538461539,0.9615384615384616,0.7857142857142857,0.8571428571428571,0.0004
552,0.5115027725696564,1.4107184410095215,0.8461538461538461,1.0,0.7857142857142857,0.8571428571428571,0.0004
553,0.6198922395706177,1.957548975944519,0.7884615384615384,0.9423076923076923,0.7857142857142857,0.7857142857142857,0.0004
554,0.6023870706558228,1.388350486755371,0.7884615384615384,0.9807692307692307,0.7142857142857143,0.8571428571428571,0.0004
555,0.4271235167980194,0.6758747696876526,0.8846153846153846,0.9807692307692307,1.0,0.9285714285714286,0.0004
556,0.41847915947437286,0.7628805041313171,0.8269230769230769,0.9615384615384616,0.8571428571428571,0.9285714285714286,0.0004
557,0.4126780182123184,0.9006484150886536,0.8461538461538461,0.9807692307692307,0.9285714285714286,0.9285714285714286,0.0004
558,0.332735575735569,1.551491379737854,0.9230769230769231,0.9807692307692307,0.7142857142857143,0.9285714285714286,0.0004
559,0.6528858244419098,1.319685459136963,0.8269230769230769,0.9615384615384616,0.7142857142857143,0.9285714285714286,0.0004
560,0.6530206203460693,1.2785115242004395,0.75,0.9807692307692307,0.8571428571428571,0.9285714285714286,0.0004
561,0.42663176357746124,1.1345086097717285,0.8461538461538461,0.9807692307692307,0.7857142857142857,0.9285714285714286,0.0004
562,0.29964813590049744,1.7235816717147827,0.9423076923076923,0.9807692307692307,0.6428571428571429,0.8571428571428571,0.0004
563,0.4626248925924301,1.7395288944244385,0.8653846153846154,0.9807692307692307,0.7857142857142857,0.8571428571428571,0.0004
564,0.3744492530822754,0.7642990946769714,0.8653846153846154,1.0,0.7857142857142857,0.9285714285714286,0.0004
565,0.7466944456100464,1.540102243423462,0.8076923076923077,0.9423076923076923,0.7857142857142857,0.7857142857142857,0.0004
566,0.5507552027702332,0.7588858604431152,0.8653846153846154,0.9423076923076923,0.9285714285714286,0.9285714285714286,0.0004
567,0.4627680480480194,0.9603536128997803,0.8269230769230769,1.0,0.8571428571428571,0.9285714285714286,0.0004
568,0.37180595099925995,1.2023837566375732,0.9038461538461539,0.9615384615384616,0.8571428571428571,0.8571428571428571,0.0004
569,0.6261737197637558,0.9061428308486938,0.8076923076923077,0.9615384615384616,0.8571428571428571,0.9285714285714286,0.0004
570,0.5553461015224457,1.671926736831665,0.7884615384615384,0.9423076923076923,0.6428571428571429,0.7857142857142857,0.0004
571,0.6598669290542603,1.7260675430297852,0.7692307692307693,0.9615384615384616,0.6428571428571429,0.8571428571428571,0.0004
572,0.33592627197504044,1.0097378492355347,0.8846153846153846,0.9807692307692307,0.7857142857142857,0.8571428571428571,0.0004
573,0.8133443593978882,1.7662410736083984,0.7115384615384616,0.9615384615384616,0.6428571428571429,0.7857142857142857,0.0004
574,0.479753315448761,1.8275015354156494,0.8269230769230769,0.9807692307692307,0.7142857142857143,0.7857142857142857,0.0004
575,0.8789322078227997,1.1041215658187866,0.75,0.9615384615384616,0.8571428571428571,0.9285714285714286,0.0004
576,0.430717334151268,1.2789820432662964,0.8653846153846154,1.0,0.7857142857142857,0.9285714285714286,0.0004
577,0.7501303851604462,1.763594388961792,0.7692307692307693,0.9423076923076923,0.5,0.8571428571428571,0.0004
578,0.4101031720638275,1.0435388088226318,0.9038461538461539,1.0,0.8571428571428571,0.9285714285714286,0.0004
579,0.6464962363243103,1.175434947013855,0.8269230769230769,0.9230769230769231,0.9285714285714286,0.7857142857142857,0.0004
580,0.42087021470069885,0.8009388446807861,0.8461538461538461,1.0,0.9285714285714286,0.9285714285714286,0.0004
581,0.5919312536716461,0.8222054243087769,0.8076923076923077,0.9615384615384616,0.9285714285714286,0.9285714285714286,0.0004
582,0.7692442536354065,1.2730056047439575,0.7115384615384616,0.9230769230769231,0.6428571428571429,0.8571428571428571,0.0004
583,0.5178883969783783,0.31429415941238403,0.8269230769230769,0.9807692307692307,0.8571428571428571,1.0,0.0004
584,0.57747882604599,1.5722333192825317,0.8461538461538461,0.9615384615384616,0.6428571428571429,0.8571428571428571,0.0004
585,0.512750893831253,1.134050965309143,0.7884615384615384,0.9807692307692307,0.7142857142857143,0.8571428571428571,0.0004
586,0.7037400603294373,1.1939791440963745,0.8076923076923077,0.9615384615384616,0.7857142857142857,0.8571428571428571,0.0004
587,0.3367942273616791,0.7754830718040466,0.9038461538461539,1.0,0.8571428571428571,0.9285714285714286,0.0004
588,0.4545389860868454,1.1247382164001465,0.8846153846153846,0.9615384615384616,0.7142857142857143,0.8571428571428571,0.0004
589,0.26794417202472687,1.730502724647522,0.8846153846153846,1.0,0.6428571428571429,0.7857142857142857,0.0004
590,0.5759227573871613,1.1504440307617188,0.7884615384615384,0.9615384615384616,0.7142857142857143,0.8571428571428571,0.0004
591,0.3101917579770088,1.3525707721710205,0.8846153846153846,0.9807692307692307,0.7857142857142857,0.8571428571428571,0.0004
592,0.5782412737607956,1.3423595428466797,0.7884615384615384,0.9230769230769231,0.8571428571428571,0.8571428571428571,0.0004
593,0.4137294590473175,1.8077614307403564,0.8269230769230769,0.9807692307692307,0.5,0.8571428571428571,0.0004
594,0.4099545031785965,1.2168426513671875,0.8846153846153846,1.0,0.7857142857142857,0.8571428571428571,0.0004
595,0.3452768325805664,0.9021177291870117,0.9038461538461539,1.0,0.7142857142857143,0.9285714285714286,0.0004
596,0.5015124380588531,1.017662763595581,0.8461538461538461,0.9615384615384616,0.8571428571428571,0.9285714285714286,0.0004
597,0.6600320637226105,1.3090029954910278,0.8846153846153846,0.9423076923076923,0.42857142857142855,0.8571428571428571,0.0004
598,0.5419699549674988,1.0433157682418823,0.8461538461538461,0.9615384615384616,0.7142857142857143,0.9285714285714286,0.0004
599,0.6490570306777954,1.6365725994110107,0.8461538461538461,0.9230769230769231,0.7857142857142857,0.8571428571428571,0.0004
600,0.4015744850039482,0.7586116790771484,0.8653846153846154,0.9615384615384616,0.8571428571428571,0.9285714285714286,0.0004
601,0.7213844060897827,0.9209392666816711,0.8076923076923077,0.9615384615384616,0.8571428571428571,0.9285714285714286,0.0004
602,0.313690721988678,2.2704813480377197,0.8269230769230769,1.0,0.5714285714285714,0.7857142857142857,0.0004
603,0.5391039252281189,1.1373502016067505,0.8653846153846154,0.9423076923076923,0.7857142857142857,0.9285714285714286,0.0004
604,0.33066144585609436,1.1457598209381104,0.8461538461538461,1.0,0.6428571428571429,0.8571428571428571,0.0004
605,0.4218430817127228,0.6763321161270142,0.8269230769230769,0.9423076923076923,0.7857142857142857,0.9285714285714286,0.0004
606,0.40482957661151886,1.3194973468780518,0.8653846153846154,0.9423076923076923,0.7142857142857143,0.9285714285714286,0.0004
607,0.529990091919899,1.5180904865264893,0.8269230769230769,0.9807692307692307,0.7142857142857143,0.8571428571428571,0.0004
608,0.4218382239341736,1.0773003101348877,0.8269230769230769,0.9615384615384616,0.7857142857142857,0.8571428571428571,0.0004
609,0.3411915898323059,1.2927603721618652,0.9038461538461539,0.9807692307692307,0.7142857142857143,0.8571428571428571,0.0004
610,0.3562455475330353,1.241142988204956,0.8846153846153846,0.9807692307692307,0.7142857142857143,0.8571428571428571,0.0004
611,0.6037887334823608,1.1791874170303345,0.7884615384615384,0.9423076923076923,0.8571428571428571,0.8571428571428571,0.0004
612,0.5034421980381012,1.0360875129699707,0.8076923076923077,0.9807692307692307,0.7142857142857143,0.9285714285714286,0.0004
613,0.4860014170408249,2.0022482872009277,0.8269230769230769,0.9615384615384616,0.5714285714285714,0.7142857142857143,0.0004
614,0.30733468383550644,1.2416268587112427,0.8653846153846154,0.9615384615384616,0.7142857142857143,0.9285714285714286,0.0004
615,0.5675129890441895,1.2549481391906738,0.8653846153846154,0.9423076923076923,0.7142857142857143,0.9285714285714286,0.0004
616,0.4608902633190155,2.0749919414520264,0.8269230769230769,0.9807692307692307,0.5714285714285714,0.8571428571428571,0.0004
617,0.584937795996666,0.892836332321167,0.8076923076923077,0.9615384615384616,0.9285714285714286,0.9285714285714286,0.0004
618,0.7284376621246338,1.0268207788467407,0.8076923076923077,0.9615384615384616,0.7857142857142857,0.9285714285714286,0.0004
619,0.5050265491008759,1.0338534116744995,0.9038461538461539,0.9807692307692307,0.9285714285714286,0.9285714285714286,0.0004
620,0.4036657065153122,0.9365630149841309,0.8653846153846154,0.9615384615384616,0.7857142857142857,0.9285714285714286,0.0004
621,0.2821803465485573,1.7416921854019165,0.9038461538461539,1.0,0.6428571428571429,0.8571428571428571,0.0004
622,0.5168435573577881,1.8025479316711426,0.8076923076923077,0.9615384615384616,0.6428571428571429,0.7857142857142857,0.0004
623,0.5020455718040466,0.994841456413269,0.8269230769230769,0.9807692307692307,0.7857142857142857,0.8571428571428571,0.0004
624,0.6410398185253143,1.8927104473114014,0.8269230769230769,0.9423076923076923,0.6428571428571429,0.8571428571428571,0.0004
625,0.5470059514045715,0.5760299563407898,0.8269230769230769,0.9230769230769231,0.9285714285714286,0.9285714285714286,0.0004
626,0.48994335532188416,1.0570311546325684,0.8269230769230769,0.9230769230769231,0.7857142857142857,0.9285714285714286,0.0004
627,0.5442636758089066,0.8303683996200562,0.7884615384615384,1.0,0.9285714285714286,0.9285714285714286,0.0004
628,0.5045920014381409,2.2871222496032715,0.8653846153846154,0.9807692307692307,0.6428571428571429,0.7857142857142857,0.0004
629,0.5226044654846191,1.2388617992401123,0.8461538461538461,0.9615384615384616,0.8571428571428571,0.8571428571428571,0.0004
630,0.4208073019981384,1.0521360635757446,0.8653846153846154,0.9807692307692307,0.7142857142857143,0.9285714285714286,0.0004
631,0.4130944311618805,1.4577372074127197,0.8653846153846154,0.9807692307692307,0.8571428571428571,0.8571428571428571,0.0004
632,0.5059584975242615,1.5651617050170898,0.8461538461538461,0.9807692307692307,0.8571428571428571,0.8571428571428571,0.0004
633,0.678417444229126,2.0618882179260254,0.7692307692307693,0.9807692307692307,0.6428571428571429,0.7142857142857143,0.0004
634,0.539087176322937,1.4752144813537598,0.8076923076923077,0.9615384615384616,0.7857142857142857,0.8571428571428571,0.0004
635,0.48704196512699127,0.9978547096252441,0.8461538461538461,0.9807692307692307,0.9285714285714286,0.9285714285714286,0.0004
636,0.4549889415502548,1.621608018875122,0.8461538461538461,0.9615384615384616,0.6428571428571429,0.8571428571428571,0.0004
637,0.43825726211071014,1.3218778371810913,0.8653846153846154,0.9615384615384616,0.7857142857142857,0.9285714285714286,0.0004
638,0.6233925521373749,1.2349518537521362,0.8076923076923077,0.9615384615384616,0.7142857142857143,0.9285714285714286,0.0004
639,0.49248336255550385,1.4379135370254517,0.8461538461538461,0.9807692307692307,0.7857142857142857,0.9285714285714286,0.0004
640,0.4059431254863739,1.5557845830917358,0.8846153846153846,0.9615384615384616,0.7142857142857143,0.8571428571428571,0.0004
641,0.38534386456012726,1.3482062816619873,0.9038461538461539,0.9615384615384616,0.7857142857142857,0.9285714285714286,0.0004
642,0.4664175659418106,1.6648750305175781,0.8076923076923077,0.9807692307692307,0.7142857142857143,0.7857142857142857,0.0004
643,0.42270518839359283,1.03583562374115,0.8846153846153846,1.0,0.7857142857142857,0.8571428571428571,0.0004
644,0.5103053227066994,0.9617772102355957,0.8076923076923077,0.9615384615384616,0.7857142857142857,0.9285714285714286,0.0004
645,0.45441143214702606,1.156555414199829,0.8846153846153846,0.9615384615384616,0.7857142857142857,0.8571428571428571,0.0004
646,0.6059508621692657,0.8588689565658569,0.8076923076923077,0.9807692307692307,0.8571428571428571,0.9285714285714286,0.0004
647,0.5202763080596924,1.505842685699463,0.7692307692307693,0.9807692307692307,0.7857142857142857,0.9285714285714286,0.0004
648,0.49426956474781036,0.8454555869102478,0.8076923076923077,0.9807692307692307,0.8571428571428571,0.9285714285714286,0.0004
649,0.6475183963775635,0.8649522066116333,0.7692307692307693,0.9423076923076923,0.8571428571428571,0.9285714285714286,0.0004
650,0.45276758074760437,1.4951918125152588,0.8653846153846154,0.9807692307692307,0.7857142857142857,0.8571428571428571,0.0004
651,0.3247271776199341,1.7562675476074219,0.9230769230769231,0.9807692307692307,0.7142857142857143,0.7857142857142857,0.0004
652,0.9242687523365021,1.305666446685791,0.7307692307692307,0.9807692307692307,0.6428571428571429,0.8571428571428571,0.0004
653,0.5909580588340759,1.6383483409881592,0.8076923076923077,0.9615384615384616,0.5,0.7857142857142857,0.0004
654,0.40429624915122986,1.0411494970321655,0.8846153846153846,1.0,0.9285714285714286,0.9285714285714286,0.0004
655,0.500281810760498,1.0663894414901733,0.8461538461538461,0.9807692307692307,0.7857142857142857,0.9285714285714286,0.0004
656,0.41142377257347107,0.8348429203033447,0.8653846153846154,1.0,1.0,0.9285714285714286,0.0004
657,0.46884821355342865,1.3285613059997559,0.8653846153846154,0.9807692307692307,0.7142857142857143,0.9285714285714286,0.0004
658,0.39724668115377426,1.4512650966644287,0.8461538461538461,0.9615384615384616,0.6428571428571429,0.8571428571428571,0.0004
659,0.44961681962013245,1.355116367340088,0.8269230769230769,0.9807692307692307,0.8571428571428571,0.8571428571428571,0.0004
660,0.288944274187088,0.952659010887146,0.8846153846153846,1.0,0.7857142857142857,0.9285714285714286,0.0004
661,0.5105300545692444,0.8895744681358337,0.8076923076923077,0.9615384615384616,0.9285714285714286,0.8571428571428571,0.0004
662,0.49929967522621155,1.8618056774139404,0.8461538461538461,0.9615384615384616,0.7857142857142857,0.7857142857142857,0.0004
663,0.3528277948498726,1.5516438484191895,0.8461538461538461,0.9807692307692307,0.6428571428571429,0.8571428571428571,0.0004
664,0.6939273625612259,0.8643550872802734,0.8461538461538461,0.9423076923076923,0.9285714285714286,0.8571428571428571,0.0004
665,0.620576947927475,2.2547008991241455,0.8653846153846154,0.9615384615384616,0.7142857142857143,0.7142857142857143,0.0004
666,0.5789699256420135,2.0445680618286133,0.8269230769230769,1.0,0.7142857142857143,0.7857142857142857,0.0004
667,0.5256079733371735,1.9556971788406372,0.7884615384615384,0.9807692307692307,0.7142857142857143,0.8571428571428571,0.0004
668,0.4379715025424957,1.2351744174957275,0.8269230769230769,1.0,0.7142857142857143,0.8571428571428571,0.0004
669,0.7348689138889313,1.1164921522140503,0.8269230769230769,0.9615384615384616,0.7857142857142857,0.8571428571428571,0.0004
670,0.33832530677318573,1.3848540782928467,0.8653846153846154,0.9807692307692307,0.7142857142857143,0.9285714285714286,0.0004
671,0.367019385099411,1.2028348445892334,0.9038461538461539,0.9615384615384616,0.6428571428571429,0.8571428571428571,0.0004
672,0.4412474036216736,1.0018035173416138,0.8269230769230769,0.9807692307692307,0.7857142857142857,0.8571428571428571,0.0004
673,0.5529050379991531,1.9950909614562988,0.8269230769230769,0.9615384615384616,0.6428571428571429,0.7142857142857143,0.0004
674,0.4900559186935425,1.3116434812545776,0.8653846153846154,0.9807692307692307,0.8571428571428571,0.8571428571428571,0.0004
675,0.5320354104042053,1.0601125955581665,0.8461538461538461,0.9615384615384616,0.8571428571428571,0.9285714285714286,0.0004
676,0.623783677816391,1.8345558643341064,0.8461538461538461,0.9230769230769231,0.6428571428571429,0.8571428571428571,0.0004
677,0.3560357838869095,1.0071015357971191,0.9038461538461539,0.9807692307692307,0.9285714285714286,0.9285714285714286,0.0004
678,0.3672933280467987,1.4254790544509888,0.8653846153846154,0.9807692307692307,0.8571428571428571,0.8571428571428571,0.0004
679,0.28710392862558365,1.7743515968322754,0.8653846153846154,1.0,0.6428571428571429,0.8571428571428571,0.0004
680,0.5641361474990845,1.1618579626083374,0.8461538461538461,0.9615384615384616,0.7857142857142857,0.8571428571428571,0.0004
681,0.6570881307125092,1.2605372667312622,0.7307692307692307,0.9615384615384616,0.7142857142857143,0.8571428571428571,0.0004
682,0.425077885389328,0.9686076641082764,0.8653846153846154,0.9807692307692307,0.8571428571428571,0.9285714285714286,0.0004
683,0.2988753020763397,1.0579931735992432,0.8653846153846154,1.0,0.8571428571428571,0.8571428571428571,0.0004
684,0.5268053412437439,1.1022882461547852,0.8269230769230769,0.9615384615384616,0.8571428571428571,0.8571428571428571,0.0004
685,0.49194449186325073,0.9004655480384827,0.8076923076923077,0.9615384615384616,0.8571428571428571,0.9285714285714286,0.0004
686,0.37721727788448334,1.2288615703582764,0.8461538461538461,0.9423076923076923,0.7857142857142857,0.8571428571428571,0.0004
687,0.29288601130247116,1.048026442527771,0.9230769230769231,0.9807692307692307,0.7857142857142857,0.8571428571428571,0.0004
688,0.3847544342279434,1.3691558837890625,0.8269230769230769,0.9807692307692307,0.7857142857142857,0.7857142857142857,0.0004
689,0.3884497880935669,0.9009312391281128,0.8653846153846154,0.9807692307692307,0.9285714285714286,0.9285714285714286,0.0004
690,0.34943442046642303,1.8614232540130615,0.8846153846153846,1.0,0.6428571428571429,0.7857142857142857,0.0004
691,0.8647703528404236,0.9142806529998779,0.7884615384615384,0.9615384615384616,0.8571428571428571,0.9285714285714286,0.0004
692,0.5198231041431427,1.536712884902954,0.8653846153846154,0.9807692307692307,0.5714285714285714,0.7857142857142857,0.0004
693,0.38326263427734375,1.0291030406951904,0.8269230769230769,0.9807692307692307,0.7857142857142857,0.9285714285714286,0.0004
694,0.7260505259037018,1.1160649061203003,0.7692307692307693,0.9230769230769231,0.6428571428571429,0.8571428571428571,0.0004
695,0.5604358613491058,1.3361427783966064,0.8076923076923077,0.9423076923076923,0.7857142857142857,0.9285714285714286,0.0004
696,0.46761012077331543,0.9431310892105103,0.8461538461538461,0.9615384615384616,0.8571428571428571,0.9285714285714286,0.0004
697,0.3830791115760803,1.825880527496338,0.8846153846153846,0.9615384615384616,0.7142857142857143,0.8571428571428571,0.0004
698,0.47249265015125275,1.1017833948135376,0.8461538461538461,0.9615384615384616,0.9285714285714286,0.9285714285714286,0.0004
699,0.5846948027610779,1.2405755519866943,0.8461538461538461,0.9615384615384616,0.7857142857142857,0.9285714285714286,0.0004
700,0.5309010893106461,1.5311548709869385,0.8269230769230769,0.9423076923076923,0.7857142857142857,0.7857142857142857,0.0004
701,0.5455432236194611,1.0239351987838745,0.8076923076923077,0.9807692307692307,0.9285714285714286,0.9285714285714286,0.0004
702,0.504601463675499,1.1457386016845703,0.8269230769230769,0.9615384615384616,0.9285714285714286,0.8571428571428571,0.0004
703,0.4460284113883972,1.1865426301956177,0.8269230769230769,0.9807692307692307,0.7857142857142857,0.9285714285714286,0.0004
704,0.5873991549015045,1.104752779006958,0.7884615384615384,0.9423076923076923,0.7857142857142857,0.8571428571428571,0.0004
705,0.3880648761987686,1.4184839725494385,0.8846153846153846,0.9807692307692307,0.7857142857142857,0.9285714285714286,0.0004
706,0.2496550977230072,1.1955347061157227,0.9423076923076923,1.0,0.7142857142857143,0.9285714285714286,0.0004
707,0.2888173609972,1.36309814453125,0.8653846153846154,0.9615384615384616,0.7142857142857143,0.9285714285714286,0.0004
708,0.48952291905879974,2.099032402038574,0.8269230769230769,0.9807692307692307,0.6428571428571429,0.7857142857142857,0.0004
709,0.5062809884548187,1.0020701885223389,0.8846153846153846,0.9423076923076923,0.7857142857142857,0.8571428571428571,0.0004
710,0.4167622774839401,1.3324466943740845,0.8461538461538461,1.0,0.8571428571428571,0.7857142857142857,0.0004
711,0.48128367960453033,1.4833948612213135,0.8653846153846154,1.0,0.8571428571428571,0.8571428571428571,0.0004
712,0.5486127883195877,1.6432397365570068,0.8653846153846154,0.9807692307692307,0.8571428571428571,0.7857142857142857,0.0004
713,0.37213993072509766,1.3527981042861938,0.9038461538461539,0.9807692307692307,0.7857142857142857,0.8571428571428571,0.0004
714,0.4148271307349205,0.8756866455078125,0.8269230769230769,1.0,0.9285714285714286,0.8571428571428571,0.0004
715,0.4444029629230499,1.459484577178955,0.8653846153846154,0.9807692307692307,0.7857142857142857,0.8571428571428571,0.0004
716,0.3404933214187622,1.2983704805374146,0.8846153846153846,0.9807692307692307,0.7857142857142857,0.8571428571428571,0.0004
717,0.40956033766269684,1.4098224639892578,0.8653846153846154,0.9807692307692307,0.8571428571428571,0.8571428571428571,0.0004
718,0.2930600643157959,1.026585340499878,0.9230769230769231,1.0,0.8571428571428571,0.9285714285714286,0.0004
719,0.6293744742870331,1.3146426677703857,0.8076923076923077,0.9807692307692307,0.7142857142857143,0.8571428571428571,0.0004
720,0.29593055695295334,1.8816509246826172,0.9038461538461539,1.0,0.6428571428571429,0.7857142857142857,0.0004
721,0.3751731365919113,1.2881808280944824,0.9038461538461539,0.9807692307692307,0.7142857142857143,0.9285714285714286,0.0004
722,0.5770742297172546,1.67649245262146,0.7692307692307693,0.9423076923076923,0.7142857142857143,0.7857142857142857,0.0004
723,0.6313777565956116,1.2674660682678223,0.8269230769230769,0.9615384615384616,0.8571428571428571,0.8571428571428571,0.0004
724,0.29384733736515045,0.9347661733627319,0.9038461538461539,1.0,0.8571428571428571,0.9285714285714286,0.0004
725,0.35391340404748917,1.4702043533325195,0.8653846153846154,1.0,0.7142857142857143,0.8571428571428571,0.0004
726,0.31772345304489136,0.8431639671325684,0.8846153846153846,0.9807692307692307,0.9285714285714286,0.9285714285714286,0.0004
727,0.5921086668968201,1.7977752685546875,0.8269230769230769,0.9615384615384616,0.5714285714285714,0.7857142857142857,0.0004
728,0.31457097828388214,0.9141262769699097,0.8461538461538461,0.9807692307692307,0.8571428571428571,0.8571428571428571,0.0004
729,0.43002934753894806,1.3196766376495361,0.8653846153846154,0.9615384615384616,0.7857142857142857,0.8571428571428571,0.0004
730,0.3656228482723236,1.7081762552261353,0.8461538461538461,0.9807692307692307,0.7857142857142857,0.8571428571428571,0.0004
731,0.5532615482807159,0.447218656539917,0.8269230769230769,0.9615384615384616,0.9285714285714286,0.9285714285714286,0.0004
732,0.3695661723613739,0.9309043288230896,0.8846153846153846,0.9615384615384616,0.9285714285714286,0.8571428571428571,0.0004
733,0.3035929799079895,1.484144926071167,0.9423076923076923,0.9807692307692307,0.8571428571428571,0.7857142857142857,0.0004
734,0.6077246367931366,1.586517572402954,0.8461538461538461,0.9615384615384616,0.7857142857142857,0.7857142857142857,0.0004
735,0.3671787977218628,0.9353311061859131,0.8846153846153846,1.0,0.8571428571428571,0.8571428571428571,0.0004
736,0.5498181283473969,0.4842488467693329,0.8653846153846154,1.0,0.9285714285714286,0.9285714285714286,0.0004
737,0.4046710133552551,1.506373405456543,0.8653846153846154,0.9423076923076923,0.7857142857142857,0.7857142857142857,0.0004
738,0.4742126017808914,1.1992950439453125,0.8461538461538461,1.0,0.8571428571428571,0.7857142857142857,0.0004
739,0.6753418743610382,1.11081862449646,0.8076923076923077,0.9615384615384616,0.8571428571428571,0.9285714285714286,0.0004
740,0.4048926532268524,2.1244616508483887,0.8461538461538461,0.9230769230769231,0.5714285714285714,0.7857142857142857,0.0004
741,0.6397129744291306,1.272719144821167,0.8076923076923077,0.9807692307692307,0.7142857142857143,0.8571428571428571,0.0004
742,0.24292581528425217,1.6234514713287354,0.9423076923076923,1.0,0.8571428571428571,0.7857142857142857,0.0004
743,0.27327438443899155,1.3028881549835205,0.9038461538461539,1.0,0.6428571428571429,0.9285714285714286,0.0004
744,0.3971812129020691,1.115190863609314,0.8461538461538461,0.9615384615384616,0.7857142857142857,0.8571428571428571,0.0004
745,0.4429902285337448,2.176762819290161,0.8461538461538461,0.9615384615384616,0.6428571428571429,0.7857142857142857,0.0004
746,0.3164517432451248,1.5199495553970337,0.8653846153846154,1.0,0.7142857142857143,0.8571428571428571,0.0004
747,0.5962396264076233,0.8235247135162354,0.7884615384615384,0.9807692307692307,0.9285714285714286,0.9285714285714286,0.0004
748,0.467744842171669,0.860519528388977,0.8461538461538461,0.9615384615384616,0.9285714285714286,0.9285714285714286,0.0004
749,0.38436050713062286,1.9755464792251587,0.8653846153846154,0.9423076923076923,0.6428571428571429,0.7857142857142857,0.0004
750,0.44201166927814484,1.2097597122192383,0.8653846153846154,0.9807692307692307,0.7142857142857143,0.8571428571428571,0.0004
751,0.4972739815711975,0.8767130374908447,0.7884615384615384,0.9615384615384616,0.9285714285714286,0.9285714285714286,0.0004
752,0.4413847476243973,1.797182321548462,0.8653846153846154,0.9615384615384616,0.7857142857142857,0.8571428571428571,0.0004
753,0.5497463196516037,1.3225921392440796,0.8076923076923077,0.9807692307692307,0.7142857142857143,0.9285714285714286,0.0004
754,0.4190259575843811,0.9723869562149048,0.8653846153846154,0.9807692307692307,1.0,0.9285714285714286,0.0004
755,0.23155007511377335,1.1655070781707764,0.9230769230769231,1.0,0.7142857142857143,0.9285714285714286,0.0004
756,0.3697367012500763,1.299371361732483,0.8269230769230769,1.0,0.7857142857142857,0.8571428571428571,0.0004
757,0.4497413635253906,1.289724588394165,0.8653846153846154,0.9807692307692307,0.8571428571428571,0.9285714285714286,0.0004
758,0.3045426607131958,0.8517705798149109,0.9230769230769231,1.0,0.9285714285714286,0.9285714285714286,0.0004
759,0.3197830319404602,0.9665673971176147,0.9230769230769231,1.0,0.9285714285714286,0.8571428571428571,0.0004
760,0.46391063928604126,1.1556615829467773,0.8461538461538461,0.9423076923076923,0.7857142857142857,0.8571428571428571,0.0004
761,0.6594797968864441,1.401206374168396,0.8269230769230769,0.9230769230769231,0.7142857142857143,0.8571428571428571,0.0004
762,0.46390360593795776,1.1349987983703613,0.8461538461538461,0.9615384615384616,0.7857142857142857,0.8571428571428571,0.0004
763,0.3861908093094826,1.350400447845459,0.9038461538461539,0.9807692307692307,0.7142857142857143,0.8571428571428571,0.0004
764,0.396738737821579,1.4714844226837158,0.9038461538461539,1.0,0.7142857142857143,0.8571428571428571,0.0004
765,0.42022088170051575,1.567934274673462,0.8269230769230769,1.0,0.8571428571428571,0.8571428571428571,0.0004
766,0.36900225281715393,1.181678056716919,0.8076923076923077,0.9807692307692307,0.8571428571428571,0.9285714285714286,0.0004
767,0.45513587817549706,1.2653071880340576,0.9230769230769231,0.9807692307692307,0.8571428571428571,0.8571428571428571,0.0004
768,0.3749566078186035,1.2002174854278564,0.9230769230769231,0.9807692307692307,0.9285714285714286,0.8571428571428571,0.0004
769,0.5407896041870117,1.4888508319854736,0.8461538461538461,0.9807692307692307,0.8571428571428571,0.9285714285714286,0.0004
770,0.4183778613805771,1.5293858051300049,0.8846153846153846,0.9615384615384616,0.5714285714285714,0.9285714285714286,0.0004
771,0.3807121813297272,1.2239909172058105,0.8653846153846154,1.0,0.7857142857142857,0.8571428571428571,0.0004
772,0.6754435300827026,1.200111746788025,0.75,0.9423076923076923,0.8571428571428571,0.9285714285714286,0.0004
773,0.32350967079401016,1.8145874738693237,0.9038461538461539,0.9615384615384616,0.7142857142857143,0.8571428571428571,0.0004
774,0.3615410327911377,1.2998483180999756,0.8653846153846154,0.9807692307692307,0.8571428571428571,0.8571428571428571,0.0004
775,0.23527783155441284,1.3894932270050049,0.9230769230769231,1.0,0.7857142857142857,0.8571428571428571,0.0004
776,0.4824639707803726,1.017281174659729,0.8076923076923077,0.9807692307692307,0.9285714285714286,0.9285714285714286,0.0004
777,0.6602979004383087,1.0200518369674683,0.8076923076923077,0.9615384615384616,0.8571428571428571,0.9285714285714286,0.0004
778,0.2764178365468979,0.8076047897338867,0.9230769230769231,1.0,0.8571428571428571,0.8571428571428571,0.0004
779,0.2557321935892105,1.3647701740264893,0.9230769230769231,1.0,0.7142857142857143,0.8571428571428571,0.0004
780,0.36247748136520386,1.977034330368042,0.9230769230769231,0.9807692307692307,0.7857142857142857,0.7142857142857143,0.0004
781,0.5852208882570267,1.027561902999878,0.8076923076923077,0.9807692307692307,0.8571428571428571,0.9285714285714286,0.0004
782,0.49820904433727264,1.665581464767456,0.8653846153846154,0.9423076923076923,0.7142857142857143,0.8571428571428571,0.0004
783,0.49700911343097687,2.4213616847991943,0.8461538461538461,0.9807692307692307,0.5,0.7857142857142857,0.0004
784,0.44516588747501373,1.3393441438674927,0.8653846153846154,0.9807692307692307,0.7142857142857143,0.8571428571428571,0.0004
785,0.3863966464996338,1.0210236310958862,0.8653846153846154,0.9615384615384616,0.9285714285714286,0.8571428571428571,0.0004
786,0.4762426093220711,1.7904739379882812,0.7884615384615384,0.9807692307692307,0.6428571428571429,0.7857142857142857,0.0004
787,0.6572516858577728,1.34370756149292,0.8076923076923077,0.9423076923076923,0.6428571428571429,0.8571428571428571,0.0004
788,0.5205066204071045,1.2566299438476562,0.8653846153846154,0.9615384615384616,0.6428571428571429,0.8571428571428571,0.0004
789,0.5479473769664764,0.9087542295455933,0.8846153846153846,0.9807692307692307,0.9285714285714286,0.8571428571428571,0.0004
790,0.24260499328374863,1.184579610824585,0.9615384615384616,0.9807692307692307,0.7142857142857143,0.8571428571428571,0.0004
791,0.2698715180158615,0.9389078617095947,0.9230769230769231,1.0,0.8571428571428571,0.9285714285714286,0.0004
792,0.3326011300086975,1.0068453550338745,0.8653846153846154,0.9807692307692307,0.8571428571428571,0.9285714285714286,0.0004
793,0.2733246460556984,1.618407964706421,0.9038461538461539,1.0,0.8571428571428571,0.8571428571428571,0.0004
794,0.27268312126398087,1.545438289642334,0.9038461538461539,0.9615384615384616,0.7142857142857143,0.8571428571428571,0.0004
795,0.7054278403520584,0.9577918648719788,0.75,0.9807692307692307,0.7857142857142857,0.9285714285714286,0.0004
796,0.455107644200325,1.1742806434631348,0.8461538461538461,0.9615384615384616,0.7857142857142857,0.8571428571428571,0.0004
797,0.5541054606437683,1.2766032218933105,0.8461538461538461,0.9423076923076923,0.7857142857142857,0.8571428571428571,0.0004
798,0.5603761374950409,1.007368564605713,0.9038461538461539,0.9230769230769231,0.6428571428571429,0.9285714285714286,0.0004
799,0.46009013056755066,2.4321608543395996,0.8461538461538461,0.9807692307692307,0.42857142857142855,0.6428571428571429,0.0004
800,0.2310018166899681,1.6818482875823975,0.9230769230769231,1.0,0.42857142857142855,0.7857142857142857,0.0004
801,0.6533432900905609,1.75087308883667,0.7692307692307693,0.9615384615384616,0.7142857142857143,0.8571428571428571,0.0004
802,0.40876176953315735,1.0324102640151978,0.8461538461538461,0.9615384615384616,0.7857142857142857,0.8571428571428571,0.0004
803,0.5867950320243835,1.388248085975647,0.7692307692307693,0.9807692307692307,0.7142857142857143,0.8571428571428571,0.0004
804,0.5256894379854202,1.4490277767181396,0.8269230769230769,0.9807692307692307,0.6428571428571429,0.8571428571428571,0.0004
805,0.7031185328960419,0.7889302968978882,0.7884615384615384,0.9615384615384616,0.9285714285714286,0.9285714285714286,0.0004
806,0.29835110902786255,0.8284726142883301,0.9038461538461539,1.0,0.8571428571428571,0.8571428571428571,0.0004
807,0.4517635554075241,1.541548252105713,0.8653846153846154,0.9615384615384616,0.7857142857142857,0.8571428571428571,0.0004
808,0.7037037909030914,1.7843990325927734,0.7692307692307693,0.9807692307692307,0.5714285714285714,0.7142857142857143,0.0004
809,0.4543960988521576,0.9333364963531494,0.8269230769230769,1.0,0.7857142857142857,0.9285714285714286,0.0004
810,0.5479027181863785,1.1783554553985596,0.8461538461538461,1.0,0.8571428571428571,0.8571428571428571,0.0004
811,0.8015393912792206,1.111670970916748,0.7692307692307693,0.9038461538461539,0.7857142857142857,0.9285714285714286,0.0004
812,0.7419533729553223,1.076470136642456,0.7692307692307693,0.9423076923076923,0.7857142857142857,0.8571428571428571,0.0004
813,0.5495807230472565,1.693863868713379,0.8461538461538461,0.9615384615384616,0.7857142857142857,0.8571428571428571,0.0004
814,0.4351735860109329,1.401475429534912,0.8461538461538461,1.0,0.7857142857142857,0.9285714285714286,0.0004
815,0.42531752586364746,1.7289628982543945,0.8269230769230769,1.0,0.7857142857142857,0.8571428571428571,0.0004
816,0.8456899225711823,1.1835076808929443,0.7115384615384616,0.9615384615384616,0.7857142857142857,0.9285714285714286,0.0004
817,0.3521253317594528,1.277575969696045,0.8653846153846154,0.9807692307692307,0.7142857142857143,0.8571428571428571,0.0004
818,0.48877738416194916,0.6764687299728394,0.8653846153846154,0.9807692307692307,0.8571428571428571,0.9285714285714286,0.0004
819,0.5272344052791595,0.6903682947158813,0.8846153846153846,0.9423076923076923,0.7857142857142857,0.9285714285714286,0.0004
820,0.6301903575658798,1.3159542083740234,0.8461538461538461,0.9807692307692307,0.6428571428571429,0.9285714285714286,0.0004
821,0.5801295042037964,1.80357027053833,0.8846153846153846,0.9615384615384616,0.7142857142857143,0.8571428571428571,0.0004
822,0.5133113265037537,1.2898950576782227,0.8076923076923077,0.9807692307692307,0.6428571428571429,0.9285714285714286,0.0004
823,0.49073098599910736,1.5892908573150635,0.7884615384615384,0.9807692307692307,0.5714285714285714,0.8571428571428571,0.0004
824,0.6226253509521484,0.9858947992324829,0.8269230769230769,0.9807692307692307,0.8571428571428571,0.8571428571428571,0.0004
825,0.5446725934743881,1.1567609310150146,0.8269230769230769,0.9615384615384616,0.7857142857142857,0.9285714285714286,0.0004
826,0.3780255615711212,1.0695390701293945,0.8846153846153846,1.0,0.7142857142857143,0.9285714285714286,0.0004
827,0.5154975652694702,1.358316421508789,0.7884615384615384,1.0,0.7142857142857143,0.9285714285714286,0.0004
828,0.5565994083881378,1.6538079977035522,0.7692307692307693,1.0,0.7142857142857143,0.9285714285714286,0.0004
829,0.3530923128128052,1.3664207458496094,0.9038461538461539,1.0,0.7857142857142857,0.8571428571428571,0.0004
830,0.6399968564510345,1.0980201959609985,0.7307692307692307,0.9423076923076923,0.8571428571428571,0.9285714285714286,0.0004
831,0.3771466314792633,1.3570399284362793,0.8269230769230769,0.9615384615384616,0.7142857142857143,0.8571428571428571,0.0004
832,0.6098688244819641,1.2050336599349976,0.75,1.0,0.7857142857142857,0.9285714285714286,0.0004
833,0.31301863491535187,1.4257824420928955,0.9230769230769231,1.0,0.7857142857142857,0.9285714285714286,0.0004
834,0.48520685732364655,1.2548367977142334,0.8269230769230769,0.9807692307692307,0.7857142857142857,0.8571428571428571,0.0004
835,0.4363749474287033,1.8991000652313232,0.8076923076923077,1.0,0.6428571428571429,0.7857142857142857,0.0004
836,0.5400618612766266,1.0833085775375366,0.8846153846153846,0.9807692307692307,0.8571428571428571,0.8571428571428571,0.0004
837,0.38151319324970245,1.325796127319336,0.8846153846153846,0.9807692307692307,0.7857142857142857,0.8571428571428571,0.0004
838,0.45639684796333313,1.0640746355056763,0.8269230769230769,0.9423076923076923,0.7857142857142857,0.8571428571428571,0.0004
839,0.6797720491886139,1.4596328735351562,0.8076923076923077,0.9423076923076923,0.7142857142857143,0.8571428571428571,0.0004
840,0.33529113978147507,2.001175880432129,0.8653846153846154,0.9807692307692307,0.7142857142857143,0.7857142857142857,0.0004
841,0.4839490056037903,1.2365686893463135,0.8076923076923077,0.9615384615384616,0.7142857142857143,0.8571428571428571,0.0004
842,0.3385467678308487,1.872864007949829,0.8846153846153846,0.9807692307692307,0.8571428571428571,0.7857142857142857,0.0004
843,0.5228627026081085,0.6845229864120483,0.8269230769230769,0.9615384615384616,0.7857142857142857,0.9285714285714286,0.0004
844,0.4345143139362335,0.8170366287231445,0.8461538461538461,1.0,0.7142857142857143,0.9285714285714286,0.0004
845,0.27880097925662994,1.8052597045898438,0.9423076923076923,0.9807692307692307,0.7142857142857143,0.7857142857142857,0.0004
846,0.3619860112667084,1.2140376567840576,0.8461538461538461,1.0,0.8571428571428571,0.8571428571428571,0.0004
847,0.25142934918403625,1.319319725036621,0.9230769230769231,1.0,0.7142857142857143,0.8571428571428571,0.0004
848,0.324472114443779,2.9186007976531982,0.8846153846153846,1.0,0.42857142857142855,0.7857142857142857,0.0004
849,0.6140853017568588,0.8428820967674255,0.8076923076923077,0.9807692307692307,0.7142857142857143,0.9285714285714286,0.0004
850,0.4207705110311508,1.4629590511322021,0.8653846153846154,0.9807692307692307,0.7142857142857143,0.8571428571428571,0.0004
851,0.2872084602713585,1.2893528938293457,0.9230769230769231,1.0,0.8571428571428571,0.9285714285714286,0.0004
852,0.5792186409235001,0.9706417322158813,0.8269230769230769,0.9615384615384616,0.7857142857142857,0.9285714285714286,0.0004
853,0.35214434564113617,1.8356125354766846,0.9230769230769231,0.9615384615384616,0.5,0.8571428571428571,0.0004
854,0.4638465642929077,0.9079194068908691,0.8269230769230769,1.0,0.7857142857142857,0.9285714285714286,0.0004
855,0.3076542764902115,0.6721322536468506,0.9230769230769231,1.0,0.7857142857142857,0.8571428571428571,0.0004
856,0.2485279031097889,0.9081027507781982,0.9038461538461539,1.0,0.7142857142857143,0.9285714285714286,0.0004
857,0.35479867458343506,1.0341084003448486,0.9038461538461539,0.9615384615384616,0.6428571428571429,0.8571428571428571,0.0004
858,0.5543928444385529,0.834152340888977,0.8076923076923077,0.9423076923076923,0.9285714285714286,0.8571428571428571,0.0004
859,0.26528964936733246,1.1507971286773682,0.8846153846153846,0.9807692307692307,0.7857142857142857,0.8571428571428571,0.0004
860,0.3729122132062912,1.57319974899292,0.8461538461538461,1.0,0.9285714285714286,0.8571428571428571,0.0004
861,0.3683900088071823,0.6229570508003235,0.8653846153846154,1.0,0.9285714285714286,0.9285714285714286,0.0004
862,0.29185107350349426,0.611829400062561,0.9230769230769231,1.0,0.8571428571428571,0.9285714285714286,0.0004
863,0.2891421392560005,0.9240975379943848,0.9230769230769231,1.0,0.7142857142857143,0.9285714285714286,0.0004
864,0.4894219636917114,1.1113712787628174,0.8269230769230769,0.9807692307692307,0.9285714285714286,0.8571428571428571,0.0004
865,0.3117187023162842,0.7494272589683533,0.9038461538461539,1.0,0.7142857142857143,1.0,0.0004
866,0.25579388439655304,1.9289100170135498,0.9230769230769231,1.0,0.5714285714285714,0.8571428571428571,0.0004
867,0.2939273416996002,1.415526270866394,0.8846153846153846,1.0,0.7142857142857143,0.8571428571428571,0.0004
868,0.43979278206825256,1.1107434034347534,0.8461538461538461,0.9807692307692307,0.7142857142857143,0.7857142857142857,0.0004
869,0.19349170476198196,1.334036946296692,0.9423076923076923,1.0,0.7142857142857143,0.8571428571428571,0.0004
870,0.24277513474225998,0.6796515583992004,0.9038461538461539,0.9807692307692307,0.9285714285714286,0.9285714285714286,0.0004
871,0.33041584491729736,1.7112720012664795,0.8846153846153846,1.0,0.7142857142857143,0.7857142857142857,0.0004
872,0.42864933609962463,1.7934404611587524,0.8461538461538461,1.0,0.6428571428571429,0.8571428571428571,0.0004
873,0.4479273855686188,1.390109896659851,0.9038461538461539,0.9615384615384616,0.7142857142857143,0.8571428571428571,0.0004
874,0.30847737193107605,1.779248595237732,0.8653846153846154,0.9807692307692307,0.7142857142857143,0.7857142857142857,0.0004
875,0.3344120383262634,1.1066466569900513,0.8846153846153846,0.9807692307692307,0.7857142857142857,0.9285714285714286,0.0004
876,0.588768795132637,0.9293649792671204,0.7884615384615384,0.9615384615384616,0.8571428571428571,0.9285714285714286,0.0004
877,0.5140956193208694,1.2300876379013062,0.7884615384615384,0.9807692307692307,0.7142857142857143,0.8571428571428571,0.0004
878,0.3706204891204834,1.452902913093567,0.8653846153846154,1.0,0.7142857142857143,0.9285714285714286,0.0004
879,0.3291297107934952,1.9150855541229248,0.8653846153846154,1.0,0.7142857142857143,0.8571428571428571,0.0004
880,0.26069799065589905,1.042771577835083,0.9423076923076923,1.0,0.8571428571428571,0.9285714285714286,0.0004
881,0.3960602581501007,1.362265944480896,0.8653846153846154,0.9807692307692307,0.6428571428571429,0.9285714285714286,0.0004
882,0.26621197164058685,2.609694480895996,0.9038461538461539,1.0,0.5,0.8571428571428571,0.0004
883,0.5029155761003494,0.6501783728599548,0.8846153846153846,0.9423076923076923,0.9285714285714286,0.9285714285714286,0.0004
884,0.3263477385044098,0.8497484922409058,0.8653846153846154,0.9807692307692307,0.7857142857142857,0.9285714285714286,0.0004
885,0.3894192725419998,1.7784651517868042,0.8269230769230769,1.0,0.6428571428571429,0.8571428571428571,0.0004
886,0.609326183795929,1.3812330961227417,0.8461538461538461,0.9615384615384616,0.7857142857142857,0.9285714285714286,0.0004
887,0.3383377864956856,2.1327319145202637,0.8846153846153846,0.9807692307692307,0.7142857142857143,0.7857142857142857,0.0004
888,0.5064038336277008,2.701024055480957,0.8269230769230769,0.9615384615384616,0.6428571428571429,0.7857142857142857,0.0004
889,0.40688154101371765,0.9230020046234131,0.8461538461538461,0.9807692307692307,0.8571428571428571,0.8571428571428571,0.0004
890,0.5431582480669022,2.1512105464935303,0.8269230769230769,0.9807692307692307,0.7142857142857143,0.7857142857142857,0.0004
891,0.30871225893497467,1.4980626106262207,0.8846153846153846,0.9807692307692307,0.7857142857142857,0.8571428571428571,0.0004
892,0.2674711123108864,1.0070972442626953,0.9038461538461539,0.9807692307692307,0.8571428571428571,0.9285714285714286,0.0004
893,0.3806055635213852,1.635420560836792,0.8653846153846154,0.9807692307692307,0.7857142857142857,0.9285714285714286,0.0004
894,0.4480884373188019,1.1840730905532837,0.8653846153846154,0.9807692307692307,0.7857142857142857,0.9285714285714286,0.0004
895,0.24578957259655,1.2576826810836792,0.9230769230769231,1.0,0.6428571428571429,0.8571428571428571,0.0004
896,0.4440639466047287,1.3030948638916016,0.8461538461538461,0.9615384615384616,0.7142857142857143,0.8571428571428571,0.0004
897,0.3445480763912201,1.1765904426574707,0.8846153846153846,1.0,0.8571428571428571,0.8571428571428571,0.0004
898,0.32464732974767685,1.3744547367095947,0.9038461538461539,1.0,0.5714285714285714,0.9285714285714286,0.0004
899,0.32605190575122833,1.7113205194473267,0.9038461538461539,0.9807692307692307,0.7142857142857143,0.8571428571428571,0.0004
900,0.32625623047351837,1.506425142288208,0.8846153846153846,0.9807692307692307,0.8571428571428571,0.8571428571428571,0.0004
901,0.5144398361444473,1.7212575674057007,0.7884615384615384,0.9615384615384616,0.5714285714285714,0.9285714285714286,0.0004
902,0.3510083556175232,1.45352303981781,0.9038461538461539,1.0,0.6428571428571429,0.7857142857142857,0.0004
903,0.45903848111629486,0.8725721836090088,0.8461538461538461,0.9615384615384616,0.8571428571428571,0.9285714285714286,0.0004
904,0.2478615790605545,0.6400748491287231,0.8846153846153846,1.0,1.0,0.9285714285714286,0.0004
905,0.2953571230173111,0.5900083780288696,0.9423076923076923,1.0,1.0,0.9285714285714286,0.0004
906,0.4970310926437378,1.457055926322937,0.8653846153846154,0.9423076923076923,0.6428571428571429,0.9285714285714286,0.0004
907,0.31926655769348145,1.8913843631744385,0.8846153846153846,1.0,0.7857142857142857,0.7857142857142857,0.0004
908,0.2996625155210495,0.6407171487808228,0.9230769230769231,0.9807692307692307,0.9285714285714286,0.9285714285714286,0.0004
909,0.3340013772249222,1.337005376815796,0.8846153846153846,0.9807692307692307,0.7857142857142857,0.8571428571428571,0.0004
910,0.35436466336250305,2.095473051071167,0.8846153846153846,1.0,0.7142857142857143,0.7142857142857143,0.0004
911,0.5028294324874878,1.005647897720337,0.8076923076923077,0.9615384615384616,0.7142857142857143,0.8571428571428571,0.0004
912,0.2815040722489357,2.401479959487915,0.9230769230769231,1.0,0.5,0.7857142857142857,0.0004
913,0.37136031687259674,1.0016651153564453,0.8846153846153846,1.0,0.8571428571428571,0.9285714285714286,0.0004
914,0.5148700475692749,1.2967464923858643,0.8269230769230769,0.9807692307692307,0.7142857142857143,0.9285714285714286,0.0004
915,0.1858687326312065,0.8002090454101562,0.9423076923076923,1.0,0.8571428571428571,0.9285714285714286,0.0004
916,0.30410948395729065,2.3502542972564697,0.9230769230769231,1.0,0.7857142857142857,0.7857142857142857,0.0004
917,0.579726055264473,0.7487064003944397,0.8653846153846154,0.9423076923076923,0.8571428571428571,0.9285714285714286,0.0004
918,0.4527292549610138,1.8144707679748535,0.8653846153846154,0.9807692307692307,0.7142857142857143,0.8571428571428571,0.0004
919,0.5273007899522781,1.1396472454071045,0.9038461538461539,0.9807692307692307,0.7857142857142857,0.9285714285714286,0.0004
920,0.3940479904413223,1.608765959739685,0.8846153846153846,0.9615384615384616,0.6428571428571429,0.8571428571428571,0.0004
921,0.2851182222366333,1.1587836742401123,0.9038461538461539,1.0,0.6428571428571429,0.7857142857142857,0.0004
922,0.28155647218227386,1.1824605464935303,0.8846153846153846,1.0,0.7142857142857143,0.9285714285714286,0.0004
923,0.309646412730217,1.81197988986969,0.9230769230769231,1.0,0.7142857142857143,0.9285714285714286,0.0004
924,0.3264226168394089,0.8772428035736084,0.9038461538461539,0.9807692307692307,0.9285714285714286,0.9285714285714286,0.0004
925,0.47178037464618683,1.1673133373260498,0.8653846153846154,0.9807692307692307,0.7857142857142857,0.9285714285714286,0.0004
926,0.5460994839668274,1.850365161895752,0.8461538461538461,0.9807692307692307,0.7142857142857143,0.8571428571428571,0.0004
927,0.3881668448448181,1.1651146411895752,0.9038461538461539,0.9807692307692307,0.8571428571428571,0.8571428571428571,0.0004
928,0.31214937567710876,1.191934585571289,0.9038461538461539,0.9807692307692307,0.7857142857142857,0.9285714285714286,0.0004
929,0.7012014389038086,1.3992152214050293,0.8461538461538461,0.9038461538461539,0.7857142857142857,0.8571428571428571,0.0004
930,0.21928860247135162,1.056279182434082,0.9230769230769231,1.0,0.7857142857142857,0.9285714285714286,0.0004
931,0.3276727646589279,1.2809995412826538,0.8653846153846154,0.9615384615384616,0.7857142857142857,0.8571428571428571,0.0004
932,0.4683599919080734,0.9527016282081604,0.8269230769230769,1.0,0.8571428571428571,0.9285714285714286,0.0004
933,0.3586523085832596,0.6930065155029297,0.8846153846153846,1.0,1.0,0.9285714285714286,0.0004
934,0.3764617517590523,1.6505582332611084,0.8653846153846154,0.9807692307692307,0.6428571428571429,0.7142857142857143,0.0004
935,0.4367992579936981,2.1036977767944336,0.8653846153846154,0.9807692307692307,0.7857142857142857,0.7857142857142857,0.0004
936,0.43439462780952454,1.4054524898529053,0.8461538461538461,0.9807692307692307,0.6428571428571429,0.8571428571428571,0.0004
937,0.3227974474430084,0.9475860595703125,0.8461538461538461,1.0,0.8571428571428571,0.9285714285714286,0.0004
938,0.4132593125104904,1.0553624629974365,0.8653846153846154,0.9615384615384616,0.8571428571428571,0.8571428571428571,0.0004
939,0.3939889520406723,1.9204576015472412,0.8461538461538461,0.9615384615384616,0.7142857142857143,0.7857142857142857,0.0004
940,0.6669931560754776,1.2462091445922852,0.8461538461538461,0.9615384615384616,0.8571428571428571,0.8571428571428571,0.0004
941,0.6038956791162491,1.4294413328170776,0.7884615384615384,0.9615384615384616,0.7142857142857143,0.8571428571428571,0.0004
942,0.4347947984933853,1.6565275192260742,0.8653846153846154,1.0,0.7142857142857143,0.7857142857142857,0.0004
943,0.4873816519975662,0.9120069742202759,0.8461538461538461,0.9615384615384616,0.8571428571428571,0.9285714285714286,0.0004
944,0.3450552821159363,1.3526685237884521,0.9230769230769231,0.9807692307692307,0.7142857142857143,0.7857142857142857,0.0004
945,0.4495125561952591,1.133859634399414,0.8846153846153846,0.9423076923076923,0.8571428571428571,0.9285714285714286,0.0004
946,0.7049158215522766,1.2738780975341797,0.7884615384615384,0.9423076923076923,0.7857142857142857,0.7857142857142857,0.0004
947,0.47759953141212463,1.2197134494781494,0.8461538461538461,1.0,0.7857142857142857,0.9285714285714286,0.0004
948,0.45213232934474945,1.221341848373413,0.7692307692307693,0.9615384615384616,0.8571428571428571,0.9285714285714286,0.0004
949,0.33927351236343384,1.068086862564087,0.9230769230769231,1.0,0.8571428571428571,0.9285714285714286,0.0004
950,0.3760875463485718,1.436171531677246,0.9038461538461539,0.9615384615384616,0.8571428571428571,0.8571428571428571,0.0004
951,0.4479907751083374,1.7277686595916748,0.8653846153846154,0.9423076923076923,0.7857142857142857,0.8571428571428571,0.0004
952,0.30243900418281555,1.4221773147583008,0.9038461538461539,1.0,0.7142857142857143,0.7857142857142857,0.0004
953,0.4428923577070236,1.1314586400985718,0.8076923076923077,0.9807692307692307,0.9285714285714286,0.8571428571428571,0.0004
954,0.47625085711479187,1.201094627380371,0.8846153846153846,1.0,0.7857142857142857,0.8571428571428571,0.0004
955,0.48130813241004944,1.531193494796753,0.8269230769230769,0.9615384615384616,0.6428571428571429,0.9285714285714286,0.0004
956,0.6557803899049759,1.1646685600280762,0.8076923076923077,0.9615384615384616,0.7857142857142857,0.8571428571428571,0.0004
957,0.4018263965845108,1.6086620092391968,0.8653846153846154,0.9807692307692307,0.8571428571428571,0.8571428571428571,0.0004
958,0.380723312497139,0.9290202856063843,0.8653846153846154,0.9807692307692307,0.9285714285714286,0.9285714285714286,0.0004
959,0.5036484599113464,1.0679701566696167,0.8846153846153846,0.9807692307692307,0.8571428571428571,0.9285714285714286,0.0004
960,0.4896291345357895,2.075425863265991,0.8461538461538461,0.9615384615384616,0.7142857142857143,0.8571428571428571,0.0004
961,0.5575815439224243,1.6839346885681152,0.8269230769230769,0.9615384615384616,0.7857142857142857,0.8571428571428571,0.0004
962,0.6702979803085327,1.7524161338806152,0.7307692307692307,0.9615384615384616,0.7142857142857143,0.8571428571428571,0.0004
963,0.6200194358825684,1.0988657474517822,0.8269230769230769,0.9615384615384616,0.7857142857142857,0.9285714285714286,0.0004
964,0.3688610941171646,1.7744065523147583,0.9230769230769231,1.0,0.7142857142857143,0.8571428571428571,0.0004
965,0.36119216680526733,1.1283621788024902,0.8461538461538461,0.9807692307692307,0.7857142857142857,0.9285714285714286,0.0004
966,0.22239476442337036,0.9990794658660889,0.9230769230769231,0.9807692307692307,0.8571428571428571,0.9285714285714286,0.0004
967,0.47398756444454193,1.0806493759155273,0.8653846153846154,0.9807692307692307,0.8571428571428571,0.9285714285714286,0.0004
968,0.3756389394402504,1.058740496635437,0.8846153846153846,0.9615384615384616,0.7857142857142857,0.9285714285714286,0.0004
969,0.37960758805274963,1.041325330734253,0.8846153846153846,1.0,0.7857142857142857,0.9285714285714286,0.0004
970,0.5397071540355682,0.7670013904571533,0.8269230769230769,0.9423076923076923,0.8571428571428571,0.9285714285714286,0.0004
971,0.33991888910532,1.403557300567627,0.9038461538461539,1.0,0.6428571428571429,0.9285714285714286,0.0004
972,0.29297956824302673,1.176966667175293,0.9423076923076923,1.0,0.6428571428571429,0.9285714285714286,0.0004
973,0.4470175802707672,0.9027637839317322,0.8269230769230769,0.9615384615384616,0.9285714285714286,0.9285714285714286,0.0004
974,0.40032245218753815,2.032926082611084,0.9038461538461539,0.9807692307692307,0.7142857142857143,0.7857142857142857,0.0004
975,0.4673362821340561,1.2295589447021484,0.7884615384615384,1.0,0.8571428571428571,0.8571428571428571,0.0004
976,0.43839116394519806,2.387392044067383,0.8461538461538461,0.9807692307692307,0.5,0.7857142857142857,0.0004
977,0.4580959752202034,1.0169672966003418,0.9038461538461539,0.9423076923076923,0.7857142857142857,0.9285714285714286,0.0004
978,0.437479667365551,1.7637289762496948,0.8653846153846154,0.9615384615384616,0.7142857142857143,0.8571428571428571,0.0004
979,0.31881457567214966,1.607013463973999,0.9038461538461539,1.0,0.7857142857142857,0.7857142857142857,0.0004
980,0.4019581973552704,2.035677671432495,0.8461538461538461,0.9807692307692307,0.5,0.8571428571428571,0.0004
981,0.36376282572746277,1.160588264465332,0.9038461538461539,0.9423076923076923,0.8571428571428571,0.9285714285714286,0.0004
982,0.2748458534479141,0.9501345753669739,0.9038461538461539,0.9807692307692307,0.7142857142857143,0.8571428571428571,0.0004
983,0.23256300389766693,1.6288414001464844,0.9038461538461539,0.9807692307692307,0.7142857142857143,0.8571428571428571,0.0004
984,0.3661012649536133,0.7151769399642944,0.8653846153846154,0.9807692307692307,0.9285714285714286,0.9285714285714286,0.0004
985,0.4065548926591873,0.9376521110534668,0.9230769230769231,0.9807692307692307,0.8571428571428571,0.9285714285714286,0.0004
986,0.39407584071159363,1.1644010543823242,0.9038461538461539,0.9423076923076923,0.9285714285714286,0.8571428571428571,0.0004
987,0.25185465812683105,1.4851233959197998,0.8846153846153846,0.9807692307692307,0.7857142857142857,0.9285714285714286,0.0004
988,0.4262257143855095,1.1631124019622803,0.8846153846153846,1.0,0.7857142857142857,0.8571428571428571,0.0004
989,0.3441299796104431,1.3233706951141357,0.8653846153846154,1.0,0.6428571428571429,0.8571428571428571,0.0004
990,0.6122927665710449,2.012847423553467,0.8076923076923077,0.9423076923076923,0.5714285714285714,0.7857142857142857,0.0004
991,0.36894823610782623,1.6818363666534424,0.8653846153846154,0.9615384615384616,0.7857142857142857,0.8571428571428571,0.0004
992,0.34427113085985184,1.407304048538208,0.8653846153846154,1.0,0.7142857142857143,0.7857142857142857,0.0004
993,0.6427973210811615,1.304332971572876,0.7884615384615384,0.9423076923076923,0.7857142857142857,0.9285714285714286,0.0004
994,0.22082512080669403,1.385147213935852,0.9038461538461539,1.0,0.7857142857142857,0.8571428571428571,0.0004
995,0.41326144337654114,0.7651476860046387,0.8461538461538461,1.0,0.8571428571428571,0.9285714285714286,0.0004
996,0.46178437769412994,1.2242799997329712,0.8269230769230769,1.0,0.7142857142857143,0.8571428571428571,0.0004
997,0.31919871270656586,1.2913728952407837,0.9423076923076923,1.0,0.8571428571428571,0.9285714285714286,0.0004
