epoch,train_loss,test_loss,train_acc_action,test_acc_action,train_acc_status,test_acc_status,learning_rate,epoch_time
1,1.9010003209114075,1.755122423171997,30.76923076923077,50.0,19.23076923076923,42.857142857142854,0.00039990131207314633,0.9126622676849365
2,1.7745156288146973,1.793125867843628,38.46153846153846,28.571428571428573,55.76923076923077,71.42857142857143,0.00039960534568565434,0.605426549911499
3,1.7687248587608337,1.7270503044128418,34.61538461538461,42.857142857142854,61.53846153846154,85.71428571428571,0.00039911239292061604,0.5961284637451172
4,1.713318645954132,1.7483338117599487,38.46153846153846,28.571428571428573,76.92307692307692,85.71428571428571,0.00039842294026289565,0.5927269458770752
5,1.6886652112007141,1.679139494895935,42.30769230769231,35.714285714285715,82.6923076923077,85.71428571428571,0.0003975376681190276,0.5969655513763428
6,1.7405186295509338,1.6091289520263672,32.69230769230769,57.142857142857146,78.84615384615384,85.71428571428571,0.0003964574501457378,0.5891644954681396
7,1.6927730441093445,1.5938808917999268,48.07692307692308,50.0,82.6923076923077,85.71428571428571,0.00039518335238774953,0.5970959663391113
8,1.6726388931274414,1.6996986865997314,36.53846153846154,21.428571428571427,82.6923076923077,85.71428571428571,0.00039371663222572626,0.596235990524292
9,1.6563016772270203,1.6471946239471436,48.07692307692308,50.0,80.76923076923077,85.71428571428571,0.0003920587371353887,0.6016654968261719
10,1.6430011987686157,1.6066616773605347,44.23076923076923,42.857142857142854,82.6923076923077,85.71428571428571,0.0003902113032590308,0.623206377029419
11,1.6413013935089111,1.6665153503417969,46.15384615384615,42.857142857142854,82.6923076923077,85.71428571428571,0.0003881761537908452,0.6019649505615234
12,1.6002042889595032,1.5907065868377686,55.76923076923077,50.0,82.6923076923077,85.71428571428571,0.0003859552971776504,0.5982472896575928
13,1.5371129512786865,1.6168092489242554,63.46153846153846,57.142857142857146,82.6923076923077,85.71428571428571,0.0003835509251367963,0.6037640571594238
14,1.6819629669189453,1.4994561672210693,42.30769230769231,57.142857142857146,82.6923076923077,85.71428571428571,0.000380965410493204,0.6010143756866455
15,1.6086296439170837,1.4709540605545044,48.07692307692308,57.142857142857146,84.61538461538461,85.71428571428571,0.0003782013048376737,0.6039047241210938
16,1.5197017192840576,1.495847463607788,57.69230769230769,64.28571428571429,80.76923076923077,85.71428571428571,0.00037526133600877283,0.6029634475708008
17,1.4909435510635376,1.4771480560302734,53.84615384615385,71.42857142857143,82.6923076923077,85.71428571428571,0.0003721484054007889,0.6021685600280762
18,1.5830806493759155,1.4502289295196533,44.23076923076923,57.142857142857146,82.6923076923077,85.71428571428571,0.0003688655851004032,0.6050381660461426
19,1.6037572026252747,1.3998827934265137,51.92307692307692,64.28571428571429,82.6923076923077,85.71428571428571,0.00036541611485491255,0.610607385635376
20,1.4847401976585388,1.4939942359924316,63.46153846153846,28.571428571428573,80.76923076923077,85.71428571428571,0.0003618033988749897,0.5970292091369629
21,1.5844086408615112,1.4815528392791748,46.15384615384615,42.857142857142854,82.6923076923077,85.71428571428571,0.00035803100247513823,0.5930604934692383
22,1.453634262084961,1.4729526042938232,51.92307692307692,42.857142857142854,82.6923076923077,85.71428571428571,0.000354102648555158,0.5965607166290283
23,1.5437448024749756,1.3412988185882568,57.69230769230769,57.142857142857146,82.6923076923077,85.71428571428571,0.0003500222139260921,0.5991816520690918
24,1.6024607419967651,1.5294113159179688,42.30769230769231,57.142857142857146,82.6923076923077,85.71428571428571,0.00034579372548428246,0.5915741920471191
25,1.3918144702911377,1.5129531621932983,55.76923076923077,42.857142857142854,82.6923076923077,85.71428571428571,0.0003414213562373096,0.6005325317382812
26,1.455445647239685,1.5291780233383179,48.07692307692308,57.142857142857146,82.6923076923077,85.71428571428571,0.00033690942118573785,0.5991406440734863
27,1.4811338782310486,1.5288349390029907,53.84615384615385,50.0,82.6923076923077,85.71428571428571,0.0003322623730647305,0.6299388408660889
28,1.4468120336532593,1.377941370010376,50.0,57.142857142857146,82.6923076923077,85.71428571428571,0.00032748479794973803,0.593682050704956
29,1.5201129913330078,1.455134391784668,48.07692307692308,57.142857142857146,82.6923076923077,85.71428571428571,0.00032258141073059543,0.5942177772521973
30,1.516929268836975,1.5220906734466553,57.69230769230769,50.0,82.6923076923077,85.71428571428571,0.0003175570504584948,0.5908074378967285
31,1.449486494064331,1.2869863510131836,51.92307692307692,85.71428571428571,82.6923076923077,85.71428571428571,0.0003124166755704263,0.5912950038909912
32,1.5004528164863586,1.2467714548110962,53.84615384615385,64.28571428571429,82.6923076923077,85.71428571428571,0.0003071653589957995,0.5978295803070068
33,1.4402315020561218,1.4724528789520264,65.38461538461539,57.142857142857146,82.6923076923077,85.71428571428571,0.00030180828315007444,0.5878136157989502
34,1.4420647025108337,1.4840211868286133,51.92307692307692,64.28571428571429,82.6923076923077,85.71428571428571,0.0002963507348203432,0.5896143913269043
35,1.4517316818237305,1.2489421367645264,67.3076923076923,64.28571428571429,82.6923076923077,85.71428571428571,0.00029079809994790953,0.6027629375457764
36,1.4174168109893799,1.4145002365112305,57.69230769230769,50.0,82.6923076923077,85.71428571428571,0.00028515585831301473,0.6180415153503418
37,1.4030448198318481,1.2722305059432983,61.53846153846154,57.142857142857146,82.6923076923077,85.71428571428571,0.0002794295781269563,0.597970724105835
38,1.3673762679100037,1.401752233505249,59.61538461538461,57.142857142857146,82.6923076923077,85.71428571428571,0.0002736249105369358,0.5953149795532227
39,1.4139972925186157,1.1823325157165527,63.46153846153846,78.57142857142857,82.6923076923077,85.71428571428571,0.0002677475840490585,0.6029667854309082
40,1.2890782952308655,1.331752896308899,73.07692307692308,57.142857142857146,82.6923076923077,85.71428571428571,0.0002618033988749897,0.5998110771179199
41,1.345457375049591,1.2151650190353394,69.23076923076923,85.71428571428571,82.6923076923077,85.71428571428571,0.0002557982212078461,0.58840012550354
42,1.401098608970642,1.1809349060058594,57.69230769230769,85.71428571428571,82.6923076923077,85.71428571428571,0.00024973797743297113,0.5921492576599121
43,1.4315650463104248,1.2717444896697998,61.53846153846154,64.28571428571429,82.6923076923077,85.71428571428571,0.00024362864827930873,0.5964875221252441
44,1.3356163501739502,1.303952693939209,63.46153846153846,71.42857142857143,82.6923076923077,85.71428571428571,0.00023747626291714514,0.6303308010101318
45,1.2947402596473694,1.4900157451629639,61.53846153846154,64.28571428571429,82.6923076923077,85.71428571428571,0.00023128689300804637,0.5963535308837891
46,1.3601504564285278,1.1491947174072266,53.84615384615385,71.42857142857143,82.6923076923077,85.71428571428571,0.00022506664671286108,0.595566987991333
47,1.23890620470047,1.2483717203140259,65.38461538461539,71.42857142857143,82.6923076923077,85.71428571428571,0.00021882166266370303,0.6050269603729248
48,1.2791651487350464,1.4590755701065063,61.53846153846154,57.142857142857146,82.6923076923077,85.71428571428571,0.00021255810390586287,0.597764253616333
49,1.2940350770950317,1.4658396244049072,69.23076923076923,42.857142857142854,82.6923076923077,85.71428571428571,0.00020628215181562584,0.597733736038208
50,1.273201584815979,1.2101283073425293,69.23076923076923,64.28571428571429,82.6923076923077,85.71428571428571,0.00020000000000000017,0.5996999740600586
51,1.2892683148384094,1.339693546295166,63.46153846153846,57.142857142857146,82.6923076923077,85.71428571428571,0.0001937178481843745,0.5944845676422119
52,1.3991135358810425,1.4271104335784912,63.46153846153846,64.28571428571429,82.6923076923077,85.71428571428571,0.00018744189609413747,0.5947859287261963
53,1.4301815032958984,1.3153247833251953,51.92307692307692,57.142857142857146,82.6923076923077,85.71428571428571,0.00018117833733629726,0.5927512645721436
54,1.4168229699134827,1.6196112632751465,51.92307692307692,35.714285714285715,82.6923076923077,85.71428571428571,0.0001749333532871393,0.5960915088653564
55,1.3237282037734985,1.2441264390945435,61.53846153846154,57.142857142857146,82.6923076923077,85.71428571428571,0.00016871310699195395,0.5896987915039062
56,1.3349732160568237,1.1509647369384766,59.61538461538461,64.28571428571429,82.6923076923077,85.71428571428571,0.0001625237370828552,0.5913183689117432
57,1.2406193614006042,1.1794061660766602,67.3076923076923,85.71428571428571,82.6923076923077,85.71428571428571,0.00015637135172069167,0.5920658111572266
58,1.2818632125854492,1.2501459121704102,65.38461538461539,71.42857142857143,82.6923076923077,85.71428571428571,0.00015026202256702916,0.5929796695709229
59,1.2399865984916687,1.1436232328414917,75.0,78.57142857142857,82.6923076923077,85.71428571428571,0.0001442017787921543,0.5910229682922363
60,1.2115254402160645,1.1540361642837524,78.84615384615384,78.57142857142857,82.6923076923077,85.71428571428571,0.0001381966011250107,0.5928950309753418
61,1.1947181224822998,1.1375583410263062,69.23076923076923,78.57142857142857,82.6923076923077,85.71428571428571,0.00013225241595094187,0.5951287746429443
62,1.2612215876579285,1.266418218612671,73.07692307692308,78.57142857142857,80.76923076923077,85.71428571428571,0.0001263750894630646,0.5966510772705078
63,1.3449991941452026,1.2008957862854004,69.23076923076923,71.42857142857143,80.76923076923077,85.71428571428571,0.00012057042187304399,0.61785888671875
64,1.186673104763031,1.4694453477859497,73.07692307692308,42.857142857142854,82.6923076923077,85.71428571428571,0.00011484414168698559,0.5930378437042236
65,1.1001991033554077,1.198533296585083,82.6923076923077,78.57142857142857,82.6923076923077,85.71428571428571,0.00010920190005209077,0.5947904586791992
66,1.210478663444519,1.0713374614715576,71.15384615384616,78.57142857142857,82.6923076923077,85.71428571428571,0.00010364926517965704,0.5933914184570312
67,1.2922941446304321,1.0228219032287598,69.23076923076923,71.42857142857143,82.6923076923077,85.71428571428571,9.819171684992585e-05,0.5926342010498047
68,1.3506106734275818,1.1068694591522217,61.53846153846154,71.42857142857143,82.6923076923077,85.71428571428571,9.283464100420074e-05,0.5918340682983398
69,1.1592477560043335,1.292523980140686,73.07692307692308,64.28571428571429,82.6923076923077,85.71428571428571,8.758332442957398e-05,0.598400354385376
70,1.1808738112449646,1.2500203847885132,75.0,71.42857142857143,82.6923076923077,85.71428571428571,8.24429495415055e-05,0.5930192470550537
71,1.2116476893424988,0.9885116815567017,71.15384615384616,78.57142857142857,82.6923076923077,85.71428571428571,7.741858926940478e-05,0.6048059463500977
72,1.1262878775596619,1.0916903018951416,67.3076923076923,64.28571428571429,82.6923076923077,85.71428571428571,7.251520205026215e-05,0.6026699542999268
73,1.0715237855911255,1.0194354057312012,84.61538461538461,64.28571428571429,82.6923076923077,85.71428571428571,6.773762693526975e-05,0.6019117832183838
74,1.2307780385017395,0.9937512874603271,63.46153846153846,71.42857142857143,82.6923076923077,85.71428571428571,6.309057881426234e-05,0.5950262546539307
75,1.2251102924346924,0.9222873449325562,63.46153846153846,85.71428571428571,82.6923076923077,85.71428571428571,5.857864376269059e-05,0.5915086269378662
76,1.2604596018791199,1.2731566429138184,71.15384615384616,71.42857142857143,82.6923076923077,85.71428571428571,5.420627451571781e-05,0.5927257537841797
77,1.0621555149555206,1.2989661693572998,67.3076923076923,64.28571428571429,82.6923076923077,85.71428571428571,4.9977786073908174e-05,0.5936393737792969
78,1.1201860904693604,1.318617820739746,75.0,57.142857142857146,82.6923076923077,85.71428571428571,4.5897351444842234e-05,0.5954842567443848
79,1.1785338521003723,1.1368342638015747,69.23076923076923,57.142857142857146,82.6923076923077,85.71428571428571,4.1968997524861976e-05,0.5953307151794434
80,1.1870416402816772,0.9021233916282654,69.23076923076923,100.0,82.6923076923077,85.71428571428571,3.8196601125010586e-05,0.5924704074859619
81,1.1888415217399597,1.0027334690093994,65.38461538461539,71.42857142857143,82.6923076923077,85.71428571428571,3.458388514508772e-05,0.594003438949585
82,1.1476239562034607,0.9489295482635498,71.15384615384616,85.71428571428571,82.6923076923077,85.71428571428571,3.113441489959707e-05,0.5994081497192383
83,1.195659577846527,0.902045488357544,78.84615384615384,85.71428571428571,82.6923076923077,85.71428571428571,2.7851594599211286e-05,0.6217086315155029
84,1.229621708393097,0.9557033181190491,59.61538461538461,78.57142857142857,82.6923076923077,85.71428571428571,2.4738663991227316e-05,0.5953152179718018
85,1.197357416152954,0.9750746488571167,67.3076923076923,92.85714285714286,82.6923076923077,85.71428571428571,2.179869516232647e-05,0.5944726467132568
86,1.1575860977172852,1.0115604400634766,76.92307692307692,64.28571428571429,82.6923076923077,85.71428571428571,1.9034589506796152e-05,0.5902309417724609
87,1.1714207530021667,0.9957044124603271,73.07692307692308,92.85714285714286,82.6923076923077,85.71428571428571,1.6449074863203837e-05,0.5909321308135986
88,1.2075071334838867,1.0355913639068604,76.92307692307692,78.57142857142857,82.6923076923077,85.71428571428571,1.4044702822349747e-05,0.5919206142425537
89,1.1755467653274536,1.1571893692016602,73.07692307692308,64.28571428571429,82.6923076923077,85.71428571428571,1.1823846209154923e-05,0.5891144275665283
90,1.0923113822937012,1.3136048316955566,80.76923076923077,64.28571428571429,82.6923076923077,85.71428571428571,9.788696740969305e-06,0.5952136516571045
91,1.2321642637252808,0.9856314063072205,73.07692307692308,71.42857142857143,82.6923076923077,85.71428571428571,7.941262864611418e-06,0.5922043323516846
92,1.2517229914665222,1.0786560773849487,67.3076923076923,85.71428571428571,82.6923076923077,85.71428571428571,6.283367774273814e-06,0.5945947170257568
93,1.2181989550590515,1.1377812623977661,75.0,78.57142857142857,82.6923076923077,85.71428571428571,4.816647612250541e-06,0.5969011783599854
94,1.126943588256836,0.9540984630584717,78.84615384615384,85.71428571428571,82.6923076923077,85.71428571428571,3.54254985426226e-06,0.6012327671051025
95,1.0708565711975098,0.8455179333686829,78.84615384615384,92.85714285714286,82.6923076923077,85.71428571428571,2.462331880972471e-06,0.5943384170532227
96,1.1359112858772278,1.090270757675171,75.0,64.28571428571429,82.6923076923077,85.71428571428571,1.577059737104449e-06,0.5920617580413818
97,1.1379305720329285,1.2509820461273193,73.07692307692308,64.28571428571429,82.6923076923077,85.71428571428571,8.876070793840018e-07,0.5939788818359375
98,1.1148859858512878,1.119998812675476,78.84615384615384,57.142857142857146,82.6923076923077,85.71428571428571,3.946543143456887e-07,0.6235911846160889
99,1.0197482705116272,0.8964011669158936,80.76923076923077,92.85714285714286,82.6923076923077,85.71428571428571,9.86879268536801e-08,0.5988378524780273
100,1.1814576983451843,0.9799866676330566,73.07692307692308,85.71428571428571,82.6923076923077,85.71428571428571,0.0,0.5959193706512451
101,1.1919600367546082,1.1565847396850586,65.38461538461539,42.857142857142854,82.6923076923077,85.71428571428571,2.467198171342e-07,0.5909574031829834
102,1.088101327419281,1.076332449913025,82.6923076923077,78.57142857142857,82.6923076923077,85.71428571428571,9.866357858642204e-07,0.5969409942626953
103,1.1892603635787964,0.8998057842254639,69.23076923076923,92.85714285714286,82.6923076923077,85.71428571428571,2.2190176984600015e-06,0.5971925258636475
104,1.1814974546432495,0.9973628520965576,71.15384615384616,78.57142857142857,82.6923076923077,85.71428571428571,3.9426493427610614e-06,0.5933711528778076
105,1.0840083360671997,0.970124363899231,75.0,78.57142857142857,82.6923076923077,85.71428571428571,6.155829702431114e-06,0.5940091609954834
106,1.1576277613639832,1.1697475910186768,78.84615384615384,64.28571428571429,82.6923076923077,85.71428571428571,8.856374635655695e-06,0.592818021774292
107,1.1131499409675598,1.102766990661621,75.0,64.28571428571429,82.6923076923077,85.71428571428571,1.2041619030626284e-05,0.6188673973083496
108,1.1956008076667786,1.207348108291626,75.0,64.28571428571429,82.6923076923077,85.71428571428571,1.570841943568441e-05,0.5913708209991455
109,1.1899096965789795,1.2124519348144531,71.15384615384616,71.42857142857143,82.6923076923077,85.71428571428571,1.9853157161528415e-05,0.5890462398529053
110,1.0855768322944641,1.2776908874511719,86.53846153846153,57.142857142857146,82.6923076923077,85.71428571428571,2.447174185242318e-05,0.598120927810669
111,1.097473919391632,0.9530102014541626,76.92307692307692,85.71428571428571,82.6923076923077,85.71428571428571,2.9559615522887274e-05,0.5919017791748047
112,1.2422842979431152,1.4314520359039307,73.07692307692308,64.28571428571429,82.6923076923077,85.71428571428571,3.511175705587427e-05,0.6008059978485107
113,1.2154442071914673,1.029928207397461,71.15384615384616,71.42857142857143,82.6923076923077,85.71428571428571,4.112268715800937e-05,0.5902550220489502
114,1.1661726236343384,1.2958629131317139,75.0,57.142857142857146,82.6923076923077,85.71428571428571,4.758647376699015e-05,0.5923194885253906
115,1.1146811842918396,1.0864123106002808,67.3076923076923,78.57142857142857,82.6923076923077,85.71428571428571,5.449673790581616e-05,0.5912837982177734
116,1.1714445352554321,1.2894511222839355,76.92307692307692,71.42857142857143,82.6923076923077,85.71428571428571,6.18466599780682e-05,0.5930829048156738
117,1.1895516514778137,1.3483834266662598,71.15384615384616,57.142857142857146,82.6923076923077,85.71428571428571,6.962898649802817e-05,0.5947012901306152
118,1.1839845776557922,1.0602895021438599,65.38461538461539,85.71428571428571,82.6923076923077,85.71428571428571,7.78360372489924e-05,0.5900716781616211
119,1.12899249792099,1.0638138055801392,73.07692307692308,78.57142857142857,82.6923076923077,85.71428571428571,8.645971286271896e-05,0.5999019145965576
120,1.1342214345932007,1.2889385223388672,75.0,57.142857142857146,82.6923076923077,85.71428571428571,9.54915028125261e-05,0.5960738658905029
121,1.1301859021186829,1.3226536512374878,73.07692307692308,57.142857142857146,82.6923076923077,85.71428571428571,0.00010492249381215483,0.5933828353881836
122,1.2081360816955566,1.1947596073150635,73.07692307692308,57.142857142857146,82.6923076923077,85.71428571428571,0.00011474337861210537,0.591508150100708
123,1.0907055139541626,1.253474235534668,71.15384615384616,64.28571428571429,82.6923076923077,85.71428571428571,0.00012494446518477014,0.5912773609161377
124,1.1503517627716064,0.9833115339279175,73.07692307692308,85.71428571428571,82.6923076923077,85.71428571428571,0.00013551568628929406,0.5964162349700928
125,1.0563058853149414,1.0600486993789673,76.92307692307692,78.57142857142857,82.6923076923077,85.71428571428571,0.00014644660940672606,0.5902955532073975
126,1.2608591318130493,0.6785829067230225,69.23076923076923,100.0,82.6923076923077,85.71428571428571,0.00015772644703565569,0.5920150279998779
127,1.0829335451126099,1.120225191116333,73.07692307692308,85.71428571428571,82.6923076923077,85.71428571428571,0.00016934406733817403,0.5914647579193115
128,1.1400426030158997,1.2135916948318481,75.0,50.0,82.6923076923077,85.71428571428571,0.00018128800512565523,0.5930206775665283
129,1.2235566973686218,1.2635129690170288,73.07692307692308,78.57142857142857,82.6923076923077,85.71428571428571,0.00019354647317351177,0.5932178497314453
130,1.2195031642913818,0.87647545337677,65.38461538461539,92.85714285714286,82.6923076923077,85.71428571428571,0.0002061073738537634,0.588571310043335
131,1.1251438856124878,1.3048653602600098,78.84615384615384,57.142857142857146,82.6923076923077,85.71428571428571,0.00021895831107393457,0.597956657409668
132,1.2755303978919983,0.913943350315094,73.07692307692308,78.57142857142857,82.6923076923077,85.71428571428571,0.00023208660251050189,0.5946731567382812
133,1.1384918689727783,0.9349567890167236,73.07692307692308,85.71428571428571,82.6923076923077,85.71428571428571,0.00024547929212481446,0.5912773609161377
134,1.0683671832084656,0.7885286211967468,73.07692307692308,85.71428571428571,82.6923076923077,85.71428571428571,0.0002591231629491424,0.5915906429290771
135,1.153177261352539,0.8707246780395508,69.23076923076923,78.57142857142857,82.6923076923077,85.71428571428571,0.0002730047501302265,0.5959837436676025
136,1.189531147480011,1.1115983724594116,80.76923076923077,71.42857142857143,80.76923076923077,85.71428571428571,0.0002871103542174639,0.5930120944976807
137,1.0645681023597717,0.9479091167449951,75.0,85.71428571428571,82.6923076923077,85.71428571428571,0.0003014260546826098,0.5946722030639648
138,1.0986985564231873,0.9786778688430786,78.84615384615384,78.57142857142857,82.6923076923077,85.71428571428571,0.00031593772365766105,0.5875742435455322
139,1.071816325187683,0.7866315841674805,71.15384615384616,92.85714285714286,84.61538461538461,85.71428571428571,0.00033063103987735425,0.5913114547729492
140,0.9593963623046875,1.1185882091522217,80.76923076923077,78.57142857142857,80.76923076923077,78.57142857142857,0.00034549150281252617,0.5916926860809326
141,1.0501719117164612,0.850501537322998,80.76923076923077,85.71428571428571,84.61538461538461,85.71428571428571,0.0003605044469803852,0.5934505462646484
142,1.0706221759319305,0.7463736534118652,76.92307692307692,92.85714285714286,84.61538461538461,85.71428571428571,0.00037565505641757284,0.5904927253723145
143,1.1770451068878174,0.7678413987159729,67.3076923076923,92.85714285714286,88.46153846153847,78.57142857142857,0.00039092837930172883,0.5968904495239258
144,0.9823474884033203,1.014974594116211,86.53846153846153,78.57142857142857,86.53846153846153,78.57142857142857,0.0004063093427071377,0.5953493118286133
145,1.0632589161396027,1.0272115468978882,75.0,85.71428571428571,88.46153846153847,78.57142857142857,0.00042178276747988454,0.5986995697021484
146,0.9415923058986664,0.863813042640686,82.6923076923077,92.85714285714286,84.61538461538461,71.42857142857143,0.00043733338321784774,0.5951278209686279
147,1.0432788729667664,1.0898548364639282,73.07692307692308,78.57142857142857,84.61538461538461,78.57142857142857,0.000452945843340743,0.5925400257110596
148,1.0406743884086609,0.8687589764595032,88.46153846153847,85.71428571428571,86.53846153846153,71.42857142857143,0.00046860474023534336,0.5943996906280518
149,1.13804030418396,0.9490939378738403,76.92307692307692,85.71428571428571,84.61538461538461,85.71428571428571,0.00048429462046093585,0.5982019901275635
150,1.0900958776474,0.844560980796814,73.07692307692308,85.71428571428571,84.61538461538461,71.42857142857143,0.0004999999999999999,0.6033890247344971
151,0.8438980877399445,1.2073655128479004,92.3076923076923,64.28571428571429,82.6923076923077,78.57142857142857,0.0005157053795390639,0.592247724533081
152,0.8957338333129883,1.0255217552185059,82.6923076923077,71.42857142857143,88.46153846153847,78.57142857142857,0.0005313952597646563,0.5937519073486328
153,0.8806341886520386,0.6868322491645813,86.53846153846153,100.0,88.46153846153847,78.57142857142857,0.0005470541566592572,0.5891885757446289
154,1.0022456049919128,0.8205694556236267,75.0,92.85714285714286,84.61538461538461,71.42857142857143,0.0005626666167821521,0.5890004634857178
155,0.9309214055538177,0.7503492832183838,80.76923076923077,92.85714285714286,94.23076923076923,78.57142857142857,0.0005782172325201154,0.5998668670654297
156,0.9819191098213196,0.7746452689170837,76.92307692307692,85.71428571428571,88.46153846153847,85.71428571428571,0.0005936906572928622,0.6004071235656738
157,1.1146031618118286,1.0461710691452026,82.6923076923077,71.42857142857143,80.76923076923077,78.57142857142857,0.0006090716206982711,0.591254711151123
158,1.0648514926433563,1.2438311576843262,75.0,71.42857142857143,84.61538461538461,78.57142857142857,0.0006243449435824275,0.5978407859802246
159,1.0507466197013855,0.7950080633163452,84.61538461538461,85.71428571428571,88.46153846153847,85.71428571428571,0.0006394955530196146,0.5924959182739258
160,0.9392262101173401,1.157173752784729,78.84615384615384,71.42857142857143,84.61538461538461,85.71428571428571,0.0006545084971874736,0.5936012268066406
161,1.1091800332069397,1.2240378856658936,78.84615384615384,78.57142857142857,84.61538461538461,78.57142857142857,0.0006693689601226455,0.595289945602417
162,0.9786140322685242,0.8641890287399292,78.84615384615384,85.71428571428571,88.46153846153847,92.85714285714286,0.0006840622763423387,0.6136257648468018
163,0.9471983909606934,1.1904436349868774,76.92307692307692,71.42857142857143,82.6923076923077,85.71428571428571,0.00069857394531739,0.5908064842224121
164,1.0857442617416382,0.9032001495361328,71.15384615384616,85.71428571428571,90.38461538461539,78.57142857142857,0.0007128896457825359,0.5922255516052246
165,1.0338043570518494,1.0718417167663574,78.84615384615384,85.71428571428571,90.38461538461539,85.71428571428571,0.0007269952498697729,0.5970101356506348
166,1.0836259722709656,1.1417584419250488,78.84615384615384,57.142857142857146,88.46153846153847,78.57142857142857,0.0007408768370508579,0.5988562107086182
167,1.2217742800712585,0.7149375081062317,73.07692307692308,92.85714285714286,78.84615384615384,85.71428571428571,0.0007545207078751859,0.5934736728668213
168,1.1938594579696655,1.0468508005142212,71.15384615384616,71.42857142857143,88.46153846153847,85.71428571428571,0.0007679133974894986,0.596412181854248
169,1.158885419368744,0.9928301572799683,69.23076923076923,71.42857142857143,86.53846153846153,85.71428571428571,0.0007810416889260655,0.5936985015869141
170,1.0962224006652832,0.9347296357154846,78.84615384615384,78.57142857142857,84.61538461538461,78.57142857142857,0.0007938926261462367,0.5929169654846191
171,0.9540586173534393,1.1055430173873901,78.84615384615384,57.142857142857146,84.61538461538461,85.71428571428571,0.0008064535268264883,0.5936160087585449
172,1.0245245397090912,0.9383928775787354,80.76923076923077,64.28571428571429,86.53846153846153,78.57142857142857,0.0008187119948743449,0.5985195636749268
173,0.9671574234962463,1.1474426984786987,80.76923076923077,78.57142857142857,88.46153846153847,78.57142857142857,0.0008306559326618259,0.5957200527191162
174,0.8529422581195831,0.9746161699295044,76.92307692307692,78.57142857142857,94.23076923076923,85.71428571428571,0.0008422735529643441,0.5861895084381104
175,1.1152566075325012,1.1571755409240723,76.92307692307692,71.42857142857143,86.53846153846153,78.57142857142857,0.0008535533905932735,0.5956287384033203
176,1.271881103515625,0.820320188999176,63.46153846153846,85.71428571428571,86.53846153846153,78.57142857142857,0.0008644843137107058,0.5902674198150635
177,0.9956701099872589,1.449938178062439,80.76923076923077,64.28571428571429,90.38461538461539,92.85714285714286,0.0008750555348152301,0.5932364463806152
178,1.1818791031837463,0.8620835542678833,63.46153846153846,78.57142857142857,88.46153846153847,85.71428571428571,0.0008852566213878949,0.5960326194763184
179,1.1160034537315369,0.8081756830215454,67.3076923076923,92.85714285714286,90.38461538461539,78.57142857142857,0.0008950775061878453,0.5927257537841797
180,0.8729820847511292,0.8120405673980713,86.53846153846153,92.85714285714286,90.38461538461539,78.57142857142857,0.0009045084971874741,0.5930004119873047
181,0.8727115392684937,1.105422854423523,84.61538461538461,78.57142857142857,88.46153846153847,71.42857142857143,0.0009135402871372812,0.5919785499572754
182,0.9798392355442047,1.248907446861267,84.61538461538461,71.42857142857143,88.46153846153847,78.57142857142857,0.0009221639627510079,0.5970437526702881
183,0.9829663336277008,1.2478052377700806,78.84615384615384,50.0,88.46153846153847,92.85714285714286,0.000930371013501972,0.5959177017211914
184,0.8879034519195557,0.9573731422424316,86.53846153846153,85.71428571428571,86.53846153846153,85.71428571428571,0.000938153340021932,0.595165491104126
185,0.8685154318809509,1.0140072107315063,78.84615384615384,78.57142857142857,88.46153846153847,71.42857142857143,0.0009455032620941843,0.5885517597198486
186,0.9732196033000946,0.9410675764083862,71.15384615384616,92.85714285714286,88.46153846153847,85.71428571428571,0.0009524135262330102,0.587451696395874
187,1.0377803444862366,1.2128081321716309,75.0,78.57142857142857,90.38461538461539,78.57142857142857,0.0009588773128419913,0.5871338844299316
188,0.9698508977890015,1.1369131803512573,80.76923076923077,85.71428571428571,90.38461538461539,85.71428571428571,0.0009648882429441262,0.5889401435852051
189,1.2281808853149414,1.1162854433059692,71.15384615384616,78.57142857142857,84.61538461538461,78.57142857142857,0.0009704403844771133,0.5903041362762451
190,0.9834578633308411,0.904545783996582,76.92307692307692,85.71428571428571,90.38461538461539,92.85714285714286,0.0009755282581475773,0.5912060737609863
191,0.8555967807769775,0.7161000967025757,82.6923076923077,92.85714285714286,86.53846153846153,78.57142857142857,0.000980146842838472,0.5884122848510742
192,1.159345269203186,1.1065043210983276,69.23076923076923,78.57142857142857,80.76923076923077,100.0,0.0009842915805643162,0.5939006805419922
193,0.9750761389732361,0.9247460961341858,80.76923076923077,85.71428571428571,90.38461538461539,78.57142857142857,0.0009879583809693743,0.5933959484100342
194,0.9880045056343079,0.979016900062561,75.0,78.57142857142857,82.6923076923077,85.71428571428571,0.000991143625364345,0.5973811149597168
195,0.8878147602081299,1.4821019172668457,80.76923076923077,64.28571428571429,88.46153846153847,85.71428571428571,0.0009938441702975695,0.5860719680786133
196,0.9125779867172241,1.0403308868408203,80.76923076923077,71.42857142857143,92.3076923076923,78.57142857142857,0.0009960573506572394,0.5910923480987549
197,1.063180923461914,1.5290558338165283,75.0,71.42857142857143,86.53846153846153,78.57142857142857,0.0009977809823015407,0.5921871662139893
198,1.219572901725769,1.0747485160827637,69.23076923076923,71.42857142857143,86.53846153846153,71.42857142857143,0.0009990133642141365,0.5916519165039062
199,0.9346703290939331,1.057009220123291,78.84615384615384,71.42857142857143,88.46153846153847,78.57142857142857,0.0009997532801828664,0.5934534072875977
200,0.9240527749061584,1.126504898071289,80.76923076923077,78.57142857142857,84.61538461538461,85.71428571428571,0.0010000000000000007,0.5980057716369629
201,0.9588643610477448,1.1919300556182861,78.84615384615384,64.28571428571429,86.53846153846153,71.42857142857143,0.0009997532801828664,0.5903420448303223
202,1.0572855770587921,0.6816533803939819,76.92307692307692,92.85714285714286,88.46153846153847,85.71428571428571,0.0009990133642141365,0.5905559062957764
203,1.177038848400116,0.858977198600769,73.07692307692308,92.85714285714286,86.53846153846153,85.71428571428571,0.0009977809823015407,0.5910072326660156
204,0.9785397946834564,1.142455816268921,78.84615384615384,78.57142857142857,84.61538461538461,78.57142857142857,0.0009960573506572396,0.5922114849090576
205,1.0795722007751465,1.139512538909912,75.0,64.28571428571429,88.46153846153847,78.57142857142857,0.0009938441702975695,0.5854504108428955
206,1.1056447625160217,1.3725190162658691,75.0,78.57142857142857,90.38461538461539,78.57142857142857,0.000991143625364345,0.5921769142150879
207,1.04533189535141,0.9696059226989746,69.23076923076923,92.85714285714286,86.53846153846153,78.57142857142857,0.0009879583809693743,0.5880386829376221
208,0.7969099879264832,0.939055323600769,86.53846153846153,85.71428571428571,92.3076923076923,85.71428571428571,0.000984291580564316,0.5884416103363037
209,0.9455958008766174,1.2739207744598389,80.76923076923077,71.42857142857143,86.53846153846153,78.57142857142857,0.000980146842838472,0.5934469699859619
210,0.7961693704128265,1.2445564270019531,86.53846153846153,57.142857142857146,92.3076923076923,78.57142857142857,0.0009755282581475773,0.5911335945129395
211,1.0081409811973572,1.3671762943267822,73.07692307692308,64.28571428571429,88.46153846153847,78.57142857142857,0.0009704403844771134,0.5943844318389893
212,1.133457601070404,0.9800331592559814,73.07692307692308,85.71428571428571,86.53846153846153,78.57142857142857,0.0009648882429441263,0.5869395732879639
213,1.096800148487091,1.169765591621399,76.92307692307692,71.42857142857143,84.61538461538461,85.71428571428571,0.000958877312841991,0.595862627029419
214,0.8796306252479553,0.9606078863143921,80.76923076923077,78.57142857142857,90.38461538461539,100.0,0.0009524135262330103,0.5915601253509521
215,0.9136919677257538,1.36013662815094,76.92307692307692,64.28571428571429,88.46153846153847,85.71428571428571,0.0009455032620941846,0.5935137271881104
216,1.1168052554130554,1.0669395923614502,80.76923076923077,78.57142857142857,88.46153846153847,78.57142857142857,0.0009381533400219324,0.5990898609161377
217,0.9516366422176361,0.9793646335601807,82.6923076923077,71.42857142857143,84.61538461538461,92.85714285714286,0.0009303710135019726,0.5950498580932617
218,1.1880278587341309,1.175370454788208,71.15384615384616,71.42857142857143,88.46153846153847,85.71428571428571,0.0009221639627510083,0.5959842205047607
219,0.86906498670578,0.9575625061988831,84.61538461538461,78.57142857142857,86.53846153846153,92.85714285714286,0.0009135402871372813,0.5901622772216797
220,0.9392189681529999,0.75212162733078,84.61538461538461,92.85714285714286,90.38461538461539,78.57142857142857,0.0009045084971874742,0.5960781574249268
221,0.9920573532581329,0.8421189785003662,73.07692307692308,92.85714285714286,90.38461538461539,85.71428571428571,0.0008950775061878455,0.5922789573669434
222,0.9697111248970032,0.7879346609115601,78.84615384615384,85.71428571428571,82.6923076923077,92.85714285714286,0.000885256621387895,0.5930213928222656
223,1.0599682331085205,0.887587308883667,73.07692307692308,78.57142857142857,86.53846153846153,78.57142857142857,0.0008750555348152302,0.5940790176391602
224,1.075574278831482,1.1776714324951172,73.07692307692308,71.42857142857143,92.3076923076923,78.57142857142857,0.0008644843137107062,0.5898590087890625
225,1.4033745527267456,1.0041182041168213,67.3076923076923,78.57142857142857,80.76923076923077,78.57142857142857,0.0008535533905932743,0.5900933742523193
226,1.3559749126434326,1.4802906513214111,57.69230769230769,57.142857142857146,82.6923076923077,78.57142857142857,0.0008422735529643449,0.593463659286499
227,0.96205273270607,1.0177115201950073,71.15384615384616,64.28571428571429,90.38461538461539,92.85714285714286,0.0008306559326618266,0.5928962230682373
228,1.0301840901374817,0.7202038764953613,80.76923076923077,100.0,88.46153846153847,78.57142857142857,0.0008187119948743455,0.5945079326629639
229,1.1903335452079773,1.1625475883483887,73.07692307692308,78.57142857142857,86.53846153846153,71.42857142857143,0.0008064535268264891,0.5945119857788086
230,1.027111440896988,0.820575475692749,76.92307692307692,92.85714285714286,88.46153846153847,71.42857142857143,0.0007938926261462368,0.593008279800415
231,1.2657302618026733,1.0539360046386719,75.0,78.57142857142857,84.61538461538461,92.85714285714286,0.0007810416889260656,0.5876302719116211
232,1.1008662581443787,1.1023283004760742,76.92307692307692,78.57142857142857,82.6923076923077,78.57142857142857,0.0007679133974894987,0.5912570953369141
233,1.0871572494506836,1.2700397968292236,73.07692307692308,78.57142857142857,90.38461538461539,85.71428571428571,0.0007545207078751862,0.5899574756622314
234,1.0391865372657776,1.153010606765747,75.0,85.71428571428571,90.38461538461539,78.57142857142857,0.0007408768370508582,0.5946629047393799
235,0.847530722618103,1.1150109767913818,78.84615384615384,85.71428571428571,90.38461538461539,78.57142857142857,0.000726995249869774,0.5928630828857422
236,0.9416872560977936,1.0496641397476196,88.46153846153847,71.42857142857143,88.46153846153847,92.85714285714286,0.0007128896457825371,0.5920510292053223
237,1.0661997497081757,0.8275824189186096,75.0,92.85714285714286,86.53846153846153,85.71428571428571,0.0006985739453173912,0.5941381454467773
238,0.8960107266902924,0.8433785438537598,84.61538461538461,78.57142857142857,86.53846153846153,78.57142857142857,0.00068406227634234,0.589818000793457
239,0.9364091753959656,0.7762211561203003,75.0,85.71428571428571,92.3076923076923,85.71428571428571,0.0006693689601226468,0.5919723510742188
240,1.0056928992271423,0.9609348177909851,82.6923076923077,85.71428571428571,90.38461538461539,85.71428571428571,0.0006545084971874749,0.5953986644744873
241,0.8754418790340424,1.133057951927185,75.0,78.57142857142857,92.3076923076923,71.42857142857143,0.000639495553019615,0.5903158187866211
242,1.120990812778473,0.78790283203125,73.07692307692308,85.71428571428571,88.46153846153847,92.85714285714286,0.0006243449435824279,0.5948402881622314
243,0.9822094142436981,0.7701337337493896,75.0,92.85714285714286,90.38461538461539,92.85714285714286,0.0006090716206982718,0.5927317142486572
244,0.8897727727890015,1.150803565979004,84.61538461538461,71.42857142857143,88.46153846153847,92.85714285714286,0.000593690657292863,0.5867350101470947
245,0.9244999587535858,1.0738691091537476,73.07692307692308,71.42857142857143,88.46153846153847,71.42857142857143,0.0005782172325201161,0.5889008045196533
246,0.9430556297302246,0.9895386099815369,75.0,71.42857142857143,86.53846153846153,92.85714285714286,0.0005626666167821529,0.5975344181060791
247,0.7828811705112457,0.9437702298164368,92.3076923076923,78.57142857142857,96.15384615384616,92.85714285714286,0.000547054156659258,0.5960476398468018
248,0.8283565044403076,0.9424742460250854,82.6923076923077,71.42857142857143,90.38461538461539,92.85714285714286,0.0005313952597646575,0.5894412994384766
249,0.8069945871829987,0.9601523876190186,86.53846153846153,57.142857142857146,92.3076923076923,92.85714285714286,0.0005157053795390652,0.6023728847503662
250,0.827928364276886,0.7883636951446533,86.53846153846153,78.57142857142857,88.46153846153847,78.57142857142857,0.000500000000000001,0.6174273490905762
251,0.8133846521377563,0.6787928342819214,86.53846153846153,92.85714285714286,92.3076923076923,92.85714285714286,0.000484294620460936,0.5971014499664307
252,0.8026124536991119,1.1937294006347656,80.76923076923077,64.28571428571429,92.3076923076923,85.71428571428571,0.0004686047402353436,0.6005597114562988
253,1.0335522890090942,1.007704496383667,80.76923076923077,78.57142857142857,84.61538461538461,92.85714285714286,0.00045294584334074317,0.5861287117004395
254,1.056326299905777,1.0051805973052979,75.0,85.71428571428571,90.38461538461539,78.57142857142857,0.0004373333832178482,0.5972926616668701
255,0.9117541909217834,0.9531857967376709,82.6923076923077,78.57142857142857,90.38461538461539,78.57142857142857,0.0004217827674798846,0.5867025852203369
256,0.893965482711792,1.4445476531982422,84.61538461538461,64.28571428571429,84.61538461538461,85.71428571428571,0.0004063093427071378,0.5891797542572021
257,0.7264551818370819,1.0370086431503296,92.3076923076923,78.57142857142857,96.15384615384616,71.42857142857143,0.0003909283793017289,0.5925843715667725
258,0.8636099696159363,1.0521377325057983,84.61538461538461,78.57142857142857,82.6923076923077,85.71428571428571,0.0003756550564175728,0.6027121543884277
259,0.937791496515274,0.9990234971046448,76.92307692307692,78.57142857142857,86.53846153846153,78.57142857142857,0.00036050444698038564,0.6236283779144287
260,0.9177405536174774,0.8011117577552795,82.6923076923077,78.57142857142857,88.46153846153847,92.85714285714286,0.00034549150281252666,0.5874598026275635
261,0.7222334742546082,1.3689433336257935,90.38461538461539,64.28571428571429,86.53846153846153,100.0,0.00033063103987735474,0.5971956253051758
262,0.8258021175861359,0.6746476888656616,86.53846153846153,100.0,86.53846153846153,64.28571428571429,0.00031593772365766154,0.5855247974395752
263,0.8663629293441772,1.0512778759002686,80.76923076923077,78.57142857142857,86.53846153846153,85.71428571428571,0.00030142605468260944,0.5925314426422119
264,0.787105917930603,1.19217050075531,86.53846153846153,85.71428571428571,94.23076923076923,85.71428571428571,0.0002871103542174635,0.5885465145111084
265,0.8771557509899139,1.3353286981582642,80.76923076923077,85.71428571428571,88.46153846153847,85.71428571428571,0.0002730047501302265,0.5903782844543457
266,0.730819821357727,0.928577184677124,86.53846153846153,78.57142857142857,84.61538461538461,85.71428571428571,0.00025912316294914234,0.5929243564605713
267,0.8493918776512146,1.5344104766845703,80.76923076923077,64.28571428571429,88.46153846153847,78.57142857142857,0.00024547929212481446,0.5878689289093018
268,0.9481892883777618,1.0595885515213013,80.76923076923077,78.57142857142857,86.53846153846153,71.42857142857143,0.00023208660251050186,0.597282886505127
269,0.7831977903842926,0.9624499082565308,88.46153846153847,85.71428571428571,94.23076923076923,85.71428571428571,0.00021895831107393495,0.5890548229217529
270,0.8950299322605133,1.608262300491333,84.61538461538461,78.57142857142857,90.38461538461539,92.85714285714286,0.00020610737385376373,0.5939655303955078
271,0.912806510925293,1.2625842094421387,80.76923076923077,64.28571428571429,94.23076923076923,78.57142857142857,0.00019354647317351215,0.5910098552703857
272,0.7613318562507629,1.3839573860168457,86.53846153846153,71.42857142857143,88.46153846153847,92.85714285714286,0.0001812880051256549,0.5904812812805176
273,0.6881722807884216,1.3963404893875122,90.38461538461539,64.28571428571429,90.38461538461539,85.71428571428571,0.00016934406733817387,0.5920572280883789
274,1.0120231211185455,0.8350129127502441,82.6923076923077,78.57142857142857,86.53846153846153,85.71428571428571,0.00015772644703565558,0.5900030136108398
275,0.9883316457271576,0.8635839819908142,78.84615384615384,78.57142857142857,84.61538461538461,71.42857142857143,0.0001464466094067262,0.5934553146362305
276,0.9609042406082153,0.9765725135803223,82.6923076923077,85.71428571428571,94.23076923076923,85.71428571428571,0.00013551568628929425,0.5861244201660156
277,0.7661659419536591,1.2224397659301758,78.84615384615384,85.71428571428571,90.38461538461539,71.42857142857143,0.00012494446518477028,0.5923123359680176
278,0.860943466424942,1.2348554134368896,82.6923076923077,78.57142857142857,90.38461538461539,85.71428571428571,0.00011474337861210549,0.5906176567077637
279,1.1040877103805542,0.7074377536773682,82.6923076923077,92.85714285714286,84.61538461538461,85.71428571428571,0.00010492249381215495,0.5883874893188477
280,0.7414612770080566,1.4836875200271606,84.61538461538461,78.57142857142857,88.46153846153847,92.85714285714286,9.549150281252649e-05,0.5904848575592041
281,0.8185839354991913,1.3046000003814697,76.92307692307692,71.42857142857143,90.38461538461539,85.71428571428571,8.645971286271934e-05,0.5907788276672363
282,0.9314902424812317,0.9417552947998047,75.0,78.57142857142857,90.38461538461539,92.85714285714286,7.783603724899271e-05,0.590986967086792
283,0.8724468648433685,1.1329938173294067,80.76923076923077,85.71428571428571,90.38461538461539,85.71428571428571,6.962898649802803e-05,0.5919680595397949
284,0.9038673639297485,0.8560673594474792,82.6923076923077,92.85714285714286,84.61538461538461,92.85714285714286,6.18466599780681e-05,0.5866053104400635
285,0.8720360398292542,0.9961294531822205,76.92307692307692,85.71428571428571,94.23076923076923,85.71428571428571,5.4496737905815994e-05,0.5899043083190918
286,0.8199502825737,1.313948154449463,86.53846153846153,64.28571428571429,94.23076923076923,85.71428571428571,4.7586473766990206e-05,0.5899918079376221
287,0.8673816323280334,1.4681581258773804,84.61538461538461,57.142857142857146,88.46153846153847,85.71428571428571,4.112268715800942e-05,0.603980302810669
288,0.9052546918392181,0.9467417001724243,82.6923076923077,78.57142857142857,86.53846153846153,85.71428571428571,3.5111757055874305e-05,0.5951693058013916
289,0.6999780237674713,0.6211091876029968,88.46153846153847,100.0,88.46153846153847,85.71428571428571,2.9559615522887304e-05,0.5943644046783447
290,0.7280815243721008,1.1228320598602295,90.38461538461539,71.42857142857143,86.53846153846153,71.42857142857143,2.4471741852423316e-05,0.5902917385101318
291,0.7930215299129486,0.9509543180465698,88.46153846153847,78.57142857142857,88.46153846153847,71.42857142857143,1.9853157161528543e-05,0.5874249935150146
292,0.8722233474254608,0.8887072801589966,78.84615384615384,85.71428571428571,90.38461538461539,78.57142857142857,1.5708419435684534e-05,0.5869824886322021
293,0.8542676568031311,1.5732531547546387,86.53846153846153,57.142857142857146,86.53846153846153,78.57142857142857,1.2041619030626406e-05,0.5952486991882324
294,0.7514314651489258,1.020824909210205,82.6923076923077,85.71428571428571,88.46153846153847,85.71428571428571,8.856374635655593e-06,0.5979499816894531
295,0.8281131982803345,1.0985685586929321,82.6923076923077,71.42857142857143,92.3076923076923,85.71428571428571,6.155829702431122e-06,0.5941503047943115
296,0.6959525644779205,1.1008944511413574,86.53846153846153,78.57142857142857,90.38461538461539,71.42857142857143,3.9426493427610665e-06,0.5979914665222168
297,0.9833420515060425,0.8305531740188599,73.07692307692308,78.57142857142857,92.3076923076923,78.57142857142857,2.2190176984600044e-06,0.5920510292053223
298,0.7478898167610168,0.8151851892471313,86.53846153846153,92.85714285714286,92.3076923076923,78.57142857142857,9.866357858642217e-07,0.5893189907073975
299,0.9449075758457184,1.0195811986923218,80.76923076923077,78.57142857142857,90.38461538461539,85.71428571428571,2.4671981713420025e-07,0.5986523628234863
