epoch,train_loss,test_loss,train_acc_action,test_acc_action,train_acc_status,test_acc_status,learning_rate,epoch_time
1,1.8714280128479004,1.7739291191101074,36.53846153846154,42.857142857142854,23.076923076923077,14.285714285714286,0.00039990131207314633,0.8737354278564453
2,1.7636269330978394,1.8225980997085571,48.07692307692308,28.571428571428573,38.46153846153846,64.28571428571429,0.00039960534568565434,0.5948421955108643
3,1.714000165462494,1.6879370212554932,48.07692307692308,42.857142857142854,59.61538461538461,85.71428571428571,0.00039911239292061604,0.586662769317627
4,1.7150522470474243,1.7600852251052856,44.23076923076923,21.428571428571427,61.53846153846154,85.71428571428571,0.00039842294026289565,0.5959482192993164
5,1.7293553352355957,1.6459059715270996,38.46153846153846,42.857142857142854,75.0,78.57142857142857,0.0003975376681190276,0.591998815536499
6,1.6955960988998413,1.5851843357086182,38.46153846153846,42.857142857142854,76.92307692307692,85.71428571428571,0.0003964574501457378,0.5973784923553467
7,1.6527475118637085,1.5988354682922363,50.0,42.857142857142854,78.84615384615384,85.71428571428571,0.00039518335238774953,0.5867719650268555
8,1.611440122127533,1.6567692756652832,46.15384615384615,28.571428571428573,80.76923076923077,85.71428571428571,0.00039371663222572626,0.5890803337097168
9,1.6176370978355408,1.7184312343597412,50.0,28.571428571428573,78.84615384615384,85.71428571428571,0.0003920587371353887,0.599729061126709
10,1.6025511622428894,1.581566333770752,57.69230769230769,42.857142857142854,76.92307692307692,85.71428571428571,0.0003902113032590308,0.5969140529632568
11,1.582318127155304,1.6887567043304443,48.07692307692308,35.714285714285715,80.76923076923077,85.71428571428571,0.0003881761537908452,0.5888495445251465
12,1.579537570476532,1.554498553276062,48.07692307692308,50.0,76.92307692307692,85.71428571428571,0.0003859552971776504,0.59116530418396
13,1.5795785188674927,1.4917765855789185,51.92307692307692,57.142857142857146,84.61538461538461,85.71428571428571,0.0003835509251367963,0.5914044380187988
14,1.6831772327423096,1.4661595821380615,44.23076923076923,57.142857142857146,82.6923076923077,85.71428571428571,0.000380965410493204,0.5892553329467773
15,1.5266839265823364,1.3690656423568726,57.69230769230769,64.28571428571429,82.6923076923077,85.71428571428571,0.0003782013048376737,0.5933504104614258
16,1.424052357673645,1.416963815689087,65.38461538461539,64.28571428571429,80.76923076923077,85.71428571428571,0.00037526133600877283,0.5954892635345459
17,1.448621392250061,1.46761155128479,61.53846153846154,57.142857142857146,82.6923076923077,85.71428571428571,0.0003721484054007889,0.5910599231719971
18,1.4860087633132935,1.449275255203247,61.53846153846154,57.142857142857146,82.6923076923077,85.71428571428571,0.0003688655851004032,0.6012511253356934
19,1.5177759528160095,1.2655526399612427,55.76923076923077,85.71428571428571,82.6923076923077,85.71428571428571,0.00036541611485491255,0.5905101299285889
20,1.4149355292320251,1.385075330734253,61.53846153846154,42.857142857142854,82.6923076923077,85.71428571428571,0.0003618033988749897,0.596677303314209
21,1.4374111890792847,1.3588051795959473,59.61538461538461,57.142857142857146,82.6923076923077,85.71428571428571,0.00035803100247513823,0.5892510414123535
22,1.3548012971878052,1.396930456161499,67.3076923076923,42.857142857142854,82.6923076923077,85.71428571428571,0.000354102648555158,0.59171462059021
23,1.3558106422424316,1.184192180633545,59.61538461538461,71.42857142857143,80.76923076923077,85.71428571428571,0.0003500222139260921,0.5917236804962158
24,1.5474534630775452,1.5191856622695923,51.92307692307692,35.714285714285715,78.84615384615384,85.71428571428571,0.00034579372548428246,0.5926482677459717
25,1.3906805515289307,1.3994988203048706,61.53846153846154,57.142857142857146,80.76923076923077,85.71428571428571,0.0003414213562373096,0.5899810791015625
26,1.4842575788497925,1.5833609104156494,55.76923076923077,42.857142857142854,82.6923076923077,85.71428571428571,0.00033690942118573785,0.6066863536834717
27,1.3889132738113403,1.4949524402618408,63.46153846153846,57.142857142857146,84.61538461538461,85.71428571428571,0.0003322623730647305,0.6050405502319336
28,1.3976399898529053,1.2786426544189453,57.69230769230769,71.42857142857143,82.6923076923077,85.71428571428571,0.00032748479794973803,0.5938782691955566
29,1.4484471082687378,1.3312314748764038,51.92307692307692,57.142857142857146,82.6923076923077,85.71428571428571,0.00032258141073059543,0.5911877155303955
30,1.382960855960846,1.389687418937683,65.38461538461539,57.142857142857146,82.6923076923077,85.71428571428571,0.0003175570504584948,0.5871775150299072
31,1.3493821024894714,1.1760438680648804,69.23076923076923,71.42857142857143,82.6923076923077,85.71428571428571,0.0003124166755704263,0.6004748344421387
32,1.3836299777030945,1.2811436653137207,55.76923076923077,57.142857142857146,82.6923076923077,85.71428571428571,0.0003071653589957995,0.5970685482025146
33,1.4266680479049683,1.3053202629089355,63.46153846153846,57.142857142857146,82.6923076923077,85.71428571428571,0.00030180828315007444,0.5981478691101074
34,1.425607144832611,1.3491401672363281,53.84615384615385,50.0,82.6923076923077,85.71428571428571,0.0002963507348203432,0.5983610153198242
35,1.3397956490516663,1.138431429862976,61.53846153846154,71.42857142857143,82.6923076923077,85.71428571428571,0.00029079809994790953,0.5926640033721924
36,1.3516864776611328,1.3818602561950684,63.46153846153846,42.857142857142854,82.6923076923077,85.71428571428571,0.00028515585831301473,0.5943586826324463
37,1.3483282327651978,1.2283134460449219,57.69230769230769,71.42857142857143,82.6923076923077,85.71428571428571,0.0002794295781269563,0.5907480716705322
38,1.2521026134490967,1.140507698059082,67.3076923076923,64.28571428571429,82.6923076923077,85.71428571428571,0.0002736249105369358,0.592238187789917
39,1.3647611737251282,1.1860127449035645,59.61538461538461,64.28571428571429,82.6923076923077,85.71428571428571,0.0002677475840490585,0.5984170436859131
40,1.2822247743606567,1.1220064163208008,65.38461538461539,64.28571428571429,82.6923076923077,85.71428571428571,0.0002618033988749897,0.5940115451812744
41,1.2731127738952637,1.026110053062439,65.38461538461539,78.57142857142857,80.76923076923077,85.71428571428571,0.0002557982212078461,0.6133522987365723
42,1.2808724641799927,1.1521339416503906,63.46153846153846,57.142857142857146,84.61538461538461,85.71428571428571,0.00024973797743297113,0.5958347320556641
43,1.322393774986267,1.1821693181991577,61.53846153846154,42.857142857142854,82.6923076923077,85.71428571428571,0.00024362864827930873,0.5929899215698242
44,1.2406787276268005,1.166588306427002,69.23076923076923,64.28571428571429,82.6923076923077,85.71428571428571,0.00023747626291714514,0.6021766662597656
45,1.2193962335586548,1.3855299949645996,69.23076923076923,35.714285714285715,80.76923076923077,85.71428571428571,0.00023128689300804637,0.5918471813201904
46,1.2118389010429382,0.9660459756851196,67.3076923076923,71.42857142857143,80.76923076923077,85.71428571428571,0.00022506664671286108,0.6018428802490234
47,1.242477834224701,1.159221887588501,71.15384615384616,71.42857142857143,80.76923076923077,85.71428571428571,0.00021882166266370303,0.5921971797943115
48,1.2363625764846802,1.2041555643081665,67.3076923076923,64.28571428571429,82.6923076923077,85.71428571428571,0.00021255810390586287,0.5983414649963379
49,1.2545740008354187,1.381474256515503,63.46153846153846,57.142857142857146,84.61538461538461,85.71428571428571,0.00020628215181562584,0.5935566425323486
50,1.2129677534103394,1.0521432161331177,67.3076923076923,71.42857142857143,84.61538461538461,85.71428571428571,0.00020000000000000017,0.5868442058563232
51,1.2654250860214233,1.3096431493759155,69.23076923076923,64.28571428571429,82.6923076923077,85.71428571428571,0.0001937178481843745,0.5982811450958252
52,1.262767732143402,1.5077834129333496,67.3076923076923,42.857142857142854,82.6923076923077,85.71428571428571,0.00018744189609413747,0.5896971225738525
53,1.313086450099945,1.1687541007995605,61.53846153846154,64.28571428571429,84.61538461538461,85.71428571428571,0.00018117833733629726,0.5885026454925537
54,1.3113380670547485,1.3554037809371948,61.53846153846154,50.0,82.6923076923077,85.71428571428571,0.0001749333532871393,0.587059497833252
55,1.2515975832939148,1.1985738277435303,69.23076923076923,57.142857142857146,82.6923076923077,85.71428571428571,0.00016871310699195395,0.5953061580657959
56,1.2172396183013916,1.1449921131134033,71.15384615384616,71.42857142857143,82.6923076923077,85.71428571428571,0.0001625237370828552,0.5966157913208008
57,1.191912829875946,1.0154377222061157,67.3076923076923,85.71428571428571,82.6923076923077,85.71428571428571,0.00015637135172069167,0.58978271484375
58,1.2633880972862244,1.1107414960861206,63.46153846153846,78.57142857142857,82.6923076923077,85.71428571428571,0.00015026202256702916,0.5925438404083252
59,1.2895548343658447,1.0232504606246948,71.15384615384616,85.71428571428571,82.6923076923077,85.71428571428571,0.0001442017787921543,0.5953073501586914
60,1.2476375699043274,1.133689284324646,75.0,78.57142857142857,82.6923076923077,85.71428571428571,0.0001381966011250107,0.5880022048950195
61,1.1786206364631653,1.0432400703430176,75.0,71.42857142857143,86.53846153846153,85.71428571428571,0.00013225241595094187,0.5899255275726318
62,1.183889389038086,1.0774341821670532,78.84615384615384,71.42857142857143,84.61538461538461,85.71428571428571,0.0001263750894630646,0.5987780094146729
63,1.1822535395622253,1.0467503070831299,67.3076923076923,92.85714285714286,84.61538461538461,85.71428571428571,0.00012057042187304399,0.5985560417175293
64,1.2042142748832703,1.3457660675048828,65.38461538461539,50.0,80.76923076923077,85.71428571428571,0.00011484414168698559,0.5983898639678955
65,1.2000091075897217,0.9090127348899841,73.07692307692308,71.42857142857143,84.61538461538461,85.71428571428571,0.00010920190005209077,0.597437858581543
66,1.176666498184204,1.0958772897720337,67.3076923076923,64.28571428571429,80.76923076923077,85.71428571428571,0.00010364926517965704,0.595905065536499
67,1.27082359790802,1.0339853763580322,67.3076923076923,78.57142857142857,82.6923076923077,85.71428571428571,9.819171684992585e-05,0.5975091457366943
68,1.320120394229889,1.0310099124908447,61.53846153846154,64.28571428571429,84.61538461538461,85.71428571428571,9.283464100420074e-05,0.5914828777313232
69,1.1198233366012573,1.144151210784912,75.0,71.42857142857143,82.6923076923077,85.71428571428571,8.758332442957398e-05,0.591998815536499
70,1.1701859831809998,1.2689886093139648,73.07692307692308,64.28571428571429,82.6923076923077,85.71428571428571,8.24429495415055e-05,0.5978865623474121
71,1.1017668843269348,0.9735373258590698,78.84615384615384,78.57142857142857,84.61538461538461,85.71428571428571,7.741858926940478e-05,0.6090495586395264
72,1.2634792923927307,0.9947549104690552,63.46153846153846,71.42857142857143,82.6923076923077,85.71428571428571,7.251520205026215e-05,0.5978829860687256
73,1.2434430718421936,1.0578272342681885,65.38461538461539,64.28571428571429,82.6923076923077,85.71428571428571,6.773762693526975e-05,0.5961489677429199
74,1.1914478540420532,0.9851161241531372,65.38461538461539,71.42857142857143,82.6923076923077,85.71428571428571,6.309057881426234e-05,0.594759464263916
75,1.294540286064148,0.9538697004318237,71.15384615384616,71.42857142857143,84.61538461538461,85.71428571428571,5.857864376269059e-05,0.5907166004180908
76,1.20005202293396,1.1173205375671387,67.3076923076923,57.142857142857146,84.61538461538461,85.71428571428571,5.420627451571781e-05,0.5920615196228027
77,1.1452996134757996,1.0382936000823975,69.23076923076923,71.42857142857143,84.61538461538461,85.71428571428571,4.9977786073908174e-05,0.5947749614715576
78,1.1214573383331299,1.247383952140808,75.0,64.28571428571429,80.76923076923077,85.71428571428571,4.5897351444842234e-05,0.5857670307159424
79,1.0710343718528748,1.0620957612991333,73.07692307692308,64.28571428571429,84.61538461538461,85.71428571428571,4.1968997524861976e-05,0.595325231552124
80,1.0327917337417603,1.1048535108566284,84.61538461538461,78.57142857142857,80.76923076923077,85.71428571428571,3.8196601125010586e-05,0.5897493362426758
81,1.2843862175941467,1.0423526763916016,65.38461538461539,85.71428571428571,82.6923076923077,85.71428571428571,3.458388514508772e-05,0.5926728248596191
82,1.2405676245689392,1.070927619934082,71.15384615384616,64.28571428571429,80.76923076923077,85.71428571428571,3.113441489959707e-05,0.5888359546661377
83,1.0665302276611328,1.0393613576889038,82.6923076923077,71.42857142857143,80.76923076923077,85.71428571428571,2.7851594599211286e-05,0.5927493572235107
84,1.1789814829826355,1.1015833616256714,69.23076923076923,71.42857142857143,82.6923076923077,85.71428571428571,2.4738663991227316e-05,0.5877139568328857
85,1.279599905014038,1.0268497467041016,67.3076923076923,78.57142857142857,82.6923076923077,85.71428571428571,2.179869516232647e-05,0.5830886363983154
86,1.1455726623535156,1.1201647520065308,71.15384615384616,64.28571428571429,84.61538461538461,85.71428571428571,1.9034589506796152e-05,0.5868215560913086
87,1.2185442447662354,0.980888843536377,65.38461538461539,71.42857142857143,84.61538461538461,85.71428571428571,1.6449074863203837e-05,0.5927450656890869
88,1.1278374791145325,0.9237260818481445,71.15384615384616,71.42857142857143,82.6923076923077,85.71428571428571,1.4044702822349747e-05,0.5903043746948242
89,1.2261614203453064,1.1360805034637451,65.38461538461539,64.28571428571429,82.6923076923077,85.71428571428571,1.1823846209154923e-05,0.5909385681152344
90,1.1346650123596191,1.2740949392318726,75.0,50.0,82.6923076923077,85.71428571428571,9.788696740969305e-06,0.5888526439666748
91,1.10341215133667,0.8952475786209106,73.07692307692308,85.71428571428571,84.61538461538461,85.71428571428571,7.941262864611418e-06,0.5914287567138672
92,1.1959306001663208,0.9736504554748535,71.15384615384616,71.42857142857143,78.84615384615384,85.71428571428571,6.283367774273814e-06,0.5886547565460205
93,1.130838394165039,1.1593244075775146,75.0,57.142857142857146,86.53846153846153,85.71428571428571,4.816647612250541e-06,0.5873165130615234
94,1.0106576681137085,1.0038748979568481,84.61538461538461,78.57142857142857,82.6923076923077,85.71428571428571,3.54254985426226e-06,0.587256669998169
95,1.1393480896949768,1.084464192390442,75.0,78.57142857142857,82.6923076923077,85.71428571428571,2.462331880972471e-06,0.585928201675415
96,1.1177670359611511,1.0120676755905151,80.76923076923077,71.42857142857143,82.6923076923077,85.71428571428571,1.577059737104449e-06,0.591911792755127
97,1.1601436138153076,1.0238739252090454,75.0,85.71428571428571,82.6923076923077,85.71428571428571,8.876070793840018e-07,0.5887811183929443
98,1.2078343033790588,0.933356761932373,75.0,78.57142857142857,82.6923076923077,85.71428571428571,3.946543143456887e-07,0.5921926498413086
99,1.1784128546714783,1.078931212425232,73.07692307692308,71.42857142857143,82.6923076923077,85.71428571428571,9.86879268536801e-08,0.5827775001525879
100,1.1285750269889832,0.8922290802001953,73.07692307692308,85.71428571428571,78.84615384615384,85.71428571428571,0.0,0.5891237258911133
101,1.1224029660224915,0.9795938730239868,75.0,64.28571428571429,80.76923076923077,85.71428571428571,2.467198171342e-07,0.5820798873901367
102,1.0992834568023682,1.0687147378921509,69.23076923076923,64.28571428571429,82.6923076923077,85.71428571428571,9.866357858642204e-07,0.5828180313110352
103,1.2709568738937378,1.0492080450057983,73.07692307692308,85.71428571428571,82.6923076923077,85.71428571428571,2.2190176984600015e-06,0.5824799537658691
104,1.076326310634613,1.1957426071166992,73.07692307692308,57.142857142857146,86.53846153846153,85.71428571428571,3.9426493427610614e-06,0.5852839946746826
105,1.1113405227661133,0.9520539045333862,69.23076923076923,71.42857142857143,84.61538461538461,85.71428571428571,6.155829702431114e-06,0.5883867740631104
106,1.3071812391281128,1.234159231185913,67.3076923076923,50.0,82.6923076923077,85.71428571428571,8.856374635655695e-06,0.5847268104553223
107,1.1299807131290436,1.1462186574935913,75.0,64.28571428571429,84.61538461538461,85.71428571428571,1.2041619030626284e-05,0.5882151126861572
108,1.2261906862258911,1.2532461881637573,73.07692307692308,57.142857142857146,84.61538461538461,85.71428571428571,1.570841943568441e-05,0.5929312705993652
109,1.2765834331512451,0.8853553533554077,73.07692307692308,78.57142857142857,82.6923076923077,85.71428571428571,1.9853157161528415e-05,0.5910468101501465
110,1.1849600076675415,1.2577629089355469,73.07692307692308,57.142857142857146,82.6923076923077,85.71428571428571,2.447174185242318e-05,0.5928614139556885
111,1.1157092452049255,1.1256382465362549,73.07692307692308,78.57142857142857,84.61538461538461,85.71428571428571,2.9559615522887274e-05,0.5837419033050537
112,1.294967532157898,1.1355345249176025,76.92307692307692,57.142857142857146,82.6923076923077,85.71428571428571,3.511175705587427e-05,0.58943772315979
113,1.1815966367721558,1.164614200592041,71.15384615384616,64.28571428571429,82.6923076923077,85.71428571428571,4.112268715800937e-05,0.6085269451141357
114,1.2314141988754272,1.0893433094024658,76.92307692307692,64.28571428571429,84.61538461538461,85.71428571428571,4.758647376699015e-05,0.5908901691436768
115,1.1112660765647888,1.079039454460144,69.23076923076923,71.42857142857143,82.6923076923077,85.71428571428571,5.449673790581616e-05,0.5929286479949951
116,1.2208112478256226,1.0618302822113037,76.92307692307692,85.71428571428571,80.76923076923077,85.71428571428571,6.18466599780682e-05,0.5868072509765625
117,1.2014113664627075,1.1296563148498535,71.15384615384616,71.42857142857143,80.76923076923077,85.71428571428571,6.962898649802817e-05,0.5925858020782471
118,1.1954894661903381,1.0003947019577026,65.38461538461539,78.57142857142857,84.61538461538461,85.71428571428571,7.78360372489924e-05,0.5875568389892578
119,1.169966459274292,1.0974664688110352,69.23076923076923,64.28571428571429,82.6923076923077,85.71428571428571,8.645971286271896e-05,0.5998151302337646
120,1.1271212697029114,1.1131263971328735,73.07692307692308,71.42857142857143,84.61538461538461,85.71428571428571,9.54915028125261e-05,0.5922541618347168
121,1.1525286436080933,1.1016464233398438,73.07692307692308,64.28571428571429,84.61538461538461,85.71428571428571,0.00010492249381215483,0.5934298038482666
122,1.2059472799301147,1.4586760997772217,65.38461538461539,57.142857142857146,82.6923076923077,85.71428571428571,0.00011474337861210537,0.5932772159576416
123,1.078981637954712,1.1077218055725098,73.07692307692308,78.57142857142857,82.6923076923077,85.71428571428571,0.00012494446518477014,0.5847599506378174
124,1.0915555953979492,0.9332353472709656,78.84615384615384,92.85714285714286,82.6923076923077,85.71428571428571,0.00013551568628929406,0.5892701148986816
125,1.0672531127929688,1.0462734699249268,75.0,78.57142857142857,82.6923076923077,85.71428571428571,0.00014644660940672606,0.5867767333984375
126,1.3178986310958862,0.9748291969299316,65.38461538461539,92.85714285714286,82.6923076923077,85.71428571428571,0.00015772644703565569,0.5802390575408936
127,1.0739888548851013,1.0099329948425293,76.92307692307692,85.71428571428571,80.76923076923077,85.71428571428571,0.00016934406733817403,0.5899391174316406
128,1.1343181133270264,1.058927297592163,75.0,64.28571428571429,82.6923076923077,85.71428571428571,0.00018128800512565523,0.5831291675567627
129,1.2834006547927856,1.0986368656158447,65.38461538461539,78.57142857142857,84.61538461538461,85.71428571428571,0.00019354647317351177,0.5909740924835205
130,1.0129692256450653,0.9545438289642334,82.6923076923077,71.42857142857143,82.6923076923077,85.71428571428571,0.0002061073738537634,0.5848634243011475
131,1.1178311109542847,1.1363478899002075,75.0,64.28571428571429,82.6923076923077,85.71428571428571,0.00021895831107393457,0.5876455307006836
132,1.0652822256088257,1.1427052021026611,71.15384615384616,71.42857142857143,82.6923076923077,85.71428571428571,0.00023208660251050189,0.5846993923187256
133,1.2155495285987854,0.9583126306533813,71.15384615384616,92.85714285714286,82.6923076923077,85.71428571428571,0.00024547929212481446,0.5828802585601807
134,1.1752057075500488,0.8589895963668823,69.23076923076923,92.85714285714286,84.61538461538461,85.71428571428571,0.0002591231629491424,0.5888965129852295
135,1.1293171644210815,0.9732760190963745,76.92307692307692,85.71428571428571,82.6923076923077,85.71428571428571,0.0002730047501302265,0.5832035541534424
136,0.9815939366817474,1.0323131084442139,80.76923076923077,85.71428571428571,82.6923076923077,85.71428571428571,0.0002871103542174639,0.5896608829498291
137,1.0613795518875122,1.1877081394195557,78.84615384615384,64.28571428571429,82.6923076923077,85.71428571428571,0.0003014260546826098,0.5858356952667236
138,1.0386305451393127,0.8592010736465454,78.84615384615384,85.71428571428571,80.76923076923077,85.71428571428571,0.00031593772365766105,0.5809180736541748
139,1.142285943031311,0.9584134817123413,80.76923076923077,71.42857142857143,82.6923076923077,85.71428571428571,0.00033063103987735425,0.5844018459320068
140,1.1176588535308838,0.9532580971717834,76.92307692307692,78.57142857142857,82.6923076923077,85.71428571428571,0.00034549150281252617,0.5883305072784424
141,1.1415056586265564,1.2258286476135254,73.07692307692308,64.28571428571429,82.6923076923077,85.71428571428571,0.0003605044469803852,0.5877907276153564
142,1.2169389724731445,0.7625749111175537,76.92307692307692,92.85714285714286,84.61538461538461,85.71428571428571,0.00037565505641757284,0.5869369506835938
143,1.2363872528076172,0.7087154984474182,63.46153846153846,92.85714285714286,82.6923076923077,85.71428571428571,0.00039092837930172883,0.5925469398498535
144,1.1235228776931763,0.9798839092254639,76.92307692307692,78.57142857142857,82.6923076923077,85.71428571428571,0.0004063093427071377,0.5955431461334229
145,1.1287463307380676,0.7515087127685547,71.15384615384616,92.85714285714286,84.61538461538461,85.71428571428571,0.00042178276747988454,0.5989296436309814
146,0.9636520445346832,0.9904869794845581,80.76923076923077,71.42857142857143,82.6923076923077,85.71428571428571,0.00043733338321784774,0.5940232276916504
147,1.086301565170288,1.1294224262237549,71.15384615384616,78.57142857142857,82.6923076923077,85.71428571428571,0.000452945843340743,0.5912232398986816
148,1.054819405078888,1.4100462198257446,80.76923076923077,57.142857142857146,82.6923076923077,85.71428571428571,0.00046860474023534336,0.5902390480041504
149,1.1028698086738586,0.791536808013916,75.0,92.85714285714286,82.6923076923077,85.71428571428571,0.00048429462046093585,0.5910823345184326
150,1.114335536956787,0.7293620705604553,76.92307692307692,92.85714285714286,82.6923076923077,78.57142857142857,0.0004999999999999999,0.5880846977233887
151,0.9516696333885193,1.1561565399169922,80.76923076923077,78.57142857142857,84.61538461538461,85.71428571428571,0.0005157053795390639,0.5881810188293457
152,0.9664888381958008,1.7444400787353516,78.84615384615384,50.0,86.53846153846153,85.71428571428571,0.0005313952597646563,0.5894870758056641
153,1.107196867465973,0.7629891633987427,67.3076923076923,92.85714285714286,86.53846153846153,78.57142857142857,0.0005470541566592572,0.5896971225738525
154,0.9741969108581543,0.9458423256874084,75.0,78.57142857142857,82.6923076923077,71.42857142857143,0.0005626666167821521,0.5842704772949219
155,0.8612731099128723,0.8087586760520935,88.46153846153847,85.71428571428571,88.46153846153847,78.57142857142857,0.0005782172325201154,0.5948817729949951
156,1.090810239315033,0.8166991472244263,78.84615384615384,85.71428571428571,84.61538461538461,78.57142857142857,0.0005936906572928622,0.5875415802001953
157,1.0341250002384186,0.7722340226173401,73.07692307692308,92.85714285714286,84.61538461538461,92.85714285714286,0.0006090716206982711,0.5890800952911377
158,1.123045563697815,1.8149216175079346,71.15384615384616,64.28571428571429,86.53846153846153,78.57142857142857,0.0006243449435824275,0.5932230949401855
159,1.020881325006485,1.2824959754943848,82.6923076923077,71.42857142857143,80.76923076923077,78.57142857142857,0.0006394955530196146,0.5954501628875732
160,1.0438728332519531,0.9940102100372314,71.15384615384616,85.71428571428571,84.61538461538461,71.42857142857143,0.0006545084971874736,0.5922904014587402
161,1.0415772199630737,1.226637840270996,73.07692307692308,57.142857142857146,86.53846153846153,71.42857142857143,0.0006693689601226455,0.5862905979156494
162,0.9599450826644897,0.9256290793418884,71.15384615384616,85.71428571428571,84.61538461538461,85.71428571428571,0.0006840622763423387,0.5967943668365479
163,0.9671382904052734,1.4808025360107422,82.6923076923077,57.142857142857146,84.61538461538461,85.71428571428571,0.00069857394531739,0.588740348815918
164,1.1894363164901733,1.2636538743972778,71.15384615384616,71.42857142857143,88.46153846153847,71.42857142857143,0.0007128896457825359,0.6104185581207275
165,0.955634593963623,0.6748340129852295,82.6923076923077,92.85714285714286,88.46153846153847,85.71428571428571,0.0007269952498697729,0.5881521701812744
166,1.19401216506958,1.1162190437316895,75.0,85.71428571428571,82.6923076923077,78.57142857142857,0.0007408768370508579,0.584456205368042
167,1.1851751804351807,1.1659905910491943,73.07692307692308,71.42857142857143,84.61538461538461,78.57142857142857,0.0007545207078751859,0.5893661975860596
168,1.1927173733711243,1.2515997886657715,71.15384615384616,71.42857142857143,86.53846153846153,78.57142857142857,0.0007679133974894986,0.5891866683959961
169,1.2794979810714722,0.6740643978118896,61.53846153846154,92.85714285714286,86.53846153846153,85.71428571428571,0.0007810416889260655,0.5987105369567871
170,1.0569275915622711,0.9725701212882996,78.84615384615384,85.71428571428571,86.53846153846153,71.42857142857143,0.0007938926261462367,0.5858397483825684
171,1.0302717685699463,1.2161712646484375,80.76923076923077,50.0,86.53846153846153,85.71428571428571,0.0008064535268264883,0.5934689044952393
172,1.0823175311088562,1.0942884683609009,73.07692307692308,71.42857142857143,84.61538461538461,78.57142857142857,0.0008187119948743449,0.5888597965240479
173,1.2440282702445984,1.305478811264038,69.23076923076923,71.42857142857143,84.61538461538461,78.57142857142857,0.0008306559326618259,0.5881426334381104
174,1.143336296081543,1.1232726573944092,71.15384615384616,78.57142857142857,86.53846153846153,85.71428571428571,0.0008422735529643441,0.5931036472320557
175,1.0471614003181458,1.1061999797821045,71.15384615384616,85.71428571428571,82.6923076923077,71.42857142857143,0.0008535533905932735,0.5876843929290771
176,1.1940010786056519,0.9178069829940796,71.15384615384616,92.85714285714286,84.61538461538461,71.42857142857143,0.0008644843137107058,0.593022346496582
177,0.9446755647659302,1.4013664722442627,88.46153846153847,64.28571428571429,90.38461538461539,78.57142857142857,0.0008750555348152301,0.590073823928833
178,1.1494184732437134,0.9375163316726685,75.0,85.71428571428571,88.46153846153847,71.42857142857143,0.0008852566213878949,0.584437370300293
179,0.983731746673584,0.9025152921676636,78.84615384615384,92.85714285714286,88.46153846153847,78.57142857142857,0.0008950775061878453,0.5944221019744873
180,1.0225281715393066,1.1266934871673584,80.76923076923077,78.57142857142857,86.53846153846153,78.57142857142857,0.0009045084971874741,0.5946526527404785
181,1.082870066165924,1.5930328369140625,76.92307692307692,57.142857142857146,90.38461538461539,78.57142857142857,0.0009135402871372812,0.593062162399292
182,1.0476008653640747,1.2883673906326294,76.92307692307692,64.28571428571429,84.61538461538461,85.71428571428571,0.0009221639627510079,0.5884213447570801
183,1.065700888633728,0.9554761648178101,75.0,78.57142857142857,88.46153846153847,78.57142857142857,0.000930371013501972,0.5933420658111572
184,0.8576474189758301,0.6384912133216858,82.6923076923077,92.85714285714286,90.38461538461539,78.57142857142857,0.000938153340021932,0.5940520763397217
185,0.9054440855979919,1.1056265830993652,82.6923076923077,85.71428571428571,90.38461538461539,64.28571428571429,0.0009455032620941843,0.5891389846801758
186,0.953038901090622,1.0280314683914185,82.6923076923077,85.71428571428571,82.6923076923077,92.85714285714286,0.0009524135262330102,0.5879948139190674
187,1.1277271509170532,0.9899850487709045,71.15384615384616,85.71428571428571,84.61538461538461,85.71428571428571,0.0009588773128419913,0.5877430438995361
188,0.9574534296989441,1.2342565059661865,78.84615384615384,78.57142857142857,86.53846153846153,92.85714285714286,0.0009648882429441262,0.5878093242645264
189,1.0311822891235352,1.2832553386688232,80.76923076923077,71.42857142857143,90.38461538461539,92.85714285714286,0.0009704403844771133,0.5930898189544678
190,0.9764932692050934,0.9343725442886353,86.53846153846153,85.71428571428571,88.46153846153847,71.42857142857143,0.0009755282581475773,0.5875372886657715
191,1.1095550656318665,1.0864722728729248,78.84615384615384,85.71428571428571,86.53846153846153,85.71428571428571,0.000980146842838472,0.5914323329925537
192,0.9956387579441071,1.004547119140625,80.76923076923077,85.71428571428571,86.53846153846153,71.42857142857143,0.0009842915805643162,0.5886478424072266
193,1.3164864778518677,0.7384546995162964,71.15384615384616,92.85714285714286,82.6923076923077,78.57142857142857,0.0009879583809693743,0.5965735912322998
194,1.0791223049163818,1.0133061408996582,76.92307692307692,85.71428571428571,92.3076923076923,64.28571428571429,0.000991143625364345,0.5898251533508301
195,1.2455913424491882,1.0564205646514893,73.07692307692308,78.57142857142857,94.23076923076923,92.85714285714286,0.0009938441702975695,0.5885460376739502
196,0.9278743267059326,1.13018798828125,80.76923076923077,78.57142857142857,90.38461538461539,78.57142857142857,0.0009960573506572394,0.594496488571167
197,0.9637403786182404,0.813920259475708,82.6923076923077,85.71428571428571,90.38461538461539,78.57142857142857,0.0009977809823015407,0.5906105041503906
198,1.153193175792694,1.2395555973052979,67.3076923076923,71.42857142857143,82.6923076923077,85.71428571428571,0.0009990133642141365,0.5978512763977051
199,1.0090400576591492,0.9140684604644775,80.76923076923077,92.85714285714286,86.53846153846153,71.42857142857143,0.0009997532801828664,0.5916757583618164
200,1.2577763199806213,1.0376607179641724,71.15384615384616,71.42857142857143,82.6923076923077,78.57142857142857,0.0010000000000000007,0.5871868133544922
201,1.2455356121063232,0.8723821640014648,67.3076923076923,85.71428571428571,84.61538461538461,71.42857142857143,0.0009997532801828664,0.5899806022644043
202,1.084127426147461,1.194906234741211,78.84615384615384,71.42857142857143,88.46153846153847,85.71428571428571,0.0009990133642141365,0.5961208343505859
203,1.200675368309021,0.884352445602417,67.3076923076923,78.57142857142857,90.38461538461539,78.57142857142857,0.0009977809823015407,0.5886120796203613
204,1.288426399230957,1.4722864627838135,61.53846153846154,57.142857142857146,86.53846153846153,85.71428571428571,0.0009960573506572396,0.5892605781555176
205,1.1373530626296997,1.5311150550842285,69.23076923076923,57.142857142857146,90.38461538461539,78.57142857142857,0.0009938441702975695,0.5939412117004395
206,1.2389304041862488,1.203285574913025,67.3076923076923,71.42857142857143,86.53846153846153,85.71428571428571,0.000991143625364345,0.5899381637573242
207,1.0882245898246765,0.9921280145645142,67.3076923076923,78.57142857142857,88.46153846153847,85.71428571428571,0.0009879583809693743,0.5886085033416748
208,0.9500232934951782,1.3212846517562866,80.76923076923077,71.42857142857143,86.53846153846153,78.57142857142857,0.000984291580564316,0.5870606899261475
209,1.125805914402008,1.1877152919769287,73.07692307692308,71.42857142857143,88.46153846153847,85.71428571428571,0.000980146842838472,0.587451696395874
210,1.0743691325187683,1.5290143489837646,82.6923076923077,57.142857142857146,86.53846153846153,78.57142857142857,0.0009755282581475773,0.5950932502746582
211,1.161089539527893,1.4827748537063599,78.84615384615384,50.0,82.6923076923077,85.71428571428571,0.0009704403844771134,0.5901148319244385
212,1.0589747428894043,0.9269754886627197,80.76923076923077,85.71428571428571,84.61538461538461,78.57142857142857,0.0009648882429441263,0.5918936729431152
213,1.1077471375465393,1.2067495584487915,73.07692307692308,57.142857142857146,86.53846153846153,92.85714285714286,0.000958877312841991,0.5945529937744141
214,1.2233408689498901,1.0122926235198975,63.46153846153846,71.42857142857143,84.61538461538461,85.71428571428571,0.0009524135262330103,0.5952086448669434
215,1.1260963082313538,1.0103795528411865,71.15384615384616,78.57142857142857,86.53846153846153,100.0,0.0009455032620941846,0.5939352512359619
216,1.08270663022995,0.9563695192337036,71.15384615384616,85.71428571428571,92.3076923076923,64.28571428571429,0.0009381533400219324,0.5955555438995361
217,0.9226991236209869,1.1510401964187622,82.6923076923077,78.57142857142857,92.3076923076923,64.28571428571429,0.0009303710135019726,0.5992965698242188
218,1.1736294031143188,1.188745379447937,69.23076923076923,64.28571428571429,88.46153846153847,71.42857142857143,0.0009221639627510083,0.5897982120513916
219,1.1199074983596802,1.1254587173461914,76.92307692307692,78.57142857142857,82.6923076923077,78.57142857142857,0.0009135402871372813,0.5926685333251953
220,0.8472634553909302,1.3527507781982422,88.46153846153847,57.142857142857146,90.38461538461539,78.57142857142857,0.0009045084971874742,0.5927813053131104
221,1.0533862709999084,1.0184403657913208,76.92307692307692,71.42857142857143,86.53846153846153,85.71428571428571,0.0008950775061878455,0.5938093662261963
222,1.006313443183899,1.093589186668396,78.84615384615384,71.42857142857143,90.38461538461539,71.42857142857143,0.000885256621387895,0.5979506969451904
223,1.0787319540977478,1.096346139907837,73.07692307692308,71.42857142857143,80.76923076923077,78.57142857142857,0.0008750555348152302,0.5870602130889893
224,1.001173496246338,0.9398550391197205,82.6923076923077,71.42857142857143,92.3076923076923,92.85714285714286,0.0008644843137107062,0.5935764312744141
225,1.0762848854064941,1.1179397106170654,73.07692307692308,71.42857142857143,86.53846153846153,78.57142857142857,0.0008535533905932743,0.5919129848480225
226,1.1555043458938599,1.5381015539169312,71.15384615384616,64.28571428571429,94.23076923076923,100.0,0.0008422735529643449,0.596184253692627
227,0.9781976044178009,1.034917950630188,78.84615384615384,71.42857142857143,92.3076923076923,92.85714285714286,0.0008306559326618266,0.593677282333374
228,1.0958598852157593,0.9648887515068054,71.15384615384616,78.57142857142857,84.61538461538461,78.57142857142857,0.0008187119948743455,0.5911197662353516
229,1.1202818751335144,0.8510942459106445,73.07692307692308,92.85714285714286,78.84615384615384,71.42857142857143,0.0008064535268264891,0.5901312828063965
230,1.0180846452713013,1.027767539024353,76.92307692307692,64.28571428571429,88.46153846153847,78.57142857142857,0.0007938926261462368,0.5844225883483887
231,1.0082175731658936,0.8257734775543213,69.23076923076923,78.57142857142857,90.38461538461539,85.71428571428571,0.0007810416889260656,0.5926671028137207
232,1.0128271579742432,0.9261918067932129,73.07692307692308,78.57142857142857,92.3076923076923,92.85714285714286,0.0007679133974894987,0.592695951461792
233,0.8856954276561737,0.9852989315986633,82.6923076923077,71.42857142857143,90.38461538461539,71.42857142857143,0.0007545207078751862,0.5915756225585938
234,0.9895619750022888,1.3504526615142822,76.92307692307692,64.28571428571429,88.46153846153847,78.57142857142857,0.0007408768370508582,0.587655782699585
235,0.8599647581577301,1.0137689113616943,76.92307692307692,78.57142857142857,92.3076923076923,78.57142857142857,0.000726995249869774,0.5898823738098145
236,1.0262300670146942,0.9473471641540527,73.07692307692308,78.57142857142857,90.38461538461539,78.57142857142857,0.0007128896457825371,0.5858485698699951
237,1.0733215808868408,0.659870982170105,69.23076923076923,92.85714285714286,88.46153846153847,85.71428571428571,0.0006985739453173912,0.5896885395050049
238,0.8341672420501709,0.8912994861602783,84.61538461538461,92.85714285714286,94.23076923076923,71.42857142857143,0.00068406227634234,0.5926568508148193
239,0.9193068444728851,0.8147820234298706,80.76923076923077,92.85714285714286,90.38461538461539,85.71428571428571,0.0006693689601226468,0.5911753177642822
240,0.9475173950195312,0.7674652934074402,76.92307692307692,92.85714285714286,92.3076923076923,85.71428571428571,0.0006545084971874749,0.5910837650299072
241,1.015386164188385,1.6227654218673706,80.76923076923077,64.28571428571429,82.6923076923077,71.42857142857143,0.000639495553019615,0.5958743095397949
242,0.9995098114013672,0.9630463719367981,75.0,92.85714285714286,86.53846153846153,64.28571428571429,0.0006243449435824279,0.5905575752258301
243,0.8797497153282166,1.1816602945327759,82.6923076923077,71.42857142857143,88.46153846153847,92.85714285714286,0.0006090716206982718,0.5918312072753906
244,1.114215075969696,1.2391103506088257,71.15384615384616,64.28571428571429,90.38461538461539,85.71428571428571,0.000593690657292863,0.587923526763916
245,0.8596625328063965,0.8217307329177856,80.76923076923077,85.71428571428571,90.38461538461539,85.71428571428571,0.0005782172325201161,0.5898163318634033
246,0.9993066787719727,0.8497719168663025,76.92307692307692,92.85714285714286,84.61538461538461,85.71428571428571,0.0005626666167821529,0.5977892875671387
247,0.8449074327945709,1.0019869804382324,82.6923076923077,71.42857142857143,90.38461538461539,85.71428571428571,0.000547054156659258,0.593926191329956
248,0.8923100233078003,0.8482988476753235,88.46153846153847,85.71428571428571,88.46153846153847,78.57142857142857,0.0005313952597646575,0.5913639068603516
249,0.9099139273166656,1.0550252199172974,84.61538461538461,64.28571428571429,86.53846153846153,85.71428571428571,0.0005157053795390652,0.60276198387146
250,0.8488589525222778,0.838821530342102,86.53846153846153,78.57142857142857,84.61538461538461,85.71428571428571,0.000500000000000001,0.5947678089141846
251,0.8820977210998535,0.5868355631828308,76.92307692307692,100.0,90.38461538461539,92.85714285714286,0.000484294620460936,0.5944669246673584
252,0.837315708398819,1.295204997062683,84.61538461538461,64.28571428571429,90.38461538461539,92.85714285714286,0.0004686047402353436,0.5922520160675049
253,0.9150024354457855,1.179516315460205,80.76923076923077,64.28571428571429,92.3076923076923,78.57142857142857,0.00045294584334074317,0.598670244216919
254,0.8258010149002075,0.9649468660354614,88.46153846153847,78.57142857142857,92.3076923076923,85.71428571428571,0.0004373333832178482,0.594294548034668
255,0.9230839908123016,0.7756711840629578,78.84615384615384,85.71428571428571,88.46153846153847,85.71428571428571,0.0004217827674798846,0.5905005931854248
256,1.0872663259506226,1.1060082912445068,73.07692307692308,71.42857142857143,82.6923076923077,100.0,0.0004063093427071378,0.5959985256195068
257,1.124394953250885,1.7293970584869385,71.15384615384616,71.42857142857143,88.46153846153847,78.57142857142857,0.0003909283793017289,0.5916485786437988
258,0.8563317060470581,1.1316840648651123,80.76923076923077,71.42857142857143,88.46153846153847,78.57142857142857,0.0003756550564175728,0.5923094749450684
259,1.0159362852573395,1.0446867942810059,73.07692307692308,85.71428571428571,86.53846153846153,71.42857142857143,0.00036050444698038564,0.5943822860717773
260,0.9063892066478729,0.5744104385375977,80.76923076923077,100.0,90.38461538461539,85.71428571428571,0.00034549150281252666,0.597693681716919
261,0.9007600545883179,0.8037067651748657,86.53846153846153,85.71428571428571,88.46153846153847,85.71428571428571,0.00033063103987735474,0.589339017868042
262,0.9371107220649719,1.0277323722839355,80.76923076923077,85.71428571428571,86.53846153846153,92.85714285714286,0.00031593772365766154,0.5951297283172607
263,0.7675867676734924,0.6672780513763428,88.46153846153847,85.71428571428571,90.38461538461539,85.71428571428571,0.00030142605468260944,0.5975246429443359
264,0.8774668574333191,1.0043551921844482,84.61538461538461,78.57142857142857,88.46153846153847,71.42857142857143,0.0002871103542174635,0.5917010307312012
265,0.9574765861034393,0.7434427738189697,75.0,85.71428571428571,88.46153846153847,78.57142857142857,0.0002730047501302265,0.5919032096862793
266,0.7966419458389282,0.7921617031097412,86.53846153846153,85.71428571428571,92.3076923076923,100.0,0.00025912316294914234,0.6136593818664551
267,0.8382408916950226,0.7815423011779785,80.76923076923077,85.71428571428571,92.3076923076923,85.71428571428571,0.00024547929212481446,0.592411994934082
268,0.7740285396575928,0.7532667517662048,84.61538461538461,92.85714285714286,88.46153846153847,85.71428571428571,0.00023208660251050186,0.5905547142028809
269,0.8212968409061432,0.7349725961685181,82.6923076923077,92.85714285714286,94.23076923076923,85.71428571428571,0.00021895831107393495,0.6017954349517822
270,0.8604914546012878,1.0953128337860107,82.6923076923077,85.71428571428571,88.46153846153847,85.71428571428571,0.00020610737385376373,0.5946578979492188
271,0.8526328802108765,1.0658888816833496,88.46153846153847,78.57142857142857,88.46153846153847,78.57142857142857,0.00019354647317351215,0.5919919013977051
272,0.6704278588294983,0.6885360479354858,96.15384615384616,92.85714285714286,88.46153846153847,71.42857142857143,0.0001812880051256549,0.6000502109527588
273,0.673549234867096,1.2903728485107422,90.38461538461539,71.42857142857143,90.38461538461539,71.42857142857143,0.00016934406733817387,0.5921390056610107
274,0.776310533285141,0.7952641248703003,86.53846153846153,92.85714285714286,92.3076923076923,71.42857142857143,0.00015772644703565558,0.589423656463623
275,0.7560938894748688,0.9689359664916992,92.3076923076923,85.71428571428571,88.46153846153847,78.57142857142857,0.0001464466094067262,0.5944921970367432
276,0.9793071150779724,0.8493144512176514,82.6923076923077,85.71428571428571,86.53846153846153,71.42857142857143,0.00013551568628929425,0.5943727493286133
277,0.7683711349964142,1.4185149669647217,88.46153846153847,78.57142857142857,88.46153846153847,71.42857142857143,0.00012494446518477028,0.590846061706543
278,0.8949820697307587,0.9759248495101929,80.76923076923077,78.57142857142857,86.53846153846153,71.42857142857143,0.00011474337861210549,0.5842671394348145
279,1.0312204658985138,0.916705846786499,78.84615384615384,78.57142857142857,92.3076923076923,78.57142857142857,0.00010492249381215495,0.5950698852539062
280,0.6989934146404266,0.8081877827644348,88.46153846153847,85.71428571428571,88.46153846153847,85.71428571428571,9.549150281252649e-05,0.5887360572814941
281,0.9243370592594147,1.0333828926086426,78.84615384615384,85.71428571428571,84.61538461538461,78.57142857142857,8.645971286271934e-05,0.5969488620758057
282,0.9298567771911621,0.6580510139465332,80.76923076923077,92.85714285714286,88.46153846153847,85.71428571428571,7.783603724899271e-05,0.5939726829528809
283,0.7809391617774963,1.0773959159851074,86.53846153846153,92.85714285714286,86.53846153846153,78.57142857142857,6.962898649802803e-05,0.600222110748291
284,0.8607488572597504,0.8521902561187744,80.76923076923077,78.57142857142857,84.61538461538461,85.71428571428571,6.18466599780681e-05,0.5930819511413574
285,0.706027626991272,0.8246031999588013,88.46153846153847,92.85714285714286,88.46153846153847,85.71428571428571,5.4496737905815994e-05,0.5925579071044922
286,0.8226476162672043,1.3152235746383667,80.76923076923077,71.42857142857143,96.15384615384616,92.85714285714286,4.7586473766990206e-05,0.598341703414917
287,0.7745573222637177,1.275617241859436,88.46153846153847,85.71428571428571,88.46153846153847,85.71428571428571,4.112268715800942e-05,0.5900595188140869
288,0.8069431185722351,1.090446949005127,82.6923076923077,85.71428571428571,92.3076923076923,78.57142857142857,3.5111757055874305e-05,0.5976336002349854
289,0.7225441932678223,0.8938660621643066,94.23076923076923,78.57142857142857,88.46153846153847,85.71428571428571,2.9559615522887304e-05,0.5994372367858887
290,0.7592581510543823,0.7266668677330017,88.46153846153847,85.71428571428571,90.38461538461539,85.71428571428571,2.4471741852423316e-05,0.592332124710083
291,0.8985933363437653,0.8103518486022949,88.46153846153847,85.71428571428571,90.38461538461539,85.71428571428571,1.9853157161528543e-05,0.5921139717102051
292,0.8174819648265839,0.6497181057929993,86.53846153846153,92.85714285714286,94.23076923076923,85.71428571428571,1.5708419435684534e-05,0.5862350463867188
293,0.7437768578529358,1.2082641124725342,88.46153846153847,71.42857142857143,82.6923076923077,85.71428571428571,1.2041619030626406e-05,0.5901634693145752
294,0.9697253704071045,1.0589895248413086,78.84615384615384,64.28571428571429,88.46153846153847,78.57142857142857,8.856374635655593e-06,0.5858361721038818
295,0.8005103468894958,0.9319553375244141,88.46153846153847,78.57142857142857,90.38461538461539,78.57142857142857,6.155829702431122e-06,0.5882117748260498
296,0.7368733882904053,1.2333159446716309,88.46153846153847,71.42857142857143,88.46153846153847,85.71428571428571,3.9426493427610665e-06,0.5855715274810791
297,0.8284353613853455,0.9724149703979492,82.6923076923077,78.57142857142857,90.38461538461539,78.57142857142857,2.2190176984600044e-06,0.5905230045318604
298,0.8565497100353241,1.0497239828109741,84.61538461538461,78.57142857142857,94.23076923076923,71.42857142857143,9.866357858642217e-07,0.5928752422332764
299,0.9246383309364319,1.0014511346817017,84.61538461538461,85.71428571428571,86.53846153846153,78.57142857142857,2.4671981713420025e-07,0.594017505645752
300,0.6615668535232544,1.0024337768554688,92.3076923076923,85.71428571428571,90.38461538461539,85.71428571428571,0.0,0.587540864944458
301,0.7983818352222443,0.8321318626403809,86.53846153846153,78.57142857142857,90.38461538461539,92.85714285714286,2.467198171342e-07,0.5948166847229004
302,0.6888793408870697,0.6996574401855469,90.38461538461539,92.85714285714286,90.38461538461539,78.57142857142857,9.866357858642204e-07,0.5973813533782959
303,0.7843104898929596,0.9080944061279297,80.76923076923077,92.85714285714286,90.38461538461539,85.71428571428571,2.2190176984599464e-06,0.5950450897216797
304,0.9405984878540039,0.6309531927108765,80.76923076923077,92.85714285714286,88.46153846153847,85.71428571428571,3.942649342761006e-06,0.5900835990905762
305,0.8857492208480835,0.9701594114303589,84.61538461538461,78.57142857142857,86.53846153846153,85.71428571428571,6.155829702431169e-06,0.5938870906829834
306,0.7487831115722656,0.8005547523498535,92.3076923076923,92.85714285714286,86.53846153846153,85.71428571428571,8.856374635655693e-06,0.5886785984039307
307,0.8195754289627075,1.0291231870651245,84.61538461538461,85.71428571428571,88.46153846153847,85.71428571428571,1.2041619030626337e-05,0.5913195610046387
308,0.6535399258136749,0.8318639993667603,94.23076923076923,85.71428571428571,86.53846153846153,85.71428571428571,1.570841943568446e-05,0.5938270092010498
309,0.6964020729064941,0.9307727217674255,92.3076923076923,71.42857142857143,92.3076923076923,78.57142857142857,1.9853157161528408e-05,0.5950818061828613
310,0.6992040574550629,0.8790522813796997,88.46153846153847,85.71428571428571,96.15384615384616,85.71428571428571,2.4471741852423174e-05,0.5900402069091797
311,0.845483660697937,0.8806610107421875,80.76923076923077,78.57142857142857,88.46153846153847,78.57142857142857,2.9559615522887152e-05,0.591256856918335
312,0.9046460390090942,0.5360218286514282,80.76923076923077,100.0,92.3076923076923,92.85714285714286,3.511175705587414e-05,0.5887200832366943
313,0.7604819536209106,1.2720873355865479,80.76923076923077,71.42857142857143,88.46153846153847,92.85714285714286,4.112268715800924e-05,0.591712236404419
314,0.7889501452445984,0.9752366542816162,84.61538461538461,78.57142857142857,94.23076923076923,92.85714285714286,4.758647376698997e-05,0.5902140140533447
315,0.6535568535327911,1.0008240938186646,92.3076923076923,78.57142857142857,94.23076923076923,78.57142857142857,5.449673790581614e-05,0.5922651290893555
316,0.9604157507419586,0.7921508550643921,78.84615384615384,85.71428571428571,94.23076923076923,85.71428571428571,6.184665997806823e-05,0.5912401676177979
317,0.8154546916484833,0.932016134262085,82.6923076923077,85.71428571428571,92.3076923076923,92.85714285714286,6.96289864980282e-05,0.610234260559082
318,0.6674806773662567,1.2210925817489624,92.3076923076923,78.57142857142857,94.23076923076923,78.57142857142857,7.783603724899242e-05,0.5998926162719727
319,0.7030077874660492,1.09234619140625,90.38461538461539,85.71428571428571,90.38461538461539,92.85714285714286,8.645971286271898e-05,0.589918851852417
320,0.6463043093681335,0.7641663551330566,92.3076923076923,85.71428571428571,90.38461538461539,78.57142857142857,9.54915028125261e-05,0.5941784381866455
321,0.9950342178344727,0.6963156461715698,78.84615384615384,92.85714285714286,92.3076923076923,85.71428571428571,0.00010492249381215455,0.5877857208251953
322,0.7667713165283203,0.763624906539917,82.6923076923077,85.71428571428571,94.23076923076923,78.57142857142857,0.00011474337861210506,0.5881345272064209
323,0.8576642870903015,1.1101534366607666,88.46153846153847,92.85714285714286,84.61538461538461,71.42857142857143,0.00012494446518476982,0.5883369445800781
324,0.7425022125244141,1.2791632413864136,90.38461538461539,78.57142857142857,96.15384615384616,64.28571428571429,0.0001355156862892937,0.5901355743408203
325,0.7838533222675323,0.8807954788208008,84.61538461538461,92.85714285714286,92.3076923076923,64.28571428571429,0.00014644660940672563,0.5931301116943359
326,0.8577827215194702,0.7226003408432007,78.84615384615384,92.85714285714286,90.38461538461539,92.85714285714286,0.000157726447035655,0.5849988460540771
327,0.7474381327629089,1.0710715055465698,90.38461538461539,78.57142857142857,90.38461538461539,92.85714285714286,0.00016934406733817395,0.5936563014984131
328,0.7729958891868591,0.6249448657035828,90.38461538461539,85.71428571428571,84.61538461538461,92.85714285714286,0.0001812880051256543,0.5867209434509277
329,0.8504363894462585,1.4148883819580078,84.61538461538461,64.28571428571429,86.53846153846153,78.57142857142857,0.00019354647317351147,0.5910639762878418
330,0.7290692329406738,1.0761313438415527,84.61538461538461,78.57142857142857,88.46153846153847,71.42857142857143,0.00020610737385376234,0.5901222229003906
331,0.8235968947410583,1.0184428691864014,88.46153846153847,71.42857142857143,88.46153846153847,78.57142857142857,0.00021895831107393427,0.5872354507446289
332,0.8920205533504486,0.7697582840919495,88.46153846153847,92.85714285714286,84.61538461538461,85.71428571428571,0.00023208660251050189,0.5950851440429688
333,0.7406664490699768,0.7812666893005371,86.53846153846153,92.85714285714286,92.3076923076923,78.57142857142857,0.0002454792921248137,0.5858602523803711
334,0.6549367308616638,0.9898076057434082,94.23076923076923,71.42857142857143,88.46153846153847,85.71428571428571,0.00025912316294914234,0.5886924266815186
335,0.8620774745941162,0.7813071012496948,84.61538461538461,92.85714285714286,90.38461538461539,71.42857142857143,0.0002730047501302257,0.5889027118682861
336,0.6584451794624329,0.7192994952201843,92.3076923076923,92.85714285714286,88.46153846153847,78.57142857142857,0.00028711035421746345,0.5906233787536621
337,0.737749457359314,0.9396689534187317,86.53846153846153,85.71428571428571,90.38461538461539,78.57142857142857,0.0003014260546826086,0.5949137210845947
338,0.9276667535305023,0.9966683983802795,78.84615384615384,85.71428571428571,90.38461538461539,78.57142857142857,0.00031593772365766056,0.5947093963623047
339,0.7345144152641296,1.100517988204956,86.53846153846153,78.57142857142857,94.23076923076923,78.57142857142857,0.0003306310398773529,0.5912072658538818
340,0.8641503155231476,1.000547170639038,80.76923076923077,85.71428571428571,88.46153846153847,71.42857142857143,0.0003454915028125255,0.5903303623199463
341,0.734917014837265,1.1049346923828125,90.38461538461539,78.57142857142857,92.3076923076923,78.57142857142857,0.0003605044469803837,0.5922760963439941
342,0.5900784432888031,0.6164259910583496,94.23076923076923,92.85714285714286,90.38461538461539,78.57142857142857,0.00037565505641757175,0.5874311923980713
343,0.8510251045227051,0.890155553817749,84.61538461538461,85.71428571428571,94.23076923076923,85.71428571428571,0.0003909283793017286,0.586726188659668
344,0.7090621590614319,0.8343777656555176,92.3076923076923,92.85714285714286,90.38461538461539,71.42857142857143,0.00040630934270713664,0.5925860404968262
345,0.9464519917964935,0.5959950685501099,73.07692307692308,100.0,94.23076923076923,78.57142857142857,0.00042178276747988427,0.588632345199585
346,0.8600752651691437,0.7138973474502563,86.53846153846153,92.85714285714286,90.38461538461539,71.42857142857143,0.0004373333832178466,0.5947756767272949
347,0.8846205174922943,1.6163742542266846,84.61538461538461,78.57142857142857,86.53846153846153,64.28571428571429,0.00045294584334074235,0.5931758880615234
348,0.8350669145584106,0.9225497245788574,82.6923076923077,78.57142857142857,92.3076923076923,78.57142857142857,0.0004686047402353418,0.5869307518005371
349,0.7868392169475555,0.7565962672233582,86.53846153846153,85.71428571428571,88.46153846153847,78.57142857142857,0.00048429462046093515,0.5915522575378418
350,1.0496774315834045,1.4200334548950195,78.84615384615384,64.28571428571429,84.61538461538461,71.42857142857143,0.0004999999999999983,0.5940179824829102
351,1.1330729722976685,1.347605586051941,78.84615384615384,64.28571428571429,82.6923076923077,71.42857142857143,0.0005157053795390631,0.5935235023498535
352,0.9054474830627441,0.8318208456039429,80.76923076923077,92.85714285714286,88.46153846153847,78.57142857142857,0.0005313952597646556,0.5902488231658936
353,1.051682472229004,1.4382634162902832,78.84615384615384,64.28571428571429,90.38461538461539,71.42857142857143,0.0005470541566592559,0.5986130237579346
354,0.7497034072875977,0.6564149260520935,86.53846153846153,85.71428571428571,94.23076923076923,92.85714285714286,0.0005626666167821516,0.593543291091919
355,0.848154753446579,0.7728181481361389,80.76923076923077,85.71428571428571,88.46153846153847,78.57142857142857,0.000578217232520114,0.5946440696716309
356,1.053076684474945,0.6037187576293945,75.0,92.85714285714286,96.15384615384616,78.57142857142857,0.0005936906572928615,0.5949041843414307
357,0.8902848958969116,1.0880476236343384,84.61538461538461,71.42857142857143,88.46153846153847,78.57142857142857,0.0006090716206982696,0.5918922424316406
358,0.8152087330818176,1.1418209075927734,82.6923076923077,64.28571428571429,90.38461538461539,78.57142857142857,0.0006243449435824264,0.593142032623291
359,0.7890800833702087,0.806428849697113,78.84615384615384,92.85714285714286,92.3076923076923,100.0,0.0006394955530196126,0.5880770683288574
360,0.7952861785888672,1.034360408782959,86.53846153846153,78.57142857142857,90.38461538461539,85.71428571428571,0.0006545084971874727,0.5934844017028809
361,0.8438464999198914,1.6479904651641846,86.53846153846153,64.28571428571429,92.3076923076923,92.85714285714286,0.0006693689601226445,0.5972716808319092
362,0.8444887697696686,1.339426040649414,78.84615384615384,78.57142857142857,94.23076923076923,78.57142857142857,0.0006840622763423378,0.597327709197998
363,0.846282571554184,1.4511901140213013,78.84615384615384,71.42857142857143,88.46153846153847,71.42857142857143,0.0006985739453173898,0.5948820114135742
364,0.8155279457569122,0.9835118055343628,86.53846153846153,78.57142857142857,92.3076923076923,85.71428571428571,0.0007128896457825348,0.5958149433135986
365,0.8158107995986938,0.9107663631439209,88.46153846153847,85.71428571428571,86.53846153846153,71.42857142857143,0.0007269952498697726,0.5969147682189941
366,0.7598929703235626,0.9486474990844727,86.53846153846153,85.71428571428571,94.23076923076923,85.71428571428571,0.0007408768370508559,0.5888478755950928
367,0.817263662815094,0.7264338731765747,82.6923076923077,92.85714285714286,86.53846153846153,85.71428571428571,0.0007545207078751845,0.5971353054046631
368,0.7348143756389618,0.8465590476989746,88.46153846153847,85.71428571428571,94.23076923076923,78.57142857142857,0.0007679133974894963,0.594245433807373
369,0.7714044153690338,0.8362979888916016,86.53846153846153,85.71428571428571,84.61538461538461,64.28571428571429,0.0007810416889260641,0.5896034240722656
370,0.8551110625267029,1.1555454730987549,82.6923076923077,78.57142857142857,86.53846153846153,78.57142857142857,0.0007938926261462354,0.5940425395965576
371,0.7590084373950958,0.8033716678619385,88.46153846153847,92.85714285714286,92.3076923076923,78.57142857142857,0.0008064535268264869,0.5881586074829102
372,0.8031436204910278,0.740624189376831,84.61538461538461,85.71428571428571,88.46153846153847,85.71428571428571,0.0008187119948743434,0.6103272438049316
373,0.709985762834549,0.8545721769332886,90.38461538461539,85.71428571428571,92.3076923076923,78.57142857142857,0.0008306559326618243,0.5962374210357666
374,0.7767494916915894,0.8629988431930542,82.6923076923077,85.71428571428571,94.23076923076923,64.28571428571429,0.0008422735529643434,0.5912232398986816
375,0.8576001524925232,0.8401453495025635,82.6923076923077,85.71428571428571,94.23076923076923,85.71428571428571,0.0008535533905932721,0.5897533893585205
376,0.8215830326080322,1.3948806524276733,84.61538461538461,71.42857142857143,90.38461538461539,85.71428571428571,0.0008644843137107048,0.588144063949585
377,0.6828271746635437,0.7853183746337891,86.53846153846153,85.71428571428571,90.38461538461539,85.71428571428571,0.0008750555348152279,0.5910186767578125
378,0.6380828619003296,0.9067745208740234,92.3076923076923,85.71428571428571,90.38461538461539,85.71428571428571,0.0008852566213878934,0.5971901416778564
379,0.9049098193645477,0.9809349775314331,80.76923076923077,78.57142857142857,86.53846153846153,78.57142857142857,0.0008950775061878439,0.5930190086364746
380,0.7760637104511261,0.8778560161590576,88.46153846153847,85.71428571428571,92.3076923076923,85.71428571428571,0.0009045084971874722,0.5980377197265625
381,0.9518663287162781,1.1125717163085938,82.6923076923077,78.57142857142857,92.3076923076923,78.57142857142857,0.0009135402871372796,0.5914363861083984
382,0.7994107007980347,0.919353723526001,88.46153846153847,71.42857142857143,88.46153846153847,85.71428571428571,0.0009221639627510062,0.5933535099029541
383,0.6946039795875549,0.8486809134483337,90.38461538461539,78.57142857142857,90.38461538461539,85.71428571428571,0.0009303710135019704,0.5952670574188232
384,0.8204677402973175,1.1485679149627686,88.46153846153847,85.71428571428571,90.38461538461539,71.42857142857143,0.0009381533400219304,0.5956649780273438
385,1.0863252878189087,1.4469884634017944,80.76923076923077,85.71428571428571,82.6923076923077,78.57142857142857,0.0009455032620941829,0.5904865264892578
386,0.9411669969558716,1.0313236713409424,88.46153846153847,85.71428571428571,84.61538461538461,85.71428571428571,0.0009524135262330084,0.5893723964691162
387,0.8244418799877167,0.8967143297195435,78.84615384615384,85.71428571428571,96.15384615384616,71.42857142857143,0.0009588773128419893,0.5972816944122314
388,0.7055046260356903,0.906063973903656,84.61538461538461,92.85714285714286,96.15384615384616,85.71428571428571,0.0009648882429441245,0.5934774875640869
389,0.7397811114788055,1.0685067176818848,80.76923076923077,78.57142857142857,98.07692307692308,85.71428571428571,0.0009704403844771113,0.5952944755554199
390,0.7949436008930206,0.9869533777236938,82.6923076923077,85.71428571428571,94.23076923076923,92.85714285714286,0.0009755282581475754,0.5927658081054688
391,0.7308147549629211,0.8337737321853638,84.61538461538461,92.85714285714286,90.38461538461539,78.57142857142857,0.0009801468428384701,0.5974488258361816
392,0.8009328842163086,1.1279802322387695,88.46153846153847,85.71428571428571,88.46153846153847,85.71428571428571,0.0009842915805643143,0.593874454498291
393,0.8793604373931885,0.8223896026611328,80.76923076923077,78.57142857142857,92.3076923076923,92.85714285714286,0.0009879583809693723,0.591102123260498
394,0.885313093662262,1.6063722372055054,78.84615384615384,64.28571428571429,88.46153846153847,85.71428571428571,0.0009911436253643429,0.592221736907959
395,0.960112601518631,1.1852986812591553,78.84615384615384,78.57142857142857,86.53846153846153,85.71428571428571,0.0009938441702975675,0.5881423950195312
396,0.8637520968914032,1.350594401359558,80.76923076923077,71.42857142857143,88.46153846153847,85.71428571428571,0.0009960573506572377,0.6009583473205566
397,0.7647751569747925,0.8080421686172485,88.46153846153847,78.57142857142857,86.53846153846153,92.85714285714286,0.0009977809823015387,0.5909695625305176
398,0.9178518056869507,1.1697657108306885,76.92307692307692,78.57142857142857,94.23076923076923,64.28571428571429,0.0009990133642141345,0.5876927375793457
399,0.8657060265541077,0.9523259401321411,76.92307692307692,85.71428571428571,88.46153846153847,78.57142857142857,0.0009997532801828645,0.5860645771026611
400,1.1936184763908386,0.7980746030807495,73.07692307692308,92.85714285714286,82.6923076923077,64.28571428571429,0.0009999999999999987,0.5869307518005371
401,0.88557368516922,0.6814604997634888,80.76923076923077,85.71428571428571,88.46153846153847,100.0,0.0009997532801828645,0.5932278633117676
402,0.9746465086936951,1.1158173084259033,78.84615384615384,71.42857142857143,84.61538461538461,92.85714285714286,0.0009990133642141345,0.5985476970672607
403,1.0304992198944092,1.1964397430419922,73.07692307692308,64.28571428571429,88.46153846153847,78.57142857142857,0.0009977809823015387,0.5976505279541016
404,1.3027406930923462,1.346989393234253,67.3076923076923,57.142857142857146,84.61538461538461,85.71428571428571,0.0009960573506572377,0.5911550521850586
405,1.0236709713935852,0.8111666440963745,73.07692307692308,85.71428571428571,82.6923076923077,92.85714285714286,0.0009938441702975677,0.5909442901611328
406,0.9436514973640442,0.972001314163208,80.76923076923077,71.42857142857143,84.61538461538461,92.85714285714286,0.000991143625364343,0.5958051681518555
407,1.0633668303489685,0.6685550212860107,75.0,85.71428571428571,92.3076923076923,100.0,0.0009879583809693725,0.5926117897033691
408,1.0528036952018738,0.9131201505661011,75.0,85.71428571428571,84.61538461538461,85.71428571428571,0.0009842915805643143,0.5991277694702148
409,1.005819022655487,0.7492832541465759,78.84615384615384,78.57142857142857,86.53846153846153,100.0,0.0009801468428384703,0.5908823013305664
410,0.8780072927474976,1.000840663909912,82.6923076923077,78.57142857142857,86.53846153846153,85.71428571428571,0.0009755282581475755,0.5964257717132568
411,0.8603123724460602,1.02750825881958,86.53846153846153,85.71428571428571,86.53846153846153,85.71428571428571,0.0009704403844771115,0.5895411968231201
412,0.8926532864570618,1.5340439081192017,75.0,57.142857142857146,92.3076923076923,78.57142857142857,0.0009648882429441247,0.5931391716003418
413,0.9383331537246704,1.3734087944030762,75.0,64.28571428571429,90.38461538461539,92.85714285714286,0.0009588773128419895,0.591296911239624
414,1.0544304251670837,2.0793802738189697,69.23076923076923,50.0,88.46153846153847,85.71428571428571,0.0009524135262330088,0.5910413265228271
415,0.9520589411258698,0.7854882478713989,65.38461538461539,85.71428571428571,88.46153846153847,85.71428571428571,0.0009455032620941826,0.5947122573852539
416,1.077460765838623,1.223159670829773,71.15384615384616,78.57142857142857,84.61538461538461,78.57142857142857,0.0009381533400219305,0.5909848213195801
417,1.0120916366577148,0.9410363435745239,78.84615384615384,78.57142857142857,82.6923076923077,78.57142857142857,0.0009303710135019706,0.5881006717681885
418,0.8304859101772308,1.0163494348526,86.53846153846153,85.71428571428571,90.38461538461539,78.57142857142857,0.0009221639627510065,0.5968942642211914
419,0.9504427909851074,0.7524111270904541,75.0,85.71428571428571,94.23076923076923,85.71428571428571,0.0009135402871372799,0.6042821407318115
420,0.8693192601203918,1.0663950443267822,82.6923076923077,85.71428571428571,86.53846153846153,78.57142857142857,0.0009045084971874728,0.5895588397979736
421,0.914330780506134,0.9414973855018616,84.61538461538461,78.57142857142857,88.46153846153847,78.57142857142857,0.0008950775061878442,0.591235876083374
422,0.759046733379364,1.070784330368042,92.3076923076923,71.42857142857143,84.61538461538461,85.71428571428571,0.0008852566213878938,0.5891988277435303
423,0.9886274337768555,1.0439105033874512,76.92307692307692,78.57142857142857,82.6923076923077,78.57142857142857,0.000875055534815229,0.589449405670166
424,0.9395817220211029,1.2289392948150635,76.92307692307692,78.57142857142857,92.3076923076923,78.57142857142857,0.0008644843137107044,0.5882339477539062
425,1.0694446563720703,1.3860235214233398,76.92307692307692,78.57142857142857,90.38461538461539,71.42857142857143,0.0008535533905932732,0.5929701328277588
426,1.00713649392128,1.332247257232666,71.15384615384616,71.42857142857143,86.53846153846153,85.71428571428571,0.0008422735529643432,0.5866029262542725
427,0.8596277832984924,1.1191160678863525,76.92307692307692,71.42857142857143,90.38461538461539,85.71428571428571,0.0008306559326618249,0.5890648365020752
428,0.938130646944046,1.4586859941482544,76.92307692307692,64.28571428571429,92.3076923076923,78.57142857142857,0.0008187119948743438,0.5942981243133545
429,1.048366755247116,0.7189209461212158,71.15384615384616,85.71428571428571,92.3076923076923,85.71428571428571,0.0008064535268264873,0.5918183326721191
430,1.15482759475708,0.8606849908828735,67.3076923076923,100.0,90.38461538461539,71.42857142857143,0.0007938926261462357,0.5919833183288574
431,0.7924975454807281,0.6029425859451294,84.61538461538461,92.85714285714286,98.07692307692308,92.85714285714286,0.0007810416889260646,0.5881521701812744
432,0.7793665528297424,1.3048255443572998,88.46153846153847,71.42857142857143,86.53846153846153,85.71428571428571,0.0007679133974894978,0.5929486751556396
433,0.8808296918869019,1.1000748872756958,84.61538461538461,71.42857142857143,88.46153846153847,78.57142857142857,0.0007545207078751844,0.5942399501800537
434,0.8189800977706909,1.0361980199813843,86.53846153846153,64.28571428571429,84.61538461538461,85.71428571428571,0.0007408768370508572,0.5929150581359863
435,0.8790313005447388,1.6226701736450195,84.61538461538461,71.42857142857143,94.23076923076923,64.28571428571429,0.0007269952498697724,0.5928747653961182
436,0.8647477626800537,1.717867136001587,80.76923076923077,71.42857142857143,86.53846153846153,85.71428571428571,0.0007128896457825362,0.5923194885253906
437,0.9634707272052765,1.4821597337722778,78.84615384615384,71.42857142857143,88.46153846153847,92.85714285714286,0.0006985739453173894,0.5915563106536865
438,0.7613756358623505,1.1438767910003662,86.53846153846153,64.28571428571429,94.23076923076923,85.71428571428571,0.0006840622763423383,0.5936689376831055
439,1.0618264079093933,1.1416373252868652,78.84615384615384,78.57142857142857,88.46153846153847,71.42857142857143,0.000669368960122645,0.5964498519897461
440,0.9825795292854309,0.963804304599762,78.84615384615384,92.85714285714286,90.38461538461539,78.57142857142857,0.0006545084971874732,0.593574047088623
441,0.7124615013599396,1.68302583694458,82.6923076923077,64.28571428571429,90.38461538461539,78.57142857142857,0.0006394955530196142,0.5930535793304443
442,0.8563331961631775,0.7577613592147827,76.92307692307692,92.85714285714286,90.38461538461539,92.85714285714286,0.0006243449435824263,0.5985512733459473
443,1.0578676462173462,0.5715067386627197,78.84615384615384,100.0,90.38461538461539,100.0,0.0006090716206982711,0.5929806232452393
444,0.8551285266876221,0.9851585626602173,84.61538461538461,78.57142857142857,88.46153846153847,92.85714285714286,0.0005936906572928613,0.603816032409668
445,0.6886046230792999,1.0571448802947998,86.53846153846153,85.71428571428571,94.23076923076923,78.57142857142857,0.0005782172325201155,0.5942132472991943
446,0.7257988452911377,0.8746470212936401,94.23076923076923,78.57142857142857,92.3076923076923,92.85714285714286,0.0005626666167821514,0.5984458923339844
447,0.821042388677597,0.9892586469650269,90.38461538461539,85.71428571428571,90.38461538461539,85.71428571428571,0.0005470541566592574,0.5964071750640869
448,0.7701807618141174,0.897024393081665,84.61538461538461,71.42857142857143,90.38461538461539,92.85714285714286,0.0005313952597646561,0.5909817218780518
449,0.7754331529140472,0.8517104387283325,90.38461538461539,85.71428571428571,88.46153846153847,78.57142857142857,0.0005157053795390638,0.589331865310669
450,0.8519972562789917,1.0671473741531372,86.53846153846153,78.57142857142857,90.38461538461539,71.42857142857143,0.0004999999999999997,0.5889997482299805
451,0.8180153965950012,0.9453070759773254,84.61538461538461,78.57142857142857,88.46153846153847,78.57142857142857,0.0004842946204609348,0.5926659107208252
452,0.9570074677467346,0.6300109028816223,76.92307692307692,92.85714285714286,94.23076923076923,85.71428571428571,0.0004686047402353432,0.5961589813232422
453,0.9680528044700623,0.8508444428443909,76.92307692307692,85.71428571428571,90.38461538461539,92.85714285714286,0.000452945843340742,0.5868074893951416
454,0.8196631371974945,0.9664151668548584,84.61538461538461,78.57142857142857,90.38461538461539,78.57142857142857,0.000437333383217848,0.5922143459320068
455,0.8753233551979065,1.6904393434524536,82.6923076923077,64.28571428571429,88.46153846153847,64.28571428571429,0.0004217827674798839,0.5858111381530762
456,0.8181359469890594,1.871034026145935,86.53846153846153,64.28571428571429,92.3076923076923,71.42857142857143,0.000406309342707138,0.5925419330596924
457,0.8886516094207764,0.942359447479248,82.6923076923077,78.57142857142857,86.53846153846153,85.71428571428571,0.0003909283793017283,0.5883939266204834
458,0.7066652476787567,1.4157167673110962,88.46153846153847,57.142857142857146,90.38461538461539,85.71428571428571,0.00037565505641757316,0.5957682132720947
459,0.763047993183136,0.9121245741844177,86.53846153846153,78.57142857142857,94.23076923076923,85.71428571428571,0.0003605044469803851,0.59246826171875
460,0.7819888293743134,1.0154656171798706,88.46153846153847,85.71428571428571,86.53846153846153,85.71428571428571,0.0003454915028125253,0.5873012542724609
461,0.704164057970047,0.7761908769607544,88.46153846153847,85.71428571428571,90.38461538461539,85.71428571428571,0.00033063103987735425,0.5965032577514648
462,0.7481400966644287,1.3497174978256226,86.53846153846153,71.42857142857143,92.3076923076923,78.57142857142857,0.00031593772365766024,0.5952250957489014
463,0.7640990316867828,1.2571296691894531,86.53846153846153,71.42857142857143,92.3076923076923,85.71428571428571,0.0003014260546826098,0.5954098701477051
464,0.7918663620948792,1.26727294921875,86.53846153846153,78.57142857142857,86.53846153846153,85.71428571428571,0.0002871103542174631,0.5981643199920654
465,0.6458502113819122,0.777562141418457,94.23076923076923,85.71428571428571,96.15384615384616,85.71428571428571,0.00027300475013022695,0.5903244018554688
466,0.6740264296531677,0.9025441408157349,84.61538461538461,78.57142857142857,88.46153846153847,71.42857142857143,0.00025912316294914196,0.5891087055206299
467,0.7152782678604126,0.7576900720596313,88.46153846153847,85.71428571428571,92.3076923076923,78.57142857142857,0.0002454792921248148,0.5930140018463135
468,0.6084688305854797,0.7104832530021667,92.3076923076923,85.71428571428571,92.3076923076923,92.85714285714286,0.00023208660251050148,0.6157541275024414
469,0.7373686730861664,0.9863572120666504,82.6923076923077,78.57142857142857,94.23076923076923,71.42857142857143,0.0002189583110739353,0.5904622077941895
470,0.8130365014076233,1.0076608657836914,86.53846153846153,85.71428571428571,92.3076923076923,85.71428571428571,0.00020610737385376337,0.5904214382171631
471,0.7788412272930145,0.9160207509994507,82.6923076923077,78.57142857142857,90.38461538461539,85.71428571428571,0.00019354647317351112,0.5937130451202393
472,0.8158584237098694,1.1750022172927856,80.76923076923077,71.42857142857143,94.23076923076923,85.71428571428571,0.0001812880051256553,0.5912895202636719
473,0.8231475055217743,0.7322322130203247,82.6923076923077,85.71428571428571,86.53846153846153,85.71428571428571,0.0001693440673381736,0.5949118137359619
474,0.8185859620571136,0.9825190305709839,88.46153846153847,78.57142857142857,90.38461538461539,92.85714285714286,0.00015772644703565593,0.592036247253418
475,0.7242722809314728,0.7537168264389038,86.53846153846153,92.85714285714286,90.38461538461539,85.71428571428571,0.00014644660940672598,0.5882301330566406
476,0.7402387261390686,0.6036614179611206,84.61538461538461,92.85714285714286,90.38461538461539,92.85714285714286,0.00013551568628929463,0.5912802219390869
477,0.8809412121772766,1.022408366203308,78.84615384615384,78.57142857142857,90.38461538461539,85.71428571428571,0.00012494446518477011,0.5904171466827393
478,0.9588022828102112,0.9874024391174316,82.6923076923077,78.57142857142857,90.38461538461539,78.57142857142857,0.00011474337861210591,0.594658374786377
479,0.863420307636261,0.8675999641418457,84.61538461538461,78.57142857142857,92.3076923076923,92.85714285714286,0.00010492249381215485,0.5925264358520508
480,0.7600898742675781,0.9646733403205872,80.76923076923077,85.71428571428571,96.15384615384616,85.71428571428571,9.54915028125269e-05,0.5949656963348389
481,1.1753552556037903,1.259354829788208,78.84615384615384,64.28571428571429,88.46153846153847,92.85714285714286,8.645971286271922e-05,0.5896339416503906
482,0.713367223739624,0.8514107465744019,90.38461538461539,78.57142857142857,90.38461538461539,85.71428571428571,7.783603724899216e-05,0.5954957008361816
483,0.6794987320899963,1.4590239524841309,88.46153846153847,64.28571428571429,90.38461538461539,78.57142857142857,6.962898649802839e-05,0.5907089710235596
484,0.6360903978347778,0.8572336435317993,90.38461538461539,85.71428571428571,90.38461538461539,92.85714285714286,6.184665997806804e-05,0.598637580871582
485,0.6091148853302002,0.6580535173416138,94.23076923076923,85.71428571428571,88.46153846153847,92.85714285714286,5.449673790581633e-05,0.5905284881591797
486,0.6514829993247986,0.7018429636955261,92.3076923076923,85.71428571428571,90.38461538461539,78.57142857142857,4.7586473766990165e-05,0.5969908237457275
487,0.6547778248786926,1.222409963607788,92.3076923076923,71.42857142857143,90.38461538461539,85.71428571428571,4.112268715800978e-05,0.5960128307342529
488,0.6420140266418457,0.5846471190452576,98.07692307692308,92.85714285714286,84.61538461538461,92.85714285714286,3.511175705587429e-05,0.6127598285675049
489,0.6736740171909332,0.8103315830230713,90.38461538461539,85.71428571428571,88.46153846153847,78.57142857142857,2.955961552288763e-05,0.5947575569152832
490,0.6574620008468628,1.0412901639938354,92.3076923076923,78.57142857142857,98.07692307692308,85.71428571428571,2.4471741852423262e-05,0.5958282947540283
491,0.6258225440979004,1.017650842666626,86.53846153846153,71.42857142857143,96.15384615384616,78.57142857142857,1.985315716152828e-05,0.589301347732544
492,0.7730581760406494,0.6031972765922546,86.53846153846153,92.85714285714286,92.3076923076923,92.85714285714286,1.5708419435684555e-05,0.5948290824890137
493,0.8871666193008423,0.9239619970321655,84.61538461538461,85.71428571428571,88.46153846153847,92.85714285714286,1.2041619030626213e-05,0.5940885543823242
494,0.7926330268383026,1.3392698764801025,84.61538461538461,71.42857142857143,96.15384615384616,78.57142857142857,8.856374635655795e-06,0.5982952117919922
495,0.7220287322998047,0.9027625322341919,84.61538461538461,78.57142857142857,94.23076923076923,78.57142857142857,6.1558297024311075e-06,0.593841552734375
496,0.6740163564682007,0.7516504526138306,90.38461538461539,85.71428571428571,88.46153846153847,92.85714285714286,3.942649342761168e-06,0.5892813205718994
497,0.7083318829536438,0.861087441444397,86.53846153846153,78.57142857142857,96.15384615384616,92.85714285714286,2.2190176984599993e-06,0.5933425426483154
498,0.8035574853420258,1.8878872394561768,86.53846153846153,71.42857142857143,88.46153846153847,85.71428571428571,9.86635785864275e-07,0.5920052528381348
499,0.7367639541625977,0.8980513215065002,86.53846153846153,78.57142857142857,96.15384615384616,85.71428571428571,2.4671981713425525e-07,0.58984375
500,0.5545769929885864,1.3847991228103638,98.07692307692308,57.142857142857146,90.38461538461539,85.71428571428571,0.0,0.5930619239807129
501,0.9271241426467896,0.9024046659469604,82.6923076923077,85.71428571428571,86.53846153846153,85.71428571428571,2.467198171342e-07,0.5920994281768799
502,0.6651979684829712,1.6199983358383179,90.38461538461539,71.42857142857143,92.3076923076923,78.57142857142857,9.866357858642204e-07,0.600996732711792
503,0.5988644063472748,1.1885229349136353,88.46153846153847,64.28571428571429,96.15384615384616,92.85714285714286,2.2190176984599464e-06,0.5874423980712891
504,0.8431291580200195,1.2518730163574219,76.92307692307692,71.42857142857143,94.23076923076923,100.0,3.942649342761118e-06,0.5942344665527344
505,0.8447520732879639,0.8352400660514832,82.6923076923077,78.57142857142857,92.3076923076923,92.85714285714286,6.155829702431005e-06,0.5941653251647949
506,0.7337750494480133,1.1486077308654785,80.76923076923077,71.42857142857143,94.23076923076923,71.42857142857143,8.856374635655697e-06,0.5945699214935303
507,0.6711516380310059,1.1092517375946045,86.53846153846153,71.42857142857143,92.3076923076923,78.57142857142857,1.2041619030626118e-05,0.5910208225250244
508,0.644640326499939,0.7221195697784424,88.46153846153847,71.42857142857143,94.23076923076923,85.71428571428571,1.570841943568441e-05,0.5928785800933838
509,0.8035658895969391,1.4058465957641602,82.6923076923077,71.42857142857143,92.3076923076923,78.57142857142857,1.9853157161528137e-05,0.6003732681274414
510,0.5554888844490051,0.9729901552200317,94.23076923076923,78.57142857142857,94.23076923076923,92.85714285714286,2.4471741852423404e-05,0.5907411575317383
511,0.8491404950618744,0.8974101543426514,86.53846153846153,85.71428571428571,92.3076923076923,78.57142857142857,2.955961552288711e-05,0.5948808193206787
512,0.7646598815917969,1.1869388818740845,84.61538461538461,64.28571428571429,92.3076923076923,85.71428571428571,3.511175705587445e-05,0.5904684066772461
513,0.7293266355991364,0.8028690814971924,92.3076923076923,78.57142857142857,94.23076923076923,92.85714285714286,4.112268715800922e-05,0.5965650081634521
514,0.8003956079483032,1.915579080581665,92.3076923076923,71.42857142857143,84.61538461538461,78.57142857142857,4.7586473766990335e-05,0.59200119972229
515,0.7877353727817535,1.29459547996521,86.53846153846153,64.28571428571429,90.38461538461539,85.71428571428571,5.449673790581573e-05,0.5917630195617676
516,0.7041607797145844,0.8439854383468628,92.3076923076923,78.57142857142857,92.3076923076923,92.85714285714286,6.184665997806823e-05,0.5907199382781982
517,0.7300179302692413,1.4193973541259766,86.53846153846153,71.42857142857143,88.46153846153847,85.71428571428571,6.962898649802864e-05,0.5919392108917236
518,0.74415323138237,0.9226384162902832,92.3076923076923,85.71428571428571,94.23076923076923,78.57142857142857,7.783603724899244e-05,0.5933642387390137
519,0.6160381138324738,0.8642849922180176,92.3076923076923,85.71428571428571,90.38461538461539,92.85714285714286,8.645971286271952e-05,0.5952966213226318
520,0.814043402671814,0.9494221210479736,84.61538461538461,78.57142857142857,84.61538461538461,85.71428571428571,9.549150281252615e-05,0.5935893058776855
521,0.9006325304508209,1.3819591999053955,82.6923076923077,71.42857142857143,88.46153846153847,71.42857142857143,0.00010492249381215516,0.5933976173400879
522,0.6883029043674469,1.7191380262374878,88.46153846153847,71.42857142857143,92.3076923076923,78.57142857142857,0.00011474337861210514,0.5886454582214355
523,0.7144385874271393,1.0640861988067627,88.46153846153847,78.57142857142857,94.23076923076923,78.57142857142857,0.00012494446518477047,0.592095136642456
524,0.6576313376426697,1.1851881742477417,90.38461538461539,64.28571428571429,92.3076923076923,92.85714285714286,0.00013551568628929382,0.5948851108551025
525,0.7665258049964905,2.187624931335449,82.6923076923077,50.0,88.46153846153847,71.42857142857143,0.00014644660940672636,0.5948512554168701
526,0.6685865521430969,0.9408600330352783,90.38461538461539,85.71428571428571,94.23076923076923,78.57142857142857,0.00015772644703565642,0.592343807220459
527,0.6793284118175507,1.4508976936340332,86.53846153846153,71.42857142857143,96.15384615384616,85.71428571428571,0.0001693440673381741,0.591705322265625
528,0.7663959860801697,1.4072492122650146,86.53846153846153,71.42857142857143,88.46153846153847,78.57142857142857,0.0001812880051256558,0.5935385227203369
529,0.8007429838180542,1.5987880229949951,90.38461538461539,57.142857142857146,90.38461538461539,92.85714285714286,0.00019354647317351164,0.5901246070861816
530,0.6271784007549286,1.0155638456344604,90.38461538461539,71.42857142857143,96.15384615384616,85.71428571428571,0.00020610737385376394,0.5958216190338135
531,0.7131882011890411,0.8265041708946228,86.53846153846153,92.85714285714286,90.38461538461539,78.57142857142857,0.00021895831107393446,0.5953633785247803
532,0.7451855540275574,0.8470690250396729,86.53846153846153,85.71428571428571,94.23076923076923,92.85714285714286,0.0002320866025105021,0.593102216720581
533,0.7638574540615082,1.585831880569458,86.53846153846153,64.28571428571429,86.53846153846153,78.57142857142857,0.0002454792921248139,0.5930752754211426
534,0.6787401735782623,1.241745948791504,84.61538461538461,71.42857142857143,88.46153846153847,85.71428571428571,0.0002591231629491426,0.595635175704956
535,0.5919149219989777,0.6553001403808594,92.3076923076923,92.85714285714286,90.38461538461539,78.57142857142857,0.0002730047501302276,0.5912971496582031
536,0.7158539295196533,0.8708328604698181,84.61538461538461,78.57142857142857,90.38461538461539,92.85714285714286,0.00028711035421746377,0.595935583114624
537,0.6885294616222382,1.1450715065002441,88.46153846153847,85.71428571428571,92.3076923076923,71.42857142857143,0.00030142605468261053,0.594170331954956
538,0.7935748994350433,1.1711785793304443,80.76923076923077,78.57142857142857,94.23076923076923,71.42857142857143,0.000315937723657661,0.5946755409240723
539,0.6657378375530243,0.6425983309745789,92.3076923076923,92.85714285714286,94.23076923076923,85.71428571428571,0.00033063103987735507,0.5939695835113525
540,0.7176813781261444,0.7554588317871094,92.3076923076923,92.85714285714286,90.38461538461539,78.57142857142857,0.0003454915028125261,0.5895810127258301
541,0.7966412305831909,1.2168660163879395,86.53846153846153,78.57142857142857,96.15384615384616,78.57142857142857,0.00036050444698038607,0.588334321975708
542,0.8489883542060852,1.2315261363983154,86.53846153846153,71.42857142857143,90.38461538461539,71.42857142857143,0.0003756550564175724,0.5930984020233154
543,0.8564561307430267,0.9806105494499207,86.53846153846153,85.71428571428571,86.53846153846153,92.85714285714286,0.0003909283793017293,0.5907375812530518
544,0.6294755935668945,1.0549285411834717,92.3076923076923,78.57142857142857,94.23076923076923,85.71428571428571,0.0004063093427071391,0.5970001220703125
545,1.1081555783748627,1.2138632535934448,78.84615384615384,78.57142857142857,94.23076923076923,92.85714285714286,0.00042178276747988503,0.5846192836761475
546,0.7767349481582642,0.6101101636886597,86.53846153846153,85.71428571428571,94.23076923076923,100.0,0.0004373333832178491,0.5890710353851318
547,0.7255969047546387,1.1261029243469238,88.46153846153847,71.42857142857143,90.38461538461539,71.42857142857143,0.00045294584334074317,0.5913662910461426
548,0.638471245765686,1.1922533512115479,90.38461538461539,64.28571428571429,94.23076923076923,92.85714285714286,0.00046860474023534444,0.5915193557739258
549,0.7537622451782227,0.6021077036857605,84.61538461538461,92.85714285714286,90.38461538461539,92.85714285714286,0.000484294620460936,0.5870513916015625
550,0.7304470241069794,1.0783559083938599,86.53846153846153,85.71428571428571,88.46153846153847,85.71428571428571,0.0005000000000000009,0.5917589664459229
551,0.6082592904567719,1.0130813121795654,90.38461538461539,78.57142857142857,96.15384615384616,85.71428571428571,0.000515705379539064,0.5878870487213135
552,0.7602120041847229,1.2763488292694092,88.46153846153847,78.57142857142857,92.3076923076923,85.71428571428571,0.0005313952597646574,0.5979640483856201
553,0.7479164004325867,0.5541569590568542,88.46153846153847,85.71428571428571,90.38461538461539,92.85714285714286,0.000547054156659257,0.5868642330169678
554,1.0153190195560455,1.1391831636428833,84.61538461538461,78.57142857142857,86.53846153846153,92.85714285714286,0.0005626666167821528,0.586834192276001
555,0.8562549352645874,0.9703441858291626,76.92307692307692,78.57142857142857,88.46153846153847,92.85714285714286,0.0005782172325201169,0.58797287940979
556,0.8244361281394958,1.2542074918746948,90.38461538461539,64.28571428571429,88.46153846153847,100.0,0.0005936906572928627,0.5907723903656006
557,0.6852737069129944,1.6311417818069458,88.46153846153847,57.142857142857146,94.23076923076923,85.71428571428571,0.0006090716206982724,0.5975472927093506
558,0.7512258887290955,1.386031150817871,90.38461538461539,78.57142857142857,90.38461538461539,78.57142857142857,0.0006243449435824277,0.5838236808776855
559,0.9950108528137207,1.294480323791504,80.76923076923077,71.42857142857143,96.15384615384616,78.57142857142857,0.0006394955530196158,0.596421480178833
560,0.8206304311752319,0.9357360005378723,82.6923076923077,85.71428571428571,96.15384615384616,71.42857142857143,0.000654508497187474,0.5944552421569824
561,0.7395740747451782,0.8176960945129395,84.61538461538461,85.71428571428571,90.38461538461539,85.71428571428571,0.0006693689601226467,0.5921776294708252
562,0.8289409279823303,0.8333468437194824,88.46153846153847,85.71428571428571,88.46153846153847,78.57142857142857,0.0006840622763423391,0.5938138961791992
563,0.9020436406135559,0.7451709508895874,82.6923076923077,92.85714285714286,88.46153846153847,78.57142857142857,0.0006985739453173912,0.5962915420532227
564,0.9197424650192261,0.7806519269943237,88.46153846153847,85.71428571428571,80.76923076923077,78.57142857142857,0.0007128896457825364,0.5933022499084473
565,0.6927521526813507,0.8804316520690918,92.3076923076923,85.71428571428571,88.46153846153847,71.42857142857143,0.0007269952498697741,0.5924792289733887
566,0.9626278579235077,0.7144215106964111,84.61538461538461,85.71428571428571,86.53846153846153,78.57142857142857,0.000740876837050859,0.594240665435791
567,0.8679803013801575,0.7562268972396851,82.6923076923077,78.57142857142857,98.07692307692308,85.71428571428571,0.0007545207078751864,0.5859723091125488
568,0.7044770121574402,1.161228060722351,92.3076923076923,78.57142857142857,96.15384615384616,78.57142857142857,0.0007679133974894997,0.5940642356872559
569,0.7838496267795563,1.2181169986724854,88.46153846153847,71.42857142857143,92.3076923076923,85.71428571428571,0.0007810416889260658,0.5916032791137695
570,0.725205808877945,0.9983500242233276,90.38461538461539,78.57142857142857,90.38461538461539,92.85714285714286,0.0007938926261462379,0.6095893383026123
571,0.8538557291030884,1.1569334268569946,76.92307692307692,78.57142857142857,92.3076923076923,78.57142857142857,0.0008064535268264887,0.5858850479125977
572,0.8428010642528534,1.2352020740509033,82.6923076923077,78.57142857142857,90.38461538461539,71.42857142857143,0.0008187119948743461,0.5821859836578369
573,0.9048647284507751,1.5089768171310425,84.61538461538461,64.28571428571429,92.3076923076923,78.57142857142857,0.0008306559326618264,0.5966475009918213
574,0.6356655359268188,1.8107826709747314,94.23076923076923,57.142857142857146,96.15384615384616,85.71428571428571,0.0008422735529643455,0.5849916934967041
575,0.6463745534420013,1.8616340160369873,90.38461538461539,50.0,94.23076923076923,85.71428571428571,0.0008535533905932741,0.5938584804534912
576,0.691255509853363,0.8972116708755493,82.6923076923077,85.71428571428571,92.3076923076923,85.71428571428571,0.0008644843137107068,0.5923101902008057
577,0.817013144493103,0.9971551299095154,86.53846153846153,78.57142857142857,92.3076923076923,92.85714285714286,0.0008750555348152313,0.5883209705352783
578,0.6943394541740417,0.7134983539581299,84.61538461538461,92.85714285714286,90.38461538461539,71.42857142857143,0.0008852566213878955,0.5935561656951904
579,1.0226055681705475,0.8858326077461243,82.6923076923077,85.71428571428571,90.38461538461539,78.57142857142857,0.0008950775061878465,0.5859384536743164
580,0.6884041428565979,0.7188715934753418,90.38461538461539,85.71428571428571,92.3076923076923,85.71428571428571,0.0009045084971874744,0.5930783748626709
581,0.9147595167160034,0.9134421348571777,78.84615384615384,71.42857142857143,86.53846153846153,78.57142857142857,0.000913540287137282,0.5949175357818604
582,1.024731457233429,0.7281680107116699,76.92307692307692,85.71428571428571,86.53846153846153,85.71428571428571,0.000922163962751008,0.5908200740814209
583,0.8178993463516235,0.9812771081924438,82.6923076923077,78.57142857142857,96.15384615384616,71.42857142857143,0.0009303710135019726,0.593940258026123
584,0.8230218589305878,1.1263529062271118,86.53846153846153,78.57142857142857,90.38461538461539,78.57142857142857,0.0009381533400219321,0.5852398872375488
585,1.304278016090393,0.7905625104904175,73.07692307692308,85.71428571428571,90.38461538461539,92.85714285714286,0.0009455032620941845,0.5923960208892822
586,0.8253553807735443,0.7456129193305969,86.53846153846153,92.85714285714286,94.23076923076923,78.57142857142857,0.0009524135262330099,0.5900754928588867
587,1.0644716024398804,1.3158960342407227,78.84615384615384,71.42857142857143,86.53846153846153,78.57142857142857,0.000958877312841991,0.591968297958374
588,0.9935241937637329,1.3749358654022217,73.07692307692308,71.42857142857143,86.53846153846153,78.57142857142857,0.0009648882429441264,0.591618537902832
589,1.0427497327327728,1.2590758800506592,73.07692307692308,78.57142857142857,88.46153846153847,71.42857142857143,0.0009704403844771131,0.590972900390625
590,0.9994552135467529,1.216997742652893,73.07692307692308,71.42857142857143,86.53846153846153,78.57142857142857,0.0009755282581475773,0.5948898792266846
591,0.8954389691352844,1.134483814239502,78.84615384615384,71.42857142857143,88.46153846153847,71.42857142857143,0.0009801468428384719,0.590939998626709
592,1.214702069759369,1.1672759056091309,63.46153846153846,71.42857142857143,86.53846153846153,71.42857142857143,0.000984291580564316,0.5985150337219238
593,1.1745174527168274,1.47007155418396,63.46153846153846,71.42857142857143,84.61538461538461,71.42857142857143,0.0009879583809693738,0.5914194583892822
594,1.0185236036777496,1.3368881940841675,76.92307692307692,85.71428571428571,86.53846153846153,71.42857142857143,0.0009911436253643446,0.5896000862121582
595,1.0309725403785706,1.193872094154358,67.3076923076923,78.57142857142857,86.53846153846153,85.71428571428571,0.0009938441702975688,0.5952496528625488
596,1.2941043376922607,1.4264538288116455,67.3076923076923,71.42857142857143,82.6923076923077,92.85714285714286,0.0009960573506572392,0.5911097526550293
597,1.1358098983764648,1.2033019065856934,73.07692307692308,78.57142857142857,90.38461538461539,92.85714285714286,0.0009977809823015402,0.5946452617645264
598,1.0799237787723541,1.3963090181350708,78.84615384615384,78.57142857142857,86.53846153846153,92.85714285714286,0.000999013364214136,0.5890293121337891
599,0.8430520296096802,1.2720017433166504,78.84615384615384,78.57142857142857,96.15384615384616,85.71428571428571,0.000999753280182866,0.5981965065002441
600,0.9495169520378113,0.7751078605651855,80.76923076923077,85.71428571428571,90.38461538461539,92.85714285714286,0.0010000000000000002,0.5931611061096191
601,1.0117239952087402,0.8694531917572021,80.76923076923077,71.42857142857143,90.38461538461539,85.71428571428571,0.000999753280182866,0.5912811756134033
602,0.9567597806453705,1.0369787216186523,76.92307692307692,85.71428571428571,90.38461538461539,78.57142857142857,0.0009990133642141363,0.5924205780029297
603,1.137937068939209,0.6510788202285767,63.46153846153846,85.71428571428571,90.38461538461539,100.0,0.0009977809823015404,0.5928776264190674
604,0.8624570667743683,1.0560417175292969,86.53846153846153,85.71428571428571,86.53846153846153,85.71428571428571,0.0009960573506572394,0.592482328414917
605,1.025310069322586,0.963607132434845,75.0,85.71428571428571,92.3076923076923,71.42857142857143,0.0009938441702975693,0.5894477367401123
606,0.9477329254150391,1.4152637720108032,76.92307692307692,71.42857142857143,90.38461538461539,85.71428571428571,0.0009911436253643448,0.5924921035766602
607,0.8347266316413879,1.1677908897399902,80.76923076923077,64.28571428571429,98.07692307692308,92.85714285714286,0.000987958380969374,0.5940825939178467
608,0.8274731934070587,1.2020761966705322,82.6923076923077,78.57142857142857,94.23076923076923,78.57142857142857,0.000984291580564316,0.5915799140930176
609,1.0867655873298645,1.4963263273239136,73.07692307692308,78.57142857142857,92.3076923076923,64.28571428571429,0.0009801468428384719,0.5929186344146729
610,0.9249475300312042,0.887688398361206,75.0,85.71428571428571,90.38461538461539,78.57142857142857,0.0009755282581475768,0.5942704677581787
611,0.9852585196495056,1.4613163471221924,80.76923076923077,64.28571428571429,84.61538461538461,85.71428571428571,0.0009704403844771132,0.5945389270782471
612,0.832889199256897,1.4664173126220703,84.61538461538461,78.57142857142857,92.3076923076923,71.42857142857143,0.0009648882429441259,0.5940251350402832
613,0.7886664271354675,0.8343032598495483,82.6923076923077,85.71428571428571,92.3076923076923,92.85714285714286,0.0009588773128419912,0.5886623859405518
614,0.9024783074855804,0.821290135383606,80.76923076923077,100.0,90.38461538461539,71.42857142857143,0.00095241352623301,0.5894014835357666
615,0.8036434948444366,1.228742003440857,82.6923076923077,85.71428571428571,88.46153846153847,85.71428571428571,0.0009455032620941847,0.5958962440490723
616,1.0016677379608154,1.0736992359161377,73.07692307692308,85.71428571428571,92.3076923076923,71.42857142857143,0.0009381533400219321,0.5942816734313965
617,0.768416553735733,1.4488191604614258,84.61538461538461,71.42857142857143,88.46153846153847,85.71428571428571,0.0009303710135019726,0.5961198806762695
618,0.7537659704685211,1.3101650476455688,90.38461538461539,78.57142857142857,90.38461538461539,100.0,0.000922163962751008,0.5906727313995361
619,0.797557532787323,0.7631493210792542,76.92307692307692,92.85714285714286,92.3076923076923,71.42857142857143,0.000913540287137281,0.5931024551391602
620,0.7663724720478058,1.3411476612091064,88.46153846153847,85.71428571428571,86.53846153846153,71.42857142857143,0.0009045084971874743,0.5955660343170166
621,0.8490531742572784,1.1162348985671997,80.76923076923077,78.57142857142857,86.53846153846153,71.42857142857143,0.0008950775061878452,0.5981357097625732
622,0.9403279721736908,0.9659610986709595,78.84615384615384,78.57142857142857,92.3076923076923,85.71428571428571,0.0008852566213878953,0.5899465084075928
623,1.0857917666435242,1.2469673156738281,80.76923076923077,78.57142857142857,90.38461538461539,78.57142857142857,0.0008750555348152299,0.5965428352355957
624,0.8431567847728729,1.1820460557937622,82.6923076923077,78.57142857142857,90.38461538461539,85.71428571428571,0.0008644843137107066,0.5938370227813721
625,0.9221914708614349,1.1821986436843872,80.76923076923077,71.42857142857143,90.38461538461539,85.71428571428571,0.0008535533905932739,0.6127629280090332
626,0.8079001605510712,1.5726535320281982,80.76923076923077,78.57142857142857,86.53846153846153,71.42857142857143,0.0008422735529643453,0.5954821109771729
627,0.9707815647125244,1.5933334827423096,78.84615384615384,64.28571428571429,86.53846153846153,78.57142857142857,0.0008306559326618263,0.586834192276001
628,0.7275997996330261,1.101576805114746,78.84615384615384,71.42857142857143,94.23076923076923,64.28571428571429,0.000818711994874346,0.5894775390625
629,1.0340340733528137,1.0248950719833374,73.07692307692308,85.71428571428571,88.46153846153847,85.71428571428571,0.0008064535268264887,0.5934076309204102
630,0.8630184233188629,1.0896997451782227,80.76923076923077,78.57142857142857,88.46153846153847,71.42857142857143,0.0007938926261462365,0.5972437858581543
631,0.9194715023040771,1.2614325284957886,84.61538461538461,78.57142857142857,88.46153846153847,85.71428571428571,0.0007810416889260658,0.603426456451416
632,0.7408268451690674,1.3287780284881592,86.53846153846153,71.42857142857143,94.23076923076923,85.71428571428571,0.0007679133974894983,0.5923027992248535
633,0.8928922414779663,1.237774133682251,80.76923076923077,71.42857142857143,90.38461538461539,71.42857142857143,0.0007545207078751865,0.5983359813690186
634,0.8931798934936523,0.9462573528289795,76.92307692307692,92.85714285714286,92.3076923076923,78.57142857142857,0.0007408768370508578,0.5876517295837402
635,0.8821907043457031,0.6925029754638672,76.92307692307692,92.85714285714286,92.3076923076923,92.85714285714286,0.0007269952498697744,0.594508171081543
636,0.8490518033504486,0.8036580085754395,84.61538461538461,85.71428571428571,90.38461538461539,78.57142857142857,0.0007128896457825366,0.5928597450256348
637,1.1716790199279785,0.7204337120056152,75.0,92.85714285714286,86.53846153846153,85.71428571428571,0.0006985739453173915,0.5934300422668457
638,0.840386152267456,0.9036673307418823,84.61538461538461,85.71428571428571,90.38461538461539,71.42857142857143,0.0006840622763423395,0.6025776863098145
639,0.770647257566452,0.8667446374893188,84.61538461538461,85.71428571428571,94.23076923076923,64.28571428571429,0.000669368960122647,0.5897319316864014
640,0.790581464767456,1.1160095930099487,84.61538461538461,64.28571428571429,90.38461538461539,92.85714285714286,0.0006545084971874743,0.5960211753845215
641,0.976445198059082,1.1698729991912842,86.53846153846153,78.57142857142857,88.46153846153847,78.57142857142857,0.0006394955530196145,0.596015453338623
642,0.8662358224391937,1.8921900987625122,80.76923076923077,71.42857142857143,88.46153846153847,64.28571428571429,0.0006243449435824282,0.5982017517089844
643,0.9579720497131348,0.9623928666114807,78.84615384615384,85.71428571428571,86.53846153846153,78.57142857142857,0.0006090716206982713,0.5937798023223877
644,0.9752209782600403,0.9688454866409302,76.92307692307692,85.71428571428571,92.3076923076923,71.42857142857143,0.0005936906572928633,0.5929296016693115
645,0.8718507289886475,1.7979779243469238,82.6923076923077,71.42857142857143,86.53846153846153,71.42857142857143,0.0005782172325201156,0.592120885848999
646,1.0052399635314941,0.8769344687461853,76.92307692307692,85.71428571428571,90.38461538461539,78.57142857142857,0.0005626666167821532,0.5922527313232422
647,0.9949702620506287,1.32999587059021,78.84615384615384,71.42857142857143,94.23076923076923,85.71428571428571,0.0005470541566592574,0.5938353538513184
648,0.8459023237228394,1.643113136291504,82.6923076923077,64.28571428571429,90.38461538461539,85.71428571428571,0.000531395259764658,0.5896174907684326
649,0.906520664691925,1.033466100692749,84.61538461538461,78.57142857142857,86.53846153846153,78.57142857142857,0.0005157053795390645,0.593853235244751
650,0.7060352563858032,1.071587324142456,88.46153846153847,85.71428571428571,92.3076923076923,78.57142857142857,0.0005000000000000014,0.5918951034545898
651,0.7622998952865601,1.7377275228500366,82.6923076923077,71.42857142857143,86.53846153846153,85.71428571428571,0.00048429462046093645,0.5836858749389648
652,0.912286102771759,1.6606796979904175,76.92307692307692,64.28571428571429,94.23076923076923,92.85714285714286,0.0004686047402353448,0.588360071182251
653,0.9785156846046448,0.8828554749488831,76.92307692307692,85.71428571428571,90.38461538461539,92.85714285714286,0.00045294584334074176,0.5895648002624512
654,0.8208107054233551,1.0519728660583496,75.0,71.42857142857143,96.15384615384616,78.57142857142857,0.0004373333832178478,0.58978271484375
655,0.8300609290599823,0.8002921938896179,82.6923076923077,85.71428571428571,92.3076923076923,92.85714285714286,0.00042178276747988547,0.5938246250152588
656,0.7951522469520569,1.25520658493042,86.53846153846153,71.42857142857143,90.38461538461539,92.85714285714286,0.0004063093427071395,0.5919923782348633
657,0.7922084927558899,0.9457955360412598,84.61538461538461,85.71428571428571,92.3076923076923,92.85714285714286,0.000390928379301728,0.5924267768859863
658,0.9295639991760254,0.898370087146759,76.92307692307692,85.71428571428571,90.38461538461539,78.57142857142857,0.00037565505641757284,0.6131863594055176
659,0.884935051202774,1.220933437347412,84.61538461538461,71.42857142857143,92.3076923076923,78.57142857142857,0.00036050444698038656,0.5925722122192383
660,0.7564724683761597,0.9853150844573975,88.46153846153847,85.71428571428571,92.3076923076923,100.0,0.0003454915028125284,0.5965766906738281
661,0.779952883720398,0.9563122987747192,82.6923076923077,71.42857142857143,90.38461538461539,100.0,0.00033063103987735393,0.5895509719848633
662,0.8491105437278748,0.7437016367912292,82.6923076923077,78.57142857142857,92.3076923076923,92.85714285714286,0.0003159377236576616,0.5930681228637695
663,0.759583443403244,1.839659571647644,84.61538461538461,57.142857142857146,92.3076923076923,85.71428571428571,0.0003014260546826111,0.5905117988586426
664,0.7854965329170227,0.7397109270095825,86.53846153846153,92.85714285714286,84.61538461538461,92.85714285714286,0.00028711035421746274,0.5927963256835938
665,0.8658870458602905,1.2805531024932861,84.61538461538461,78.57142857142857,94.23076923076923,71.42857142857143,0.0002730047501302265,0.5945682525634766
666,0.7571797072887421,0.9846043586730957,88.46153846153847,85.71428571428571,94.23076923076923,78.57142857142857,0.0002591231629491431,0.5922298431396484
667,0.771570473909378,1.0270799398422241,84.61538461538461,71.42857142857143,92.3076923076923,85.71428571428571,0.0002454792921248159,0.6003849506378174
668,0.7251221239566803,1.2264796495437622,86.53846153846153,71.42857142857143,94.23076923076923,92.85714285714286,0.00023208660251050105,0.5889523029327393
669,0.7844706475734711,1.3949055671691895,80.76923076923077,71.42857142857143,92.3076923076923,71.42857142857143,0.00021895831107393492,0.5956394672393799
670,0.7533496022224426,0.8736370801925659,80.76923076923077,78.57142857142857,92.3076923076923,85.71428571428571,0.00020610737385376443,0.58982253074646
671,0.8446017503738403,0.689335286617279,80.76923076923077,85.71428571428571,92.3076923076923,92.85714285714286,0.00019354647317351348,0.5946447849273682
672,0.8829772472381592,0.7640716433525085,84.61538461538461,92.85714285714286,90.38461538461539,71.42857142857143,0.00018128800512565485,0.5979502201080322
673,0.666164368391037,1.3131470680236816,84.61538461538461,85.71428571428571,92.3076923076923,78.57142857142857,0.00016934406733817454,0.5903973579406738
674,0.6758162975311279,0.9353713393211365,88.46153846153847,78.57142857142857,94.23076923076923,92.85714285714286,0.00015772644703565682,0.6000914573669434
675,0.599778801202774,0.948347806930542,90.38461538461539,78.57142857142857,98.07692307692308,71.42857142857143,0.00014644660940672558,0.5934433937072754
676,0.719265341758728,0.8423321843147278,84.61538461538461,85.71428571428571,90.38461538461539,78.57142857142857,0.00013551568628929425,0.5927860736846924
677,0.767878532409668,1.1794476509094238,80.76923076923077,57.142857142857146,92.3076923076923,85.71428571428571,0.0001249444651847709,0.5869951248168945
678,0.6754663586616516,1.5236420631408691,92.3076923076923,64.28571428571429,90.38461538461539,64.28571428571429,0.00011474337861210663,0.5910589694976807
679,0.7485921680927277,1.6903300285339355,86.53846153846153,57.142857142857146,92.3076923076923,71.42857142857143,0.00010492249381215444,0.5896000862121582
680,0.9187569618225098,0.8764892816543579,84.61538461538461,71.42857142857143,88.46153846153847,92.85714285714286,9.549150281252653e-05,0.6139853000640869
681,0.8861915171146393,0.6822937726974487,82.6923076923077,85.71428571428571,90.38461538461539,78.57142857142857,8.645971286271984e-05,0.5935783386230469
682,0.6824569702148438,1.1172797679901123,92.3076923076923,78.57142857142857,90.38461538461539,78.57142857142857,7.783603724899372e-05,0.5903458595275879
683,0.7751475870609283,0.97046959400177,88.46153846153847,85.71428571428571,90.38461538461539,85.71428571428571,6.962898649802805e-05,0.5898990631103516
684,0.729635626077652,0.905237078666687,94.23076923076923,85.71428571428571,90.38461538461539,64.28571428571429,6.184665997806858e-05,0.5945777893066406
685,0.7305238544940948,1.016352653503418,86.53846153846153,85.71428571428571,92.3076923076923,78.57142857142857,5.449673790581686e-05,0.5919079780578613
686,0.8168218731880188,1.073498010635376,82.6923076923077,78.57142857142857,96.15384615384616,71.42857142857143,4.758647376698986e-05,0.5919196605682373
687,0.7309289872646332,1.2251737117767334,86.53846153846153,71.42857142857143,92.3076923076923,85.71428571428571,4.112268715800947e-05,0.5893120765686035
688,0.8780057430267334,1.572985291481018,76.92307692307692,64.28571428571429,88.46153846153847,64.28571428571429,3.5111757055874705e-05,0.5934858322143555
689,0.8427401185035706,0.8428083062171936,82.6923076923077,85.71428571428571,90.38461538461539,92.85714285714286,2.9559615522887985e-05,0.5873250961303711
690,0.7820543050765991,1.0987958908081055,84.61538461538461,78.57142857142857,88.46153846153847,85.71428571428571,2.4471741852423062e-05,0.5871844291687012
691,0.6845003664493561,1.2010952234268188,90.38461538461539,78.57142857142857,94.23076923076923,78.57142857142857,1.9853157161528628e-05,0.5921897888183594
692,0.7635090947151184,1.3139348030090332,80.76923076923077,78.57142857142857,92.3076923076923,85.71428571428571,1.5708419435684792e-05,0.5963032245635986
693,0.9670379161834717,1.2592675685882568,78.84615384615384,71.42857142857143,90.38461538461539,78.57142857142857,1.2041619030626447e-05,0.5911827087402344
694,0.7116736471652985,1.497701644897461,88.46153846153847,64.28571428571429,88.46153846153847,92.85714285714286,8.856374635655637e-06,0.5889372825622559
695,0.7009048461914062,1.421077013015747,86.53846153846153,71.42857142857143,86.53846153846153,85.71428571428571,6.15582970243128e-06,0.5933480262756348
696,0.7460742890834808,0.6588032245635986,88.46153846153847,92.85714285714286,92.3076923076923,85.71428571428571,3.942649342761339e-06,0.5840351581573486
697,0.7819199562072754,0.8676068782806396,84.61538461538461,85.71428571428571,90.38461538461539,85.71428571428571,2.2190176984599464e-06,0.5901880264282227
698,0.7875168919563293,1.7300233840942383,90.38461538461539,64.28571428571429,90.38461538461539,71.42857142857143,9.866357858642204e-07,0.5909152030944824
699,0.8968361020088196,1.4888150691986084,82.6923076923077,71.42857142857143,88.46153846153847,71.42857142857143,2.4671981713425546e-07,0.5822815895080566
700,0.9337919652462006,1.1255325078964233,76.92307692307692,71.42857142857143,90.38461538461539,85.71428571428571,0.0,0.5911304950714111
701,0.6035161912441254,1.4379525184631348,86.53846153846153,64.28571428571429,92.3076923076923,85.71428571428571,2.467198171342e-07,0.5854949951171875
702,0.6687233746051788,0.7934298515319824,90.38461538461539,85.71428571428571,94.23076923076923,85.71428571428571,9.86635785863943e-07,0.5935850143432617
703,0.7118258476257324,0.6543936729431152,82.6923076923077,92.85714285714286,94.23076923076923,85.71428571428571,2.219017698459336e-06,0.582282543182373
704,0.7836079001426697,1.7607660293579102,82.6923076923077,50.0,94.23076923076923,71.42857142857143,3.9426493427601195e-06,0.5850744247436523
705,0.8844626843929291,0.9139133095741272,84.61538461538461,78.57142857142857,88.46153846153847,85.71428571428571,6.15582970242973e-06,0.5867822170257568
706,0.6509920954704285,1.5618164539337158,88.46153846153847,57.142857142857146,92.3076923076923,85.71428571428571,8.856374635653481e-06,0.5964128971099854
707,0.9991762936115265,0.9891444444656372,82.6923076923077,78.57142857142857,88.46153846153847,71.42857142857143,1.2041619030623184e-05,0.5966813564300537
708,0.7685633897781372,1.4343020915985107,88.46153846153847,71.42857142857143,94.23076923076923,71.42857142857143,1.5708419435681038e-05,0.5906829833984375
709,0.8459659218788147,1.3521816730499268,78.84615384615384,78.57142857142857,92.3076923076923,78.57142857142857,1.9853157161523888e-05,0.5923552513122559
710,0.6692093908786774,0.7673694491386414,92.3076923076923,85.71428571428571,92.3076923076923,85.71428571428571,2.4471741852417285e-05,0.5885934829711914
711,0.6747474372386932,1.1226906776428223,88.46153846153847,71.42857142857143,98.07692307692308,78.57142857142857,2.9559615522880457e-05,0.5904867649078369
712,0.924592524766922,1.1247963905334473,78.84615384615384,78.57142857142857,92.3076923076923,85.71428571428571,3.5111757055866485e-05,0.5922658443450928
713,0.717644065618515,1.2484688758850098,86.53846153846153,78.57142857142857,92.3076923076923,85.71428571428571,4.1122687157999905e-05,0.5875504016876221
714,0.7443304061889648,0.7990061044692993,88.46153846153847,85.71428571428571,94.23076923076923,92.85714285714286,4.758647376697884e-05,0.5895540714263916
715,0.6826163232326508,1.1521329879760742,88.46153846153847,64.28571428571429,94.23076923076923,92.85714285714286,5.449673790580424e-05,0.5863275527954102
716,0.7485612332820892,1.1417276859283447,84.61538461538461,71.42857142857143,94.23076923076923,78.57142857142857,6.184665997805424e-05,0.5877594947814941
717,0.7264698445796967,0.953876256942749,90.38461538461539,85.71428571428571,94.23076923076923,71.42857142857143,6.962898649801196e-05,0.5930829048156738
718,0.5969311594963074,0.8349204063415527,96.15384615384616,85.71428571428571,90.38461538461539,92.85714285714286,7.783603724897385e-05,0.5923008918762207
719,0.8189999759197235,1.1048142910003662,88.46153846153847,71.42857142857143,90.38461538461539,85.71428571428571,8.645971286269991e-05,0.5920486450195312
720,0.852632999420166,1.1012533903121948,78.84615384615384,78.57142857142857,98.07692307692308,85.71428571428571,9.549150281250456e-05,0.5852007865905762
721,0.8822436332702637,0.9898938536643982,88.46153846153847,71.42857142857143,88.46153846153847,85.71428571428571,0.00010492249381213034,0.5893518924713135
722,0.9428017735481262,0.8843775987625122,76.92307692307692,85.71428571428571,90.38461538461539,100.0,0.00011474337861207917,0.5856857299804688
723,0.6449499726295471,1.0742714405059814,90.38461538461539,78.57142857142857,96.15384615384616,78.57142857142857,0.00012494446518474225,0.6094818115234375
724,0.7444941699504852,1.0779579877853394,84.61538461538461,78.57142857142857,90.38461538461539,78.57142857142857,0.00013551568628926316,0.5867927074432373
725,0.7401092350482941,0.9910422563552856,84.61538461538461,78.57142857142857,88.46153846153847,85.71428571428571,0.00014644660940669202,0.5801684856414795
726,0.7499105930328369,0.6841088533401489,80.76923076923077,85.71428571428571,94.23076923076923,100.0,0.00015772644703562072,0.5889852046966553
727,0.8232478499412537,1.2182037830352783,84.61538461538461,64.28571428571429,86.53846153846153,85.71428571428571,0.00016934406733813578,0.5869219303131104
728,1.0215299725532532,0.9687366485595703,75.0,78.57142857142857,92.3076923076923,100.0,0.0001812880051256134,0.5902118682861328
729,0.8691537976264954,1.1905593872070312,80.76923076923077,71.42857142857143,90.38461538461539,92.85714285714286,0.0001935464731734679,0.5889606475830078
730,0.5903427302837372,0.9704351425170898,94.23076923076923,85.71428571428571,92.3076923076923,78.57142857142857,0.00020610737385371735,0.587205171585083
731,1.0536757707595825,0.9568303823471069,78.84615384615384,78.57142857142857,86.53846153846153,85.71428571428571,0.00021895831107388497,0.591867208480835
732,0.6794894933700562,0.8536176681518555,88.46153846153847,78.57142857142857,92.3076923076923,92.85714285714286,0.00023208660251044814,0.5879602432250977
733,0.9364262223243713,1.3535670042037964,82.6923076923077,78.57142857142857,86.53846153846153,78.57142857142857,0.00024547929212475846,0.5868229866027832
734,0.8184067606925964,0.9324111938476562,76.92307692307692,71.42857142857143,94.23076923076923,85.71428571428571,0.0002591231629490841,0.5850093364715576
735,0.9413919448852539,1.2490534782409668,75.0,85.71428571428571,90.38461538461539,78.57142857142857,0.00027300475013016434,0.5878200531005859
736,0.7524160146713257,0.8554157018661499,86.53846153846153,85.71428571428571,90.38461538461539,78.57142857142857,0.00028711035421739736,0.5920124053955078
737,0.8407183885574341,0.7017971277236938,82.6923076923077,92.85714285714286,96.15384615384616,85.71428571428571,0.0003014260546825424,0.5902671813964844
738,0.7343317568302155,1.0059561729431152,84.61538461538461,78.57142857142857,90.38461538461539,85.71428571428571,0.00031593772365758955,0.5963468551635742
739,0.8410049080848694,1.1664283275604248,84.61538461538461,71.42857142857143,90.38461538461539,78.57142857142857,0.0003306310398772786,0.5904004573822021
740,0.7288879752159119,0.9234766960144043,90.38461538461539,78.57142857142857,88.46153846153847,78.57142857142857,0.00034549150281244794,0.5922825336456299
741,0.7423153221607208,0.9458203315734863,86.53846153846153,71.42857142857143,88.46153846153847,78.57142857142857,0.0003605044469803044,0.589785099029541
742,0.7801891565322876,0.9166826009750366,90.38461538461539,71.42857142857143,92.3076923076923,78.57142857142857,0.00037565505641748724,0.5931277275085449
743,0.7191230952739716,1.2449376583099365,82.6923076923077,71.42857142857143,94.23076923076923,78.57142857142857,0.00039092837930163895,0.5921804904937744
744,0.6115222871303558,1.3496426343917847,92.3076923076923,71.42857142857143,92.3076923076923,92.85714285714286,0.00040630934270704524,0.5932579040527344
745,0.7168429791927338,0.937386155128479,94.23076923076923,85.71428571428571,94.23076923076923,85.71428571428571,0.00042178276747978935,0.5877184867858887
746,0.749117910861969,1.3501145839691162,86.53846153846153,64.28571428571429,86.53846153846153,71.42857142857143,0.0004373333832177482,0.5887370109558105
747,0.8177312016487122,0.8109517097473145,90.38461538461539,85.71428571428571,90.38461538461539,78.57142857142857,0.00045294584334064055,0.5999712944030762
748,0.5907374918460846,1.3428256511688232,90.38461538461539,85.71428571428571,96.15384615384616,78.57142857142857,0.00046860474023523825,0.5909981727600098
749,0.7052687108516693,1.0219920873641968,86.53846153846153,71.42857142857143,94.23076923076923,92.85714285714286,0.00048429462046082624,0.5912666320800781
750,0.7321746647357941,1.4155806303024292,88.46153846153847,71.42857142857143,92.3076923076923,78.57142857142857,0.0004999999999998858,0.597999095916748
751,0.751790851354599,0.6601496338844299,82.6923076923077,92.85714285714286,88.46153846153847,85.71428571428571,0.0005157053795389471,0.5860161781311035
752,0.5700016617774963,1.0088862180709839,94.23076923076923,78.57142857142857,96.15384615384616,78.57142857142857,0.000531395259764537,0.5896275043487549
753,0.8991170525550842,1.0534212589263916,80.76923076923077,71.42857142857143,92.3076923076923,85.71428571428571,0.0005470541566591329,0.5893468856811523
754,0.6034183502197266,0.7961805462837219,92.3076923076923,85.71428571428571,92.3076923076923,92.85714285714286,0.0005626666167820234,0.5908312797546387
755,0.5429699420928955,0.8805318474769592,96.15384615384616,92.85714285714286,96.15384615384616,85.71428571428571,0.000578217232519984,0.5952413082122803
756,0.8017072379589081,1.163670539855957,88.46153846153847,78.57142857142857,90.38461538461539,85.71428571428571,0.0005936906572927282,0.584296703338623
757,0.7877667248249054,0.8820905685424805,84.61538461538461,92.85714285714286,94.23076923076923,78.57142857142857,0.0006090716206981328,0.5907917022705078
758,0.6445781290531158,0.6602054238319397,86.53846153846153,92.85714285714286,90.38461538461539,78.57142857142857,0.0006243449435822862,0.591151237487793
759,0.6541112065315247,0.9673084020614624,86.53846153846153,85.71428571428571,92.3076923076923,78.57142857142857,0.0006394955530194708,0.5931365489959717
760,0.7641084790229797,0.7432960271835327,82.6923076923077,92.85714285714286,90.38461538461539,71.42857142857143,0.0006545084971873256,0.5890367031097412
761,0.7922042310237885,0.6563596725463867,88.46153846153847,92.85714285714286,84.61538461538461,85.71428571428571,0.0006693689601224933,0.5899174213409424
762,0.6830078065395355,0.741488516330719,90.38461538461539,92.85714285714286,92.3076923076923,71.42857142857143,0.000684062276342184,0.5942840576171875
763,0.7796095609664917,1.3742575645446777,86.53846153846153,71.42857142857143,94.23076923076923,92.85714285714286,0.0006985739453172327,0.5823512077331543
764,0.7505890727043152,1.1081445217132568,88.46153846153847,85.71428571428571,90.38461538461539,85.71428571428571,0.0007128896457823746,0.5947132110595703
765,0.7478498816490173,0.6110268235206604,84.61538461538461,92.85714285714286,90.38461538461539,92.85714285714286,0.0007269952498696092,0.5875568389892578
766,0.8825080394744873,1.044233798980713,84.61538461538461,85.71428571428571,92.3076923076923,78.57142857142857,0.0007408768370506894,0.5937340259552002
767,0.7749564051628113,1.0632014274597168,84.61538461538461,85.71428571428571,94.23076923076923,78.57142857142857,0.000754520707875015,0.591658353805542
768,0.6787313520908356,0.945784866809845,90.38461538461539,78.57142857142857,94.23076923076923,85.71428571428571,0.000767913397489324,0.591280460357666
769,1.0146382749080658,1.3012406826019287,75.0,71.42857142857143,90.38461538461539,92.85714285714286,0.0007810416889258886,0.598088264465332
770,0.8872637450695038,0.8434160947799683,84.61538461538461,85.71428571428571,86.53846153846153,71.42857142857143,0.0007938926261460577,0.5879895687103271
771,0.8136346936225891,1.0426573753356934,84.61538461538461,78.57142857142857,90.38461538461539,92.85714285714286,0.0008064535268263057,0.5914888381958008
772,0.8724136352539062,0.8679667711257935,86.53846153846153,85.71428571428571,96.15384615384616,85.71428571428571,0.0008187119948741587,0.593475341796875
773,0.9011659622192383,0.9177975058555603,76.92307692307692,92.85714285714286,90.38461538461539,85.71428571428571,0.0008306559326616377,0.592836856842041
774,0.9695417284965515,1.4299782514572144,71.15384615384616,71.42857142857143,90.38461538461539,71.42857142857143,0.0008422735529641542,0.5933561325073242
775,0.8078761994838715,0.8982126712799072,82.6923076923077,85.71428571428571,90.38461538461539,64.28571428571429,0.0008535533905930803,0.5879700183868408
776,0.8159369230270386,0.6659404039382935,82.6923076923077,92.85714285714286,92.3076923076923,85.71428571428571,0.0008644843137105105,0.5938918590545654
777,0.8763583302497864,1.265551209449768,84.61538461538461,78.57142857142857,86.53846153846153,78.57142857142857,0.0008750555348150315,0.5832228660583496
778,0.9968929886817932,0.988711953163147,75.0,92.85714285714286,90.38461538461539,78.57142857142857,0.0008852566213876945,0.6101887226104736
779,0.7068786025047302,0.7065252661705017,86.53846153846153,92.85714285714286,96.15384615384616,85.71428571428571,0.0008950775061876422,0.5936553478240967
780,0.8474458158016205,0.8822483420372009,80.76923076923077,85.71428571428571,92.3076923076923,78.57142857142857,0.0009045084971872693,0.5940628051757812
781,0.8845327496528625,1.6369538307189941,80.76923076923077,64.28571428571429,94.23076923076923,78.57142857142857,0.0009135402871370748,0.5958681106567383
782,1.0077353417873383,0.9537457227706909,76.92307692307692,85.71428571428571,86.53846153846153,78.57142857142857,0.0009221639627507988,0.5914106369018555
783,0.8686929941177368,0.6450254321098328,78.84615384615384,92.85714285714286,86.53846153846153,85.71428571428571,0.0009303710135017616,0.5905585289001465
784,0.9221838712692261,0.7507604360580444,76.92307692307692,85.71428571428571,92.3076923076923,78.57142857142857,0.0009381533400217194,0.5875346660614014
