epoch,train_loss,test_loss,train_acc_action,test_acc_action,train_acc_status,test_acc_status,learning_rate,epoch_time
1,1.8961536884307861,1.7507777214050293,30.76923076923077,42.857142857142854,23.076923076923077,35.714285714285715,0.00039990131207314633,0.8887233734130859
2,1.7799887657165527,1.760000228881836,38.46153846153846,35.714285714285715,55.76923076923077,85.71428571428571,0.00039960534568565434,0.6162614822387695
3,1.733420968055725,1.701051950454712,46.15384615384615,50.0,63.46153846153846,85.71428571428571,0.00039911239292061604,0.6165704727172852
4,1.746605634689331,1.7175729274749756,38.46153846153846,42.857142857142854,67.3076923076923,85.71428571428571,0.00039842294026289565,0.6129159927368164
5,1.739492118358612,1.6671791076660156,38.46153846153846,42.857142857142854,82.6923076923077,85.71428571428571,0.0003975376681190276,0.6202654838562012
6,1.7174317240715027,1.6135671138763428,36.53846153846154,57.142857142857146,82.6923076923077,85.71428571428571,0.0003964574501457378,0.6138792037963867
7,1.6921817064285278,1.6143040657043457,40.38461538461539,50.0,80.76923076923077,85.71428571428571,0.00039518335238774953,0.6146965026855469
8,1.6306023597717285,1.6272926330566406,44.23076923076923,50.0,80.76923076923077,85.71428571428571,0.00039371663222572626,0.6209609508514404
9,1.6223355531692505,1.7194750308990479,51.92307692307692,57.142857142857146,82.6923076923077,85.71428571428571,0.0003920587371353887,0.6141526699066162
10,1.6284260153770447,1.5542452335357666,40.38461538461539,85.71428571428571,80.76923076923077,85.71428571428571,0.0003902113032590308,0.6183910369873047
11,1.6737735271453857,1.6379120349884033,40.38461538461539,42.857142857142854,82.6923076923077,85.71428571428571,0.0003881761537908452,0.6321821212768555
12,1.6579520106315613,1.550463318824768,48.07692307692308,57.142857142857146,82.6923076923077,85.71428571428571,0.0003859552971776504,0.6160852909088135
13,1.6162680983543396,1.5329370498657227,48.07692307692308,64.28571428571429,84.61538461538461,85.71428571428571,0.0003835509251367963,0.614506721496582
14,1.6982558965682983,1.4716544151306152,36.53846153846154,64.28571428571429,82.6923076923077,85.71428571428571,0.000380965410493204,0.6141908168792725
15,1.5969700813293457,1.461472988128662,46.15384615384615,78.57142857142857,80.76923076923077,85.71428571428571,0.0003782013048376737,0.6163067817687988
16,1.5563424229621887,1.452094554901123,46.15384615384615,78.57142857142857,82.6923076923077,85.71428571428571,0.00037526133600877283,0.6194078922271729
17,1.5198243856430054,1.4082685708999634,50.0,64.28571428571429,82.6923076923077,85.71428571428571,0.0003721484054007889,0.6137237548828125
18,1.5138063430786133,1.3829259872436523,51.92307692307692,71.42857142857143,82.6923076923077,85.71428571428571,0.0003688655851004032,0.6166210174560547
19,1.567920446395874,1.364364743232727,57.69230769230769,85.71428571428571,82.6923076923077,85.71428571428571,0.00036541611485491255,0.61515212059021
20,1.4279374480247498,1.405304193496704,67.3076923076923,64.28571428571429,80.76923076923077,85.71428571428571,0.0003618033988749897,0.6120612621307373
21,1.5342568159103394,1.2829301357269287,51.92307692307692,71.42857142857143,82.6923076923077,85.71428571428571,0.00035803100247513823,0.6141684055328369
22,1.404041826725006,1.2610132694244385,67.3076923076923,78.57142857142857,82.6923076923077,85.71428571428571,0.000354102648555158,0.6081740856170654
23,1.4192895889282227,1.1398452520370483,53.84615384615385,85.71428571428571,82.6923076923077,85.71428571428571,0.0003500222139260921,0.6143434047698975
24,1.5079774856567383,1.4049110412597656,59.61538461538461,64.28571428571429,82.6923076923077,85.71428571428571,0.00034579372548428246,0.6091148853302002
25,1.3701622486114502,1.2389771938323975,69.23076923076923,64.28571428571429,80.76923076923077,85.71428571428571,0.0003414213562373096,0.6140353679656982
26,1.452193558216095,1.4109103679656982,67.3076923076923,50.0,82.6923076923077,85.71428571428571,0.00033690942118573785,0.6146507263183594
27,1.4064993262290955,1.459852695465088,63.46153846153846,50.0,80.76923076923077,85.71428571428571,0.0003322623730647305,0.6119868755340576
28,1.3986514210700989,1.035642147064209,59.61538461538461,78.57142857142857,82.6923076923077,85.71428571428571,0.00032748479794973803,0.6125838756561279
29,1.352691113948822,1.1529403924942017,71.15384615384616,71.42857142857143,82.6923076923077,85.71428571428571,0.00032258141073059543,0.6159396171569824
30,1.421015977859497,1.2156695127487183,61.53846153846154,64.28571428571429,82.6923076923077,85.71428571428571,0.0003175570504584948,0.6130456924438477
31,1.345739483833313,0.9162348508834839,67.3076923076923,85.71428571428571,82.6923076923077,85.71428571428571,0.0003124166755704263,0.6100161075592041
32,1.4103074073791504,1.0849212408065796,55.76923076923077,78.57142857142857,82.6923076923077,85.71428571428571,0.0003071653589957995,0.6091117858886719
33,1.307064414024353,1.2158199548721313,71.15384615384616,64.28571428571429,82.6923076923077,85.71428571428571,0.00030180828315007444,0.6116924285888672
34,1.4116557836532593,1.343827486038208,61.53846153846154,64.28571428571429,82.6923076923077,85.71428571428571,0.0002963507348203432,0.608797550201416
35,1.3358996510505676,1.3128137588500977,69.23076923076923,64.28571428571429,82.6923076923077,85.71428571428571,0.00029079809994790953,0.6123220920562744
36,1.2880368828773499,1.1938128471374512,63.46153846153846,78.57142857142857,82.6923076923077,85.71428571428571,0.00028515585831301473,0.6159665584564209
37,1.233151912689209,1.206372857093811,75.0,71.42857142857143,82.6923076923077,85.71428571428571,0.0002794295781269563,0.6117749214172363
38,1.2998298406600952,1.3323078155517578,71.15384615384616,64.28571428571429,82.6923076923077,85.71428571428571,0.0002736249105369358,0.6170899868011475
39,1.24048513174057,1.5044710636138916,71.15384615384616,57.142857142857146,82.6923076923077,85.71428571428571,0.0002677475840490585,0.6108756065368652
40,1.2514175772666931,1.158327341079712,63.46153846153846,78.57142857142857,82.6923076923077,85.71428571428571,0.0002618033988749897,0.6187922954559326
41,1.283102035522461,1.3423031568527222,75.0,71.42857142857143,82.6923076923077,85.71428571428571,0.0002557982212078461,0.6167941093444824
42,1.2916632890701294,1.2088258266448975,61.53846153846154,71.42857142857143,82.6923076923077,85.71428571428571,0.00024973797743297113,0.6124446392059326
43,1.1913105845451355,1.0497183799743652,80.76923076923077,78.57142857142857,82.6923076923077,85.71428571428571,0.00024362864827930873,0.6198046207427979
44,1.217456042766571,1.2819459438323975,76.92307692307692,64.28571428571429,82.6923076923077,85.71428571428571,0.00023747626291714514,0.6160593032836914
45,1.15821772813797,1.6019055843353271,71.15384615384616,50.0,82.6923076923077,85.71428571428571,0.00023128689300804637,0.6155362129211426
46,1.172549068927765,1.1603294610977173,76.92307692307692,50.0,82.6923076923077,85.71428571428571,0.00022506664671286108,0.6100494861602783
47,1.1202915906906128,1.3607858419418335,76.92307692307692,57.142857142857146,82.6923076923077,85.71428571428571,0.00021882166266370303,0.6138877868652344
48,1.14259934425354,1.4608960151672363,71.15384615384616,50.0,82.6923076923077,85.71428571428571,0.00021255810390586287,0.618497371673584
49,1.2058980464935303,1.164222240447998,69.23076923076923,57.142857142857146,82.6923076923077,85.71428571428571,0.00020628215181562584,0.6145591735839844
50,1.3067521452903748,1.3269908428192139,63.46153846153846,71.42857142857143,82.6923076923077,85.71428571428571,0.00020000000000000017,0.6121504306793213
51,1.0628153085708618,1.3311597108840942,78.84615384615384,64.28571428571429,82.6923076923077,85.71428571428571,0.0001937178481843745,0.6152257919311523
52,1.2804753184318542,1.3263959884643555,71.15384615384616,57.142857142857146,80.76923076923077,85.71428571428571,0.00018744189609413747,0.6062228679656982
53,1.209360122680664,1.09537672996521,73.07692307692308,78.57142857142857,82.6923076923077,85.71428571428571,0.00018117833733629726,0.6132514476776123
54,1.1184425354003906,1.582782506942749,65.38461538461539,50.0,82.6923076923077,85.71428571428571,0.0001749333532871393,0.611945390701294
55,1.3060212135314941,1.0287086963653564,69.23076923076923,71.42857142857143,82.6923076923077,85.71428571428571,0.00016871310699195395,0.6109752655029297
56,1.3948496580123901,1.166835904121399,69.23076923076923,64.28571428571429,82.6923076923077,85.71428571428571,0.0001625237370828552,0.6139953136444092
57,1.1786912679672241,1.1634986400604248,71.15384615384616,64.28571428571429,82.6923076923077,85.71428571428571,0.00015637135172069167,0.6292662620544434
58,1.2823070287704468,1.569838523864746,69.23076923076923,57.142857142857146,82.6923076923077,85.71428571428571,0.00015026202256702916,0.6162407398223877
59,1.2229763269424438,1.1465930938720703,69.23076923076923,78.57142857142857,82.6923076923077,85.71428571428571,0.0001442017787921543,0.6207089424133301
60,1.2995902299880981,1.1507760286331177,71.15384615384616,71.42857142857143,82.6923076923077,85.71428571428571,0.0001381966011250107,0.6160411834716797
61,1.0852997303009033,1.0490485429763794,75.0,71.42857142857143,82.6923076923077,85.71428571428571,0.00013225241595094187,0.6142270565032959
62,1.0675065517425537,1.4226624965667725,69.23076923076923,57.142857142857146,82.6923076923077,85.71428571428571,0.0001263750894630646,0.6101937294006348
63,1.0988345742225647,1.3075617551803589,75.0,64.28571428571429,82.6923076923077,85.71428571428571,0.00012057042187304399,0.613501787185669
64,1.1993097066879272,1.2342007160186768,69.23076923076923,42.857142857142854,82.6923076923077,85.71428571428571,0.00011484414168698559,0.6107785701751709
65,1.0983928442001343,1.3379838466644287,76.92307692307692,71.42857142857143,82.6923076923077,85.71428571428571,0.00010920190005209077,0.6128778457641602
66,1.0639294385910034,0.8665897846221924,73.07692307692308,85.71428571428571,82.6923076923077,85.71428571428571,0.00010364926517965704,0.6117908954620361
67,1.3245529532432556,1.1048423051834106,76.92307692307692,71.42857142857143,82.6923076923077,85.71428571428571,9.819171684992585e-05,0.6111173629760742
68,1.2584788799285889,0.9157891869544983,65.38461538461539,78.57142857142857,82.6923076923077,85.71428571428571,9.283464100420074e-05,0.6077263355255127
69,1.0442845225334167,1.0750162601470947,78.84615384615384,64.28571428571429,82.6923076923077,85.71428571428571,8.758332442957398e-05,0.6188907623291016
70,1.0949499607086182,1.5303425788879395,75.0,42.857142857142854,82.6923076923077,85.71428571428571,8.24429495415055e-05,0.6192431449890137
71,1.3055750131607056,0.9872031211853027,76.92307692307692,71.42857142857143,82.6923076923077,85.71428571428571,7.741858926940478e-05,0.6186840534210205
72,1.011280745267868,0.9628273248672485,82.6923076923077,71.42857142857143,82.6923076923077,85.71428571428571,7.251520205026215e-05,0.6122245788574219
73,0.9741726815700531,1.2241125106811523,78.84615384615384,64.28571428571429,82.6923076923077,85.71428571428571,6.773762693526975e-05,0.6188638210296631
74,1.1400936245918274,1.0672509670257568,75.0,64.28571428571429,82.6923076923077,85.71428571428571,6.309057881426234e-05,0.6098318099975586
75,1.1648509502410889,0.9178420305252075,75.0,78.57142857142857,82.6923076923077,85.71428571428571,5.857864376269059e-05,0.6155390739440918
76,1.1285855770111084,1.395876407623291,71.15384615384616,42.857142857142854,82.6923076923077,85.71428571428571,5.420627451571781e-05,0.6169719696044922
77,1.1629533171653748,1.289414405822754,75.0,71.42857142857143,82.6923076923077,85.71428571428571,4.9977786073908174e-05,0.6074495315551758
78,1.1583513021469116,1.3475310802459717,75.0,57.142857142857146,82.6923076923077,85.71428571428571,4.5897351444842234e-05,0.61366868019104
79,1.105153203010559,1.2619181871414185,78.84615384615384,64.28571428571429,82.6923076923077,85.71428571428571,4.1968997524861976e-05,0.6078715324401855
80,1.165480136871338,0.8858876824378967,75.0,78.57142857142857,82.6923076923077,85.71428571428571,3.8196601125010586e-05,0.6148407459259033
81,1.3189260959625244,1.248258113861084,75.0,64.28571428571429,82.6923076923077,85.71428571428571,3.458388514508772e-05,0.6110246181488037
82,1.2140816450119019,0.9764993190765381,69.23076923076923,71.42857142857143,82.6923076923077,85.71428571428571,3.113441489959707e-05,0.6078193187713623
83,1.0764563083648682,0.966741681098938,76.92307692307692,78.57142857142857,82.6923076923077,85.71428571428571,2.7851594599211286e-05,0.6114892959594727
84,1.1229282021522522,1.0930570363998413,76.92307692307692,78.57142857142857,82.6923076923077,85.71428571428571,2.4738663991227316e-05,0.6074392795562744
85,1.1306004524230957,0.9026066064834595,71.15384615384616,71.42857142857143,82.6923076923077,85.71428571428571,2.179869516232647e-05,0.6155269145965576
86,1.1538125872612,1.0935932397842407,76.92307692307692,78.57142857142857,82.6923076923077,85.71428571428571,1.9034589506796152e-05,0.6114811897277832
87,1.149842381477356,1.060805082321167,76.92307692307692,71.42857142857143,82.6923076923077,85.71428571428571,1.6449074863203837e-05,0.6166765689849854
88,0.9837196469306946,1.1397030353546143,82.6923076923077,64.28571428571429,82.6923076923077,85.71428571428571,1.4044702822349747e-05,0.6140255928039551
89,1.01298126578331,1.188989520072937,80.76923076923077,64.28571428571429,82.6923076923077,85.71428571428571,1.1823846209154923e-05,0.6128139495849609
90,1.0579391717910767,1.3738266229629517,75.0,57.142857142857146,82.6923076923077,85.71428571428571,9.788696740969305e-06,0.6176471710205078
91,1.3061285018920898,1.1500219106674194,75.0,64.28571428571429,82.6923076923077,85.71428571428571,7.941262864611418e-06,0.6211090087890625
92,1.2029973864555359,1.3601117134094238,76.92307692307692,64.28571428571429,82.6923076923077,85.71428571428571,6.283367774273814e-06,0.6191797256469727
93,1.1131885051727295,0.9878993034362793,75.0,64.28571428571429,82.6923076923077,85.71428571428571,4.816647612250541e-06,0.6160197257995605
94,1.1669404208660126,0.9484227299690247,80.76923076923077,71.42857142857143,82.6923076923077,85.71428571428571,3.54254985426226e-06,0.6102578639984131
95,1.2292425036430359,0.9726262092590332,75.0,71.42857142857143,82.6923076923077,85.71428571428571,2.462331880972471e-06,0.6141715049743652
96,1.0595397353172302,1.1975739002227783,78.84615384615384,64.28571428571429,82.6923076923077,85.71428571428571,1.577059737104449e-06,0.6140849590301514
97,1.1778711676597595,1.1372921466827393,75.0,64.28571428571429,82.6923076923077,85.71428571428571,8.876070793840018e-07,0.6102018356323242
98,1.094003438949585,0.8973162174224854,78.84615384615384,78.57142857142857,82.6923076923077,85.71428571428571,3.946543143456887e-07,0.6185293197631836
99,1.0010358691215515,0.9325789213180542,90.38461538461539,71.42857142857143,82.6923076923077,85.71428571428571,9.86879268536801e-08,0.6099438667297363
100,1.1353776454925537,0.9014353156089783,71.15384615384616,85.71428571428571,82.6923076923077,85.71428571428571,0.0,0.614314079284668
101,1.038750171661377,1.0874106884002686,75.0,64.28571428571429,82.6923076923077,85.71428571428571,2.467198171342e-07,0.6107611656188965
102,1.1486688256263733,0.9735794067382812,69.23076923076923,71.42857142857143,82.6923076923077,85.71428571428571,9.866357858642204e-07,0.6138396263122559
103,1.3374717235565186,1.0699485540390015,75.0,64.28571428571429,82.6923076923077,85.71428571428571,2.2190176984600015e-06,0.6156332492828369
104,1.1529809832572937,1.039230227470398,76.92307692307692,64.28571428571429,82.6923076923077,85.71428571428571,3.9426493427610614e-06,0.6086587905883789
105,1.071853518486023,0.9557164907455444,76.92307692307692,78.57142857142857,82.6923076923077,85.71428571428571,6.155829702431114e-06,0.6161477565765381
106,1.1341663599014282,1.2176811695098877,76.92307692307692,71.42857142857143,82.6923076923077,85.71428571428571,8.856374635655695e-06,0.6128456592559814
107,1.0114474296569824,1.1129801273345947,80.76923076923077,71.42857142857143,82.6923076923077,85.71428571428571,1.2041619030626284e-05,0.6162707805633545
108,1.212155282497406,1.1385517120361328,75.0,64.28571428571429,82.6923076923077,85.71428571428571,1.570841943568441e-05,0.6112179756164551
109,1.2883973121643066,1.121930480003357,65.38461538461539,64.28571428571429,82.6923076923077,85.71428571428571,1.9853157161528415e-05,0.6312501430511475
110,1.2094324827194214,1.0571914911270142,75.0,71.42857142857143,84.61538461538461,85.71428571428571,2.447174185242318e-05,0.6162595748901367
111,1.027299404144287,1.0427929162979126,78.84615384615384,71.42857142857143,82.6923076923077,85.71428571428571,2.9559615522887274e-05,0.6163816452026367
112,1.2937946915626526,1.303122878074646,65.38461538461539,42.857142857142854,82.6923076923077,85.71428571428571,3.511175705587427e-05,0.612452507019043
113,1.1262741088867188,1.0133798122406006,75.0,71.42857142857143,82.6923076923077,85.71428571428571,4.112268715800937e-05,0.6148643493652344
114,1.1293001174926758,1.3040659427642822,76.92307692307692,57.142857142857146,82.6923076923077,85.71428571428571,4.758647376699015e-05,0.6133055686950684
115,0.9475087523460388,0.9089222550392151,86.53846153846153,71.42857142857143,82.6923076923077,85.71428571428571,5.449673790581616e-05,0.612816572189331
116,1.1953552961349487,1.1406934261322021,80.76923076923077,57.142857142857146,82.6923076923077,85.71428571428571,6.18466599780682e-05,0.6168324947357178
117,1.0601052343845367,1.4020771980285645,75.0,64.28571428571429,82.6923076923077,85.71428571428571,6.962898649802817e-05,0.6116867065429688
118,1.0642049312591553,1.1148412227630615,73.07692307692308,78.57142857142857,82.6923076923077,85.71428571428571,7.78360372489924e-05,0.6141922473907471
119,1.2550321817398071,0.9662637710571289,71.15384615384616,71.42857142857143,82.6923076923077,85.71428571428571,8.645971286271896e-05,0.6063079833984375
120,1.154500126838684,1.1545275449752808,73.07692307692308,71.42857142857143,82.6923076923077,85.71428571428571,9.54915028125261e-05,0.6219680309295654
121,1.1194835305213928,1.2415755987167358,71.15384615384616,64.28571428571429,82.6923076923077,85.71428571428571,0.00010492249381215483,0.6115527153015137
122,1.131410837173462,1.3344852924346924,71.15384615384616,57.142857142857146,82.6923076923077,85.71428571428571,0.00011474337861210537,0.6103427410125732
123,1.1486143469810486,1.0596431493759155,75.0,71.42857142857143,82.6923076923077,85.71428571428571,0.00012494446518477014,0.612797737121582
124,1.150076687335968,1.0131869316101074,78.84615384615384,64.28571428571429,84.61538461538461,85.71428571428571,0.00013551568628929406,0.608933687210083
125,0.894505500793457,1.2757576704025269,84.61538461538461,57.142857142857146,82.6923076923077,85.71428571428571,0.00014644660940672606,0.6100678443908691
126,1.2411656975746155,0.8659017086029053,69.23076923076923,85.71428571428571,82.6923076923077,85.71428571428571,0.00015772644703565569,0.6185786724090576
127,0.9923170804977417,1.04177987575531,82.6923076923077,71.42857142857143,82.6923076923077,85.71428571428571,0.00016934406733817403,0.6159977912902832
128,1.2324141263961792,1.1939972639083862,71.15384615384616,64.28571428571429,82.6923076923077,85.71428571428571,0.00018128800512565523,0.6179132461547852
129,1.1004259586334229,1.2423386573791504,76.92307692307692,71.42857142857143,82.6923076923077,85.71428571428571,0.00019354647317351177,0.6058528423309326
130,1.1330324411392212,1.2402760982513428,73.07692307692308,71.42857142857143,82.6923076923077,85.71428571428571,0.0002061073738537634,0.6173903942108154
131,1.0473125576972961,1.3384557962417603,75.0,57.142857142857146,82.6923076923077,85.71428571428571,0.00021895831107393457,0.6160013675689697
132,1.2855201363563538,1.0637602806091309,73.07692307692308,57.142857142857146,82.6923076923077,85.71428571428571,0.00023208660251050189,0.6160383224487305
133,1.0622751116752625,0.9189111590385437,78.84615384615384,85.71428571428571,82.6923076923077,85.71428571428571,0.00024547929212481446,0.6145169734954834
134,1.0348583459854126,1.2143714427947998,78.84615384615384,57.142857142857146,82.6923076923077,85.71428571428571,0.0002591231629491424,0.6061232089996338
135,1.210084319114685,1.228766918182373,67.3076923076923,50.0,82.6923076923077,85.71428571428571,0.0002730047501302265,0.6169419288635254
136,1.1009836196899414,1.2976393699645996,86.53846153846153,50.0,82.6923076923077,85.71428571428571,0.0002871103542174639,0.6154708862304688
137,1.2658753395080566,0.8168434500694275,71.15384615384616,78.57142857142857,82.6923076923077,85.71428571428571,0.0003014260546826098,0.6125161647796631
138,1.0659801959991455,1.394824743270874,78.84615384615384,64.28571428571429,82.6923076923077,85.71428571428571,0.00031593772365766105,0.6149373054504395
139,1.0439994931221008,0.9325847625732422,82.6923076923077,71.42857142857143,82.6923076923077,85.71428571428571,0.00033063103987735425,0.6137950420379639
140,0.9764719605445862,1.0521026849746704,82.6923076923077,71.42857142857143,82.6923076923077,85.71428571428571,0.00034549150281252617,0.6130416393280029
141,0.9958999454975128,0.881240725517273,82.6923076923077,71.42857142857143,82.6923076923077,85.71428571428571,0.0003605044469803852,0.6122846603393555
142,1.2418392300605774,0.7797545194625854,71.15384615384616,85.71428571428571,84.61538461538461,85.71428571428571,0.00037565505641757284,0.6184074878692627
143,1.1488733291625977,0.9224328994750977,71.15384615384616,78.57142857142857,82.6923076923077,85.71428571428571,0.00039092837930172883,0.6155011653900146
144,1.1261842846870422,1.2340800762176514,73.07692307692308,64.28571428571429,82.6923076923077,85.71428571428571,0.0004063093427071377,0.6150710582733154
145,0.9922699332237244,0.8006770610809326,75.0,85.71428571428571,84.61538461538461,85.71428571428571,0.00042178276747988454,0.6146903038024902
146,0.9244731962680817,1.2120659351348877,84.61538461538461,71.42857142857143,82.6923076923077,85.71428571428571,0.00043733338321784774,0.6201026439666748
147,1.0511637330055237,1.1403000354766846,80.76923076923077,71.42857142857143,80.76923076923077,85.71428571428571,0.000452945843340743,0.6230518817901611
148,1.0653194785118103,1.1872774362564087,76.92307692307692,71.42857142857143,84.61538461538461,85.71428571428571,0.00046860474023534336,0.6265928745269775
149,1.0090607106685638,0.8634504675865173,78.84615384615384,85.71428571428571,82.6923076923077,85.71428571428571,0.00048429462046093585,0.6171352863311768
150,1.110632300376892,1.1575113534927368,73.07692307692308,64.28571428571429,84.61538461538461,92.85714285714286,0.0004999999999999999,0.6170973777770996
151,1.014592856168747,1.2723276615142822,80.76923076923077,57.142857142857146,78.84615384615384,85.71428571428571,0.0005157053795390639,0.6204485893249512
152,1.0931329131126404,1.1842156648635864,71.15384615384616,71.42857142857143,82.6923076923077,85.71428571428571,0.0005313952597646563,0.6180665493011475
153,0.8837884664535522,0.9189846515655518,90.38461538461539,78.57142857142857,82.6923076923077,71.42857142857143,0.0005470541566592572,0.625079870223999
154,1.0047035813331604,0.7151905298233032,78.84615384615384,85.71428571428571,84.61538461538461,85.71428571428571,0.0005626666167821521,0.6163136959075928
155,1.1401419639587402,1.4483857154846191,71.15384615384616,57.142857142857146,86.53846153846153,71.42857142857143,0.0005782172325201154,0.616398811340332
156,1.095674991607666,0.9894495010375977,78.84615384615384,71.42857142857143,82.6923076923077,78.57142857142857,0.0005936906572928622,0.6134655475616455
157,1.0650869309902191,0.9512530565261841,75.0,71.42857142857143,82.6923076923077,92.85714285714286,0.0006090716206982711,0.6063535213470459
158,1.1475164890289307,1.3410903215408325,76.92307692307692,71.42857142857143,94.23076923076923,92.85714285714286,0.0006243449435824275,0.6305332183837891
159,0.8679096102714539,1.0366015434265137,84.61538461538461,71.42857142857143,78.84615384615384,92.85714285714286,0.0006394955530196146,0.6103582382202148
160,1.2056102752685547,1.2233572006225586,73.07692307692308,57.142857142857146,80.76923076923077,85.71428571428571,0.0006545084971874736,0.6091721057891846
161,1.147267997264862,1.8044880628585815,73.07692307692308,57.142857142857146,86.53846153846153,92.85714285714286,0.0006693689601226455,0.6105508804321289
162,1.0736303925514221,1.1688916683197021,69.23076923076923,57.142857142857146,88.46153846153847,92.85714285714286,0.0006840622763423387,0.6111831665039062
163,1.135225236415863,1.4371663331985474,69.23076923076923,50.0,82.6923076923077,92.85714285714286,0.00069857394531739,0.613396406173706
164,1.3079124689102173,1.4090774059295654,71.15384615384616,64.28571428571429,84.61538461538461,71.42857142857143,0.0007128896457825359,0.6068668365478516
165,1.1773054599761963,1.0003018379211426,75.0,71.42857142857143,84.61538461538461,92.85714285714286,0.0007269952498697729,0.6154060363769531
166,1.1114206910133362,1.701444149017334,76.92307692307692,42.857142857142854,86.53846153846153,78.57142857142857,0.0007408768370508579,0.6149098873138428
167,1.1426233053207397,1.354011058807373,69.23076923076923,71.42857142857143,88.46153846153847,85.71428571428571,0.0007545207078751859,0.6089422702789307
168,1.1156628131866455,1.6865122318267822,75.0,42.857142857142854,88.46153846153847,92.85714285714286,0.0007679133974894986,0.608328104019165
169,1.1069058179855347,1.4644173383712769,73.07692307692308,64.28571428571429,82.6923076923077,85.71428571428571,0.0007810416889260655,0.6082234382629395
170,1.197401225566864,0.9343540668487549,75.0,78.57142857142857,92.3076923076923,78.57142857142857,0.0007938926261462367,0.6135320663452148
171,1.0238473415374756,1.3920869827270508,76.92307692307692,50.0,86.53846153846153,78.57142857142857,0.0008064535268264883,0.6165266036987305
172,1.055391550064087,1.3086497783660889,75.0,57.142857142857146,92.3076923076923,78.57142857142857,0.0008187119948743449,0.6100051403045654
173,1.0479561686515808,1.1432278156280518,82.6923076923077,71.42857142857143,86.53846153846153,78.57142857142857,0.0008306559326618259,0.612187385559082
174,1.0906212329864502,1.0058271884918213,71.15384615384616,71.42857142857143,84.61538461538461,92.85714285714286,0.0008422735529643441,0.6125907897949219
175,1.2178328037261963,1.0797454118728638,67.3076923076923,71.42857142857143,92.3076923076923,78.57142857142857,0.0008535533905932735,0.612001895904541
176,1.2696256637573242,0.9132602214813232,67.3076923076923,85.71428571428571,86.53846153846153,85.71428571428571,0.0008644843137107058,0.6098151206970215
177,1.0626187920570374,1.320164442062378,73.07692307692308,57.142857142857146,88.46153846153847,85.71428571428571,0.0008750555348152301,0.6095106601715088
178,1.1452075242996216,1.159171223640442,69.23076923076923,71.42857142857143,84.61538461538461,85.71428571428571,0.0008852566213878949,0.609060525894165
179,1.0729137063026428,1.0350085496902466,76.92307692307692,64.28571428571429,88.46153846153847,78.57142857142857,0.0008950775061878453,0.604130744934082
180,1.0155072212219238,1.0858722925186157,76.92307692307692,85.71428571428571,90.38461538461539,85.71428571428571,0.0009045084971874741,0.6120932102203369
181,1.0459147095680237,1.4803643226623535,75.0,57.142857142857146,82.6923076923077,78.57142857142857,0.0009135402871372812,0.6114251613616943
182,0.9478503465652466,1.4427564144134521,73.07692307692308,57.142857142857146,92.3076923076923,92.85714285714286,0.0009221639627510079,0.6068665981292725
183,1.1112491488456726,1.5802805423736572,75.0,50.0,80.76923076923077,92.85714285714286,0.000930371013501972,0.6097877025604248
184,1.0099734365940094,1.0710726976394653,75.0,64.28571428571429,88.46153846153847,85.71428571428571,0.000938153340021932,0.6115014553070068
185,1.1262634992599487,1.4554084539413452,75.0,71.42857142857143,88.46153846153847,71.42857142857143,0.0009455032620941843,0.6086323261260986
186,0.9694623947143555,1.4637641906738281,80.76923076923077,57.142857142857146,86.53846153846153,85.71428571428571,0.0009524135262330102,0.608583927154541
187,1.2321543097496033,1.436882495880127,73.07692307692308,71.42857142857143,88.46153846153847,92.85714285714286,0.0009588773128419913,0.6114928722381592
188,1.0265265703201294,1.4370356798171997,78.84615384615384,64.28571428571429,78.84615384615384,92.85714285714286,0.0009648882429441262,0.6078524589538574
189,1.1028143763542175,1.1680033206939697,80.76923076923077,64.28571428571429,86.53846153846153,92.85714285714286,0.0009704403844771133,0.606947660446167
190,1.1868896484375,0.9763798713684082,73.07692307692308,78.57142857142857,84.61538461538461,85.71428571428571,0.0009755282581475773,0.6122570037841797
191,1.0148241817951202,0.9785256385803223,76.92307692307692,71.42857142857143,88.46153846153847,100.0,0.000980146842838472,0.6155471801757812
192,1.0977914929389954,1.3054805994033813,76.92307692307692,64.28571428571429,82.6923076923077,92.85714285714286,0.0009842915805643162,0.609032392501831
193,1.1304940581321716,1.2030898332595825,80.76923076923077,71.42857142857143,82.6923076923077,85.71428571428571,0.0009879583809693743,0.6210570335388184
194,1.1627326011657715,1.075530767440796,65.38461538461539,71.42857142857143,88.46153846153847,92.85714285714286,0.000991143625364345,0.6134977340698242
195,1.1912265419960022,1.4258822202682495,73.07692307692308,57.142857142857146,82.6923076923077,92.85714285714286,0.0009938441702975695,0.6064515113830566
196,1.128960132598877,1.2797198295593262,69.23076923076923,57.142857142857146,86.53846153846153,78.57142857142857,0.0009960573506572394,0.610743522644043
197,1.0277064740657806,1.1596946716308594,75.0,57.142857142857146,84.61538461538461,85.71428571428571,0.0009977809823015407,0.609168529510498
198,1.1925418972969055,1.2565793991088867,75.0,64.28571428571429,84.61538461538461,78.57142857142857,0.0009990133642141365,0.6053028106689453
199,0.9912826120853424,1.250928282737732,73.07692307692308,57.142857142857146,90.38461538461539,92.85714285714286,0.0009997532801828664,0.6027202606201172
200,1.0033652186393738,1.3499447107315063,76.92307692307692,57.142857142857146,86.53846153846153,100.0,0.0010000000000000007,0.6049513816833496
201,1.089752197265625,1.1150517463684082,78.84615384615384,78.57142857142857,84.61538461538461,71.42857142857143,0.0009997532801828664,0.6082611083984375
202,1.1751850843429565,1.2137280702590942,73.07692307692308,64.28571428571429,90.38461538461539,85.71428571428571,0.0009990133642141365,0.600733757019043
203,1.1660151481628418,1.2442758083343506,75.0,71.42857142857143,86.53846153846153,64.28571428571429,0.0009977809823015407,0.6041007041931152
204,1.1302604973316193,1.156436562538147,67.3076923076923,64.28571428571429,86.53846153846153,85.71428571428571,0.0009960573506572396,0.6080114841461182
205,1.1666383147239685,1.3550150394439697,75.0,64.28571428571429,88.46153846153847,85.71428571428571,0.0009938441702975695,0.6097309589385986
206,1.071975827217102,1.6285490989685059,71.15384615384616,50.0,92.3076923076923,92.85714285714286,0.000991143625364345,0.6114308834075928
207,1.217128872871399,1.1935120820999146,71.15384615384616,64.28571428571429,90.38461538461539,92.85714285714286,0.0009879583809693743,0.6265854835510254
208,0.9420874118804932,1.5457216501235962,80.76923076923077,42.857142857142854,88.46153846153847,92.85714285714286,0.000984291580564316,0.6183884143829346
209,0.9583519697189331,1.4609954357147217,76.92307692307692,64.28571428571429,78.84615384615384,78.57142857142857,0.000980146842838472,0.6059489250183105
210,1.0408496856689453,1.3093273639678955,75.0,57.142857142857146,86.53846153846153,78.57142857142857,0.0009755282581475773,0.6106140613555908
211,1.1017821431159973,1.3342701196670532,76.92307692307692,64.28571428571429,90.38461538461539,85.71428571428571,0.0009704403844771134,0.6095163822174072
212,1.231154978275299,0.98286372423172,78.84615384615384,71.42857142857143,82.6923076923077,85.71428571428571,0.0009648882429441263,0.6117260456085205
213,1.04991215467453,0.9406121969223022,76.92307692307692,78.57142857142857,82.6923076923077,92.85714285714286,0.000958877312841991,0.6118149757385254
214,1.104756772518158,1.1036760807037354,80.76923076923077,78.57142857142857,82.6923076923077,71.42857142857143,0.0009524135262330103,0.6083283424377441
215,1.0158041715621948,1.1864961385726929,82.6923076923077,71.42857142857143,88.46153846153847,92.85714285714286,0.0009455032620941846,0.6119115352630615
216,1.171932965517044,1.1093206405639648,76.92307692307692,71.42857142857143,84.61538461538461,64.28571428571429,0.0009381533400219324,0.6178126335144043
217,1.2241646647453308,1.2549200057983398,67.3076923076923,50.0,78.84615384615384,85.71428571428571,0.0009303710135019726,0.6040046215057373
218,1.3752739429473877,1.0852041244506836,63.46153846153846,64.28571428571429,82.6923076923077,85.71428571428571,0.0009221639627510083,0.6104097366333008
219,1.1293639242649078,1.4479050636291504,67.3076923076923,57.142857142857146,86.53846153846153,85.71428571428571,0.0009135402871372813,0.607804536819458
220,1.3760590553283691,1.3587056398391724,51.92307692307692,57.142857142857146,82.6923076923077,78.57142857142857,0.0009045084971874742,0.6122920513153076
221,1.3465172052383423,1.0136816501617432,63.46153846153846,71.42857142857143,80.76923076923077,92.85714285714286,0.0008950775061878455,0.6093802452087402
222,1.1763126850128174,1.078792691230774,71.15384615384616,78.57142857142857,76.92307692307692,85.71428571428571,0.000885256621387895,0.6073620319366455
223,1.1624115109443665,0.9398956298828125,67.3076923076923,92.85714285714286,86.53846153846153,78.57142857142857,0.0008750555348152302,0.6106956005096436
224,1.3735248446464539,1.0538557767868042,67.3076923076923,78.57142857142857,82.6923076923077,78.57142857142857,0.0008644843137107062,0.6081767082214355
225,1.2376732230186462,1.0746922492980957,69.23076923076923,71.42857142857143,88.46153846153847,78.57142857142857,0.0008535533905932743,0.6116068363189697
226,1.2439668774604797,1.475189208984375,59.61538461538461,57.142857142857146,86.53846153846153,92.85714285714286,0.0008422735529643449,0.6134369373321533
227,1.1185027956962585,1.1328933238983154,69.23076923076923,71.42857142857143,88.46153846153847,85.71428571428571,0.0008306559326618266,0.6074967384338379
228,1.2736351490020752,1.3941898345947266,63.46153846153846,57.142857142857146,80.76923076923077,85.71428571428571,0.0008187119948743455,0.6083931922912598
229,1.3344202041625977,1.3790645599365234,69.23076923076923,64.28571428571429,82.6923076923077,85.71428571428571,0.0008064535268264891,0.6097311973571777
230,1.1321409940719604,1.4595222473144531,73.07692307692308,42.857142857142854,84.61538461538461,85.71428571428571,0.0007938926261462368,0.6093130111694336
231,1.2595989108085632,0.9667178392410278,71.15384615384616,78.57142857142857,86.53846153846153,78.57142857142857,0.0007810416889260656,0.6091403961181641
232,1.042502999305725,1.5963579416275024,75.0,50.0,84.61538461538461,85.71428571428571,0.0007679133974894987,0.602586030960083
233,1.078254759311676,1.0479974746704102,75.0,78.57142857142857,88.46153846153847,85.71428571428571,0.0007545207078751862,0.612379789352417
234,1.0917231440544128,1.190330982208252,71.15384615384616,78.57142857142857,88.46153846153847,78.57142857142857,0.0007408768370508582,0.6078612804412842
235,1.137200951576233,1.246686577796936,65.38461538461539,78.57142857142857,82.6923076923077,78.57142857142857,0.000726995249869774,0.6101362705230713
236,1.2205562591552734,0.9660615921020508,71.15384615384616,78.57142857142857,88.46153846153847,71.42857142857143,0.0007128896457825371,0.6098999977111816
237,1.126947820186615,1.0855766534805298,73.07692307692308,78.57142857142857,88.46153846153847,85.71428571428571,0.0006985739453173912,0.6032030582427979
238,0.9577602744102478,0.836970329284668,86.53846153846153,85.71428571428571,86.53846153846153,71.42857142857143,0.00068406227634234,0.6167623996734619
239,1.1651056408882141,1.102522850036621,75.0,71.42857142857143,78.84615384615384,78.57142857142857,0.0006693689601226468,0.6092209815979004
240,1.0320850908756256,1.2618402242660522,75.0,64.28571428571429,88.46153846153847,92.85714285714286,0.0006545084971874749,0.6113986968994141
241,1.0946786999702454,1.4556963443756104,78.84615384615384,57.142857142857146,84.61538461538461,92.85714285714286,0.000639495553019615,0.6105399131774902
242,1.2205071449279785,1.4414536952972412,71.15384615384616,64.28571428571429,86.53846153846153,78.57142857142857,0.0006243449435824279,0.6134657859802246
243,0.9552578330039978,1.1100044250488281,78.84615384615384,71.42857142857143,92.3076923076923,92.85714285714286,0.0006090716206982718,0.6092984676361084
244,0.9388069808483124,1.2674214839935303,86.53846153846153,50.0,86.53846153846153,92.85714285714286,0.000593690657292863,0.6087617874145508
245,0.9170985817909241,1.0321847200393677,84.61538461538461,78.57142857142857,84.61538461538461,78.57142857142857,0.0005782172325201161,0.6176471710205078
246,1.0491369366645813,1.546555995941162,75.0,50.0,90.38461538461539,92.85714285714286,0.0005626666167821529,0.6125118732452393
247,0.9332610368728638,1.4376747608184814,78.84615384615384,57.142857142857146,88.46153846153847,92.85714285714286,0.000547054156659258,0.6103036403656006
248,0.9697365164756775,1.132500410079956,78.84615384615384,71.42857142857143,90.38461538461539,85.71428571428571,0.0005313952597646575,0.616142988204956
249,0.9124452173709869,1.4344786405563354,90.38461538461539,64.28571428571429,82.6923076923077,78.57142857142857,0.0005157053795390652,0.6170134544372559
250,0.9537214040756226,1.0812805891036987,80.76923076923077,71.42857142857143,84.61538461538461,78.57142857142857,0.000500000000000001,0.6170055866241455
251,1.0939434170722961,1.1319314241409302,78.84615384615384,64.28571428571429,86.53846153846153,85.71428571428571,0.000484294620460936,0.613023042678833
252,0.8221224248409271,1.293229103088379,82.6923076923077,71.42857142857143,92.3076923076923,92.85714285714286,0.0004686047402353436,0.62331223487854
253,1.1595805287361145,1.340193748474121,75.0,50.0,82.6923076923077,85.71428571428571,0.00045294584334074317,0.623784065246582
254,1.1546274423599243,1.2733738422393799,76.92307692307692,71.42857142857143,82.6923076923077,85.71428571428571,0.0004373333832178482,0.6173114776611328
255,1.1362253427505493,1.7312067747116089,75.0,57.142857142857146,88.46153846153847,78.57142857142857,0.0004217827674798846,0.6147258281707764
256,1.0301472842693329,1.3496038913726807,76.92307692307692,64.28571428571429,86.53846153846153,92.85714285714286,0.0004063093427071378,0.6166198253631592
257,0.9349551200866699,1.738250970840454,88.46153846153847,57.142857142857146,92.3076923076923,92.85714285714286,0.0003909283793017289,0.6360335350036621
258,0.9352894425392151,1.4292936325073242,78.84615384615384,57.142857142857146,88.46153846153847,85.71428571428571,0.0003756550564175728,0.627922534942627
259,1.153685986995697,1.2882776260375977,76.92307692307692,57.142857142857146,88.46153846153847,92.85714285714286,0.00036050444698038564,0.6156711578369141
260,1.2212501764297485,1.003663182258606,73.07692307692308,78.57142857142857,86.53846153846153,85.71428571428571,0.00034549150281252666,0.6193957328796387
261,0.992076963186264,1.1889398097991943,80.76923076923077,64.28571428571429,82.6923076923077,92.85714285714286,0.00033063103987735474,0.6237537860870361
262,0.9413004219532013,1.1584917306900024,78.84615384615384,71.42857142857143,86.53846153846153,85.71428571428571,0.00031593772365766154,0.6105270385742188
263,1.064864456653595,1.16130530834198,73.07692307692308,64.28571428571429,84.61538461538461,100.0,0.00030142605468260944,0.6180434226989746
264,0.9523840844631195,1.121228575706482,82.6923076923077,64.28571428571429,84.61538461538461,85.71428571428571,0.0002871103542174635,0.6136384010314941
265,1.0103476345539093,1.53023099899292,78.84615384615384,64.28571428571429,86.53846153846153,85.71428571428571,0.0002730047501302265,0.6319036483764648
266,0.901201605796814,1.0582746267318726,82.6923076923077,71.42857142857143,86.53846153846153,92.85714285714286,0.00025912316294914234,0.6192567348480225
267,1.025896966457367,1.5903429985046387,82.6923076923077,71.42857142857143,84.61538461538461,78.57142857142857,0.00024547929212481446,0.617605447769165
268,1.0084421634674072,1.5278769731521606,82.6923076923077,57.142857142857146,78.84615384615384,85.71428571428571,0.00023208660251050186,0.6114435195922852
269,1.0156968832015991,1.0335180759429932,76.92307692307692,85.71428571428571,88.46153846153847,85.71428571428571,0.00021895831107393495,0.63503098487854
270,1.0301002264022827,1.581376552581787,84.61538461538461,64.28571428571429,90.38461538461539,85.71428571428571,0.00020610737385376373,0.6422257423400879
271,0.8677909076213837,1.525392770767212,86.53846153846153,50.0,92.3076923076923,92.85714285714286,0.00019354647317351215,0.6186542510986328
272,0.8887510001659393,1.3649755716323853,82.6923076923077,57.142857142857146,86.53846153846153,92.85714285714286,0.0001812880051256549,0.653766393661499
273,0.8770469725131989,1.4007184505462646,82.6923076923077,64.28571428571429,78.84615384615384,92.85714285714286,0.00016934406733817387,0.6420884132385254
274,0.991727203130722,1.016017198562622,82.6923076923077,71.42857142857143,86.53846153846153,85.71428571428571,0.00015772644703565558,0.6344659328460693
275,1.096267580986023,1.3872478008270264,75.0,71.42857142857143,84.61538461538461,85.71428571428571,0.0001464466094067262,0.618891716003418
276,1.074887216091156,1.1247440576553345,75.0,78.57142857142857,90.38461538461539,92.85714285714286,0.00013551568628929425,0.626166820526123
277,1.0403240323066711,1.2191479206085205,80.76923076923077,71.42857142857143,80.76923076923077,92.85714285714286,0.00012494446518477028,0.6226694583892822
278,0.9200068414211273,1.3757686614990234,82.6923076923077,64.28571428571429,86.53846153846153,92.85714285714286,0.00011474337861210549,0.6177568435668945
279,1.198142170906067,1.0172522068023682,76.92307692307692,78.57142857142857,82.6923076923077,85.71428571428571,0.00010492249381215495,0.6212708950042725
280,0.8412313759326935,1.2600622177124023,82.6923076923077,64.28571428571429,86.53846153846153,92.85714285714286,9.549150281252649e-05,0.615717887878418
281,0.8217268288135529,1.0934357643127441,86.53846153846153,78.57142857142857,86.53846153846153,100.0,8.645971286271934e-05,0.6203756332397461
282,1.1374550759792328,1.075917363166809,75.0,78.57142857142857,82.6923076923077,78.57142857142857,7.783603724899271e-05,0.6114516258239746
283,1.0699489116668701,1.4606791734695435,75.0,71.42857142857143,86.53846153846153,85.71428571428571,6.962898649802803e-05,0.6201231479644775
284,1.002807378768921,1.396085500717163,82.6923076923077,57.142857142857146,88.46153846153847,92.85714285714286,6.18466599780681e-05,0.6140468120574951
285,0.9304188787937164,1.0642515420913696,80.76923076923077,71.42857142857143,92.3076923076923,92.85714285714286,5.4496737905815994e-05,0.6166954040527344
286,0.9582138657569885,1.4447851181030273,82.6923076923077,71.42857142857143,86.53846153846153,85.71428571428571,4.7586473766990206e-05,0.6179852485656738
287,0.944475919008255,1.7994613647460938,82.6923076923077,64.28571428571429,82.6923076923077,78.57142857142857,4.112268715800942e-05,0.6159987449645996
288,0.9251306354999542,1.005494236946106,82.6923076923077,78.57142857142857,82.6923076923077,85.71428571428571,3.5111757055874305e-05,0.6353304386138916
289,0.8641254007816315,0.8559309244155884,86.53846153846153,85.71428571428571,84.61538461538461,85.71428571428571,2.9559615522887304e-05,0.623974084854126
290,0.8799009025096893,1.5361731052398682,80.76923076923077,57.142857142857146,92.3076923076923,85.71428571428571,2.4471741852423316e-05,0.6123058795928955
291,0.8770200610160828,1.2394201755523682,84.61538461538461,71.42857142857143,92.3076923076923,78.57142857142857,1.9853157161528543e-05,0.6143894195556641
292,0.9488824903964996,1.0299091339111328,82.6923076923077,71.42857142857143,90.38461538461539,92.85714285714286,1.5708419435684534e-05,0.6255176067352295
293,1.172643005847931,1.4373888969421387,78.84615384615384,71.42857142857143,86.53846153846153,85.71428571428571,1.2041619030626406e-05,0.6150579452514648
294,0.93437060713768,1.4795958995819092,78.84615384615384,78.57142857142857,86.53846153846153,85.71428571428571,8.856374635655593e-06,0.6153848171234131
295,0.8969212770462036,1.0444221496582031,82.6923076923077,64.28571428571429,92.3076923076923,92.85714285714286,6.155829702431122e-06,0.6202530860900879
296,0.7958293855190277,1.0430352687835693,84.61538461538461,78.57142857142857,90.38461538461539,85.71428571428571,3.9426493427610665e-06,0.6161019802093506
297,0.85370734333992,1.377427577972412,78.84615384615384,64.28571428571429,86.53846153846153,78.57142857142857,2.2190176984600044e-06,0.6200828552246094
298,1.0328910946846008,0.9749663472175598,76.92307692307692,78.57142857142857,86.53846153846153,78.57142857142857,9.866357858642217e-07,0.618689775466919
299,0.9351817667484283,1.0079057216644287,84.61538461538461,64.28571428571429,86.53846153846153,92.85714285714286,2.4671981713420025e-07,0.6199851036071777
300,0.8528757095336914,1.0341956615447998,84.61538461538461,71.42857142857143,86.53846153846153,92.85714285714286,0.0,0.6183722019195557
301,0.7805433869361877,1.023319959640503,84.61538461538461,78.57142857142857,92.3076923076923,85.71428571428571,2.467198171342e-07,0.6157784461975098
302,0.9435729384422302,1.2470637559890747,76.92307692307692,57.142857142857146,84.61538461538461,85.71428571428571,9.866357858642204e-07,0.6209778785705566
303,1.0479395389556885,1.3322007656097412,73.07692307692308,64.28571428571429,84.61538461538461,92.85714285714286,2.2190176984599464e-06,0.6157586574554443
304,0.9919506311416626,0.9025470018386841,76.92307692307692,78.57142857142857,88.46153846153847,92.85714285714286,3.942649342761006e-06,0.614997148513794
305,1.1065599918365479,1.2449312210083008,78.84615384615384,71.42857142857143,86.53846153846153,85.71428571428571,6.155829702431169e-06,0.617426872253418
306,0.9085659682750702,0.935269832611084,84.61538461538461,78.57142857142857,86.53846153846153,85.71428571428571,8.856374635655693e-06,0.6195330619812012
307,1.1516104936599731,1.1681941747665405,76.92307692307692,64.28571428571429,80.76923076923077,85.71428571428571,1.2041619030626337e-05,0.6169843673706055
308,0.8529292941093445,1.2639963626861572,84.61538461538461,64.28571428571429,88.46153846153847,92.85714285714286,1.570841943568446e-05,0.6113145351409912
309,0.812595933675766,0.8411052227020264,88.46153846153847,85.71428571428571,88.46153846153847,92.85714285714286,1.9853157161528408e-05,0.6140682697296143
310,0.9149805903434753,0.8631923198699951,88.46153846153847,78.57142857142857,88.46153846153847,92.85714285714286,2.4471741852423174e-05,0.6141397953033447
311,1.0039154291152954,1.199541687965393,84.61538461538461,64.28571428571429,82.6923076923077,92.85714285714286,2.9559615522887152e-05,0.6408746242523193
312,0.9180054366588593,1.2821117639541626,82.6923076923077,71.42857142857143,88.46153846153847,92.85714285714286,3.511175705587414e-05,0.6206769943237305
313,1.0936259031295776,1.890684723854065,71.15384615384616,57.142857142857146,82.6923076923077,85.71428571428571,4.112268715800924e-05,0.6127851009368896
314,1.1577054858207703,1.1714661121368408,73.07692307692308,71.42857142857143,86.53846153846153,92.85714285714286,4.758647376698997e-05,0.6163930892944336
315,1.0454376339912415,1.4492789506912231,78.84615384615384,50.0,86.53846153846153,92.85714285714286,5.449673790581614e-05,0.6252973079681396
316,0.9162769913673401,1.3104115724563599,84.61538461538461,71.42857142857143,88.46153846153847,92.85714285714286,6.184665997806823e-05,0.6203246116638184
317,1.0638623237609863,0.887622594833374,76.92307692307692,78.57142857142857,88.46153846153847,85.71428571428571,6.96289864980282e-05,0.6221764087677002
318,0.9601145386695862,0.8924393653869629,84.61538461538461,78.57142857142857,90.38461538461539,85.71428571428571,7.783603724899242e-05,0.6168704032897949
319,0.8289353251457214,1.4442148208618164,90.38461538461539,50.0,88.46153846153847,85.71428571428571,8.645971286271898e-05,0.6111295223236084
320,0.7390824556350708,1.0121785402297974,92.3076923076923,78.57142857142857,86.53846153846153,85.71428571428571,9.54915028125261e-05,0.6111001968383789
321,0.9882817268371582,1.2241761684417725,82.6923076923077,64.28571428571429,82.6923076923077,85.71428571428571,0.00010492249381215455,0.6106672286987305
322,0.9967872500419617,1.2958059310913086,84.61538461538461,64.28571428571429,86.53846153846153,85.71428571428571,0.00011474337861210506,0.6103537082672119
323,1.0082986652851105,1.6562613248825073,76.92307692307692,64.28571428571429,88.46153846153847,78.57142857142857,0.00012494446518476982,0.6070785522460938
324,0.9911538362503052,1.5240302085876465,82.6923076923077,57.142857142857146,82.6923076923077,92.85714285714286,0.0001355156862892937,0.6205854415893555
325,0.9105884432792664,0.9653501510620117,82.6923076923077,78.57142857142857,86.53846153846153,78.57142857142857,0.00014644660940672563,0.6235897541046143
326,1.0658881664276123,0.967759370803833,76.92307692307692,71.42857142857143,82.6923076923077,85.71428571428571,0.000157726447035655,0.6108138561248779
327,0.8982724249362946,1.5239168405532837,86.53846153846153,50.0,86.53846153846153,92.85714285714286,0.00016934406733817395,0.61106276512146
328,0.8056272268295288,1.2140982151031494,88.46153846153847,64.28571428571429,92.3076923076923,92.85714285714286,0.0001812880051256543,0.6127171516418457
329,1.0013994872570038,1.7593059539794922,75.0,35.714285714285715,88.46153846153847,92.85714285714286,0.00019354647317351147,0.6120297908782959
330,0.8839561939239502,1.2388172149658203,86.53846153846153,71.42857142857143,86.53846153846153,85.71428571428571,0.00020610737385376234,0.6098041534423828
331,0.8512324392795563,1.7622474431991577,84.61538461538461,50.0,84.61538461538461,71.42857142857143,0.00021895831107393427,0.614044189453125
332,0.8573834300041199,1.0766379833221436,82.6923076923077,78.57142857142857,82.6923076923077,71.42857142857143,0.00023208660251050189,0.6128978729248047
333,0.8583849370479584,1.1610441207885742,86.53846153846153,64.28571428571429,90.38461538461539,85.71428571428571,0.0002454792921248137,0.6140766143798828
334,0.7794886529445648,1.1590551137924194,88.46153846153847,57.142857142857146,86.53846153846153,92.85714285714286,0.00025912316294914234,0.6277182102203369
335,0.8774427175521851,0.8629005551338196,86.53846153846153,85.71428571428571,86.53846153846153,92.85714285714286,0.0002730047501302257,0.6221423149108887
336,0.8814676403999329,0.8578829765319824,84.61538461538461,71.42857142857143,90.38461538461539,92.85714285714286,0.00028711035421746345,0.61527419090271
337,0.9027936458587646,1.1022331714630127,82.6923076923077,64.28571428571429,88.46153846153847,92.85714285714286,0.0003014260546826086,0.6180675029754639
338,1.0851247906684875,1.1541059017181396,78.84615384615384,71.42857142857143,86.53846153846153,92.85714285714286,0.00031593772365766056,0.6162121295928955
339,0.8911512494087219,1.3313961029052734,88.46153846153847,64.28571428571429,90.38461538461539,78.57142857142857,0.0003306310398773529,0.6103816032409668
340,0.9895516037940979,1.298234462738037,78.84615384615384,64.28571428571429,82.6923076923077,85.71428571428571,0.0003454915028125255,0.6324009895324707
341,1.127021610736847,1.556686282157898,73.07692307692308,57.142857142857146,82.6923076923077,92.85714285714286,0.0003605044469803837,0.6150920391082764
342,0.7557706534862518,1.2777209281921387,86.53846153846153,71.42857142857143,92.3076923076923,85.71428571428571,0.00037565505641757175,0.6169819831848145
343,0.9298324584960938,1.439387321472168,84.61538461538461,64.28571428571429,92.3076923076923,92.85714285714286,0.0003909283793017286,0.6162335872650146
344,0.9902818202972412,0.9679327011108398,80.76923076923077,78.57142857142857,84.61538461538461,92.85714285714286,0.00040630934270713664,0.6228344440460205
345,0.9419623613357544,1.063340663909912,78.84615384615384,71.42857142857143,86.53846153846153,85.71428571428571,0.00042178276747988427,0.6097733974456787
346,0.811744749546051,0.9179141521453857,84.61538461538461,85.71428571428571,86.53846153846153,92.85714285714286,0.0004373333832178466,0.6109721660614014
347,0.9497978091239929,1.582824945449829,84.61538461538461,57.142857142857146,88.46153846153847,71.42857142857143,0.00045294584334074235,0.6171853542327881
348,0.8771576583385468,1.1330039501190186,84.61538461538461,71.42857142857143,88.46153846153847,78.57142857142857,0.0004686047402353418,0.6123394966125488
349,0.9934017658233643,0.6826221346855164,75.0,85.71428571428571,82.6923076923077,100.0,0.00048429462046093515,0.6203382015228271
350,1.113991916179657,1.230726718902588,78.84615384615384,64.28571428571429,84.61538461538461,92.85714285714286,0.0004999999999999983,0.6155292987823486
351,1.1012819409370422,1.163982629776001,78.84615384615384,71.42857142857143,78.84615384615384,92.85714285714286,0.0005157053795390631,0.6233739852905273
352,0.9766488373279572,1.161032795906067,82.6923076923077,71.42857142857143,90.38461538461539,85.71428571428571,0.0005313952597646556,0.6181044578552246
353,1.0509488582611084,1.8008475303649902,76.92307692307692,57.142857142857146,88.46153846153847,85.71428571428571,0.0005470541566592559,0.6159076690673828
354,0.949661910533905,1.1147186756134033,86.53846153846153,64.28571428571429,88.46153846153847,92.85714285714286,0.0005626666167821516,0.6099584102630615
355,0.7169596552848816,1.017342209815979,88.46153846153847,71.42857142857143,84.61538461538461,85.71428571428571,0.000578217232520114,0.6158590316772461
356,1.1412276029586792,1.1047698259353638,73.07692307692308,64.28571428571429,82.6923076923077,92.85714285714286,0.0005936906572928615,0.6132497787475586
357,0.9998148679733276,1.2554495334625244,75.0,71.42857142857143,88.46153846153847,92.85714285714286,0.0006090716206982696,0.6118190288543701
358,1.0060624182224274,0.737636923789978,73.07692307692308,85.71428571428571,84.61538461538461,92.85714285714286,0.0006243449435824264,0.609520435333252
359,0.7578705549240112,1.0587198734283447,82.6923076923077,57.142857142857146,86.53846153846153,92.85714285714286,0.0006394955530196126,0.6110246181488037
360,1.0857782363891602,0.9096706509590149,73.07692307692308,78.57142857142857,84.61538461538461,92.85714285714286,0.0006545084971874727,0.6183643341064453
361,0.9980045557022095,1.4210498332977295,82.6923076923077,57.142857142857146,88.46153846153847,92.85714285714286,0.0006693689601226445,0.6117820739746094
362,0.9740651845932007,1.2626796960830688,82.6923076923077,85.71428571428571,80.76923076923077,92.85714285714286,0.0006840622763423378,0.6176028251647949
363,0.9822562336921692,1.0389190912246704,76.92307692307692,71.42857142857143,82.6923076923077,92.85714285714286,0.0006985739453173898,0.6101291179656982
364,1.0167036056518555,1.4382054805755615,86.53846153846153,64.28571428571429,84.61538461538461,85.71428571428571,0.0007128896457825348,0.6131041049957275
365,0.8874136209487915,0.8610832095146179,82.6923076923077,85.71428571428571,86.53846153846153,85.71428571428571,0.0007269952498697726,0.6172530651092529
366,0.9739726185798645,1.740415096282959,75.0,50.0,86.53846153846153,92.85714285714286,0.0007408768370508559,0.6146719455718994
367,0.9696694016456604,1.2862391471862793,82.6923076923077,64.28571428571429,86.53846153846153,78.57142857142857,0.0007545207078751845,0.6150104999542236
368,0.930817186832428,1.4298003911972046,82.6923076923077,50.0,90.38461538461539,92.85714285714286,0.0007679133974894963,0.6203975677490234
369,1.1107188165187836,1.2980185747146606,78.84615384615384,71.42857142857143,86.53846153846153,78.57142857142857,0.0007810416889260641,0.6099677085876465
370,0.9941505193710327,1.8134628534317017,80.76923076923077,57.142857142857146,86.53846153846153,85.71428571428571,0.0007938926261462354,0.6142253875732422
371,1.1133717894554138,1.0482442378997803,76.92307692307692,71.42857142857143,92.3076923076923,85.71428571428571,0.0008064535268264869,0.6164734363555908
372,0.9721332490444183,1.6686049699783325,84.61538461538461,35.714285714285715,88.46153846153847,85.71428571428571,0.0008187119948743434,0.6281287670135498
373,0.9837128221988678,1.1280657052993774,75.0,64.28571428571429,84.61538461538461,78.57142857142857,0.0008306559326618243,0.6160292625427246
374,1.0912701785564423,1.8235174417495728,78.84615384615384,50.0,86.53846153846153,71.42857142857143,0.0008422735529643434,0.6176607608795166
375,0.9592937231063843,0.999796986579895,82.6923076923077,78.57142857142857,88.46153846153847,85.71428571428571,0.0008535533905932721,0.6187906265258789
376,0.9279888868331909,1.2435272932052612,73.07692307692308,64.28571428571429,92.3076923076923,85.71428571428571,0.0008644843137107048,0.6049206256866455
377,1.0804887413978577,0.8722503185272217,76.92307692307692,78.57142857142857,88.46153846153847,85.71428571428571,0.0008750555348152279,0.6189007759094238
378,1.020236849784851,1.514970064163208,69.23076923076923,64.28571428571429,86.53846153846153,78.57142857142857,0.0008852566213878934,0.6222949028015137
379,0.98504239320755,1.4012088775634766,73.07692307692308,64.28571428571429,86.53846153846153,85.71428571428571,0.0008950775061878439,0.6110470294952393
380,1.1367380619049072,1.2952896356582642,73.07692307692308,57.142857142857146,86.53846153846153,92.85714285714286,0.0009045084971874722,0.6138174533843994
381,1.0744537711143494,1.6726248264312744,73.07692307692308,57.142857142857146,92.3076923076923,64.28571428571429,0.0009135402871372796,0.6154851913452148
382,1.1316949129104614,1.4706811904907227,80.76923076923077,64.28571428571429,84.61538461538461,78.57142857142857,0.0009221639627510062,0.6169564723968506
383,0.9362639486789703,0.8691849112510681,82.6923076923077,78.57142857142857,86.53846153846153,85.71428571428571,0.0009303710135019704,0.6162903308868408
384,1.1632721424102783,0.9518039226531982,78.84615384615384,71.42857142857143,73.07692307692308,92.85714285714286,0.0009381533400219304,0.6157350540161133
385,1.1377410888671875,1.5887043476104736,75.0,64.28571428571429,88.46153846153847,85.71428571428571,0.0009455032620941829,0.6143209934234619
386,1.0924283862113953,0.8966175317764282,69.23076923076923,85.71428571428571,86.53846153846153,85.71428571428571,0.0009524135262330084,0.6091487407684326
387,0.9279746413230896,1.1436034440994263,78.84615384615384,71.42857142857143,90.38461538461539,85.71428571428571,0.0009588773128419893,0.6181702613830566
388,1.180143415927887,0.9825658202171326,69.23076923076923,78.57142857142857,90.38461538461539,78.57142857142857,0.0009648882429441245,0.6381094455718994
389,1.007460117340088,1.3327090740203857,84.61538461538461,71.42857142857143,84.61538461538461,92.85714285714286,0.0009704403844771113,0.6126918792724609
390,1.1708185076713562,0.8654007911682129,76.92307692307692,85.71428571428571,84.61538461538461,85.71428571428571,0.0009755282581475754,0.6199507713317871
391,1.0650889873504639,1.2077146768569946,73.07692307692308,92.85714285714286,86.53846153846153,78.57142857142857,0.0009801468428384701,0.6217927932739258
392,1.1118131875991821,1.3587932586669922,75.0,64.28571428571429,84.61538461538461,85.71428571428571,0.0009842915805643143,0.6238272190093994
393,1.1591607332229614,1.2125191688537598,78.84615384615384,64.28571428571429,84.61538461538461,85.71428571428571,0.0009879583809693723,0.6218197345733643
394,1.0104189813137054,1.3939170837402344,75.0,50.0,86.53846153846153,85.71428571428571,0.0009911436253643429,0.6129438877105713
395,1.175434410572052,1.6131625175476074,69.23076923076923,71.42857142857143,86.53846153846153,85.71428571428571,0.0009938441702975675,0.610590934753418
396,0.7934589982032776,1.2465144395828247,86.53846153846153,64.28571428571429,86.53846153846153,85.71428571428571,0.0009960573506572377,0.6115679740905762
397,1.0674011409282684,1.3212565183639526,75.0,57.142857142857146,78.84615384615384,92.85714285714286,0.0009977809823015387,0.6144213676452637
398,1.0542740225791931,1.1770838499069214,78.84615384615384,71.42857142857143,82.6923076923077,78.57142857142857,0.0009990133642141345,0.615678071975708
399,1.0924461483955383,1.7163399457931519,80.76923076923077,42.857142857142854,78.84615384615384,85.71428571428571,0.0009997532801828645,0.6152362823486328
400,1.0107617378234863,2.2435553073883057,80.76923076923077,42.857142857142854,84.61538461538461,85.71428571428571,0.0009999999999999987,0.6224451065063477
401,1.0578945875167847,2.0611042976379395,75.0,50.0,86.53846153846153,85.71428571428571,0.0009997532801828645,0.6122651100158691
402,1.1163950562477112,1.8289930820465088,73.07692307692308,50.0,92.3076923076923,85.71428571428571,0.0009990133642141345,0.6251013278961182
403,1.316743791103363,1.2323355674743652,69.23076923076923,71.42857142857143,84.61538461538461,85.71428571428571,0.0009977809823015387,0.6215178966522217
404,1.2715550065040588,1.5524768829345703,69.23076923076923,64.28571428571429,84.61538461538461,71.42857142857143,0.0009960573506572377,0.6169791221618652
405,0.9425971508026123,1.3547273874282837,80.76923076923077,57.142857142857146,86.53846153846153,78.57142857142857,0.0009938441702975677,0.613375186920166
406,1.1234615445137024,1.3868250846862793,73.07692307692308,71.42857142857143,90.38461538461539,78.57142857142857,0.000991143625364343,0.6152691841125488
407,1.0095393061637878,0.9831303358078003,75.0,71.42857142857143,86.53846153846153,85.71428571428571,0.0009879583809693725,0.6159987449645996
408,0.914547860622406,1.046866774559021,76.92307692307692,71.42857142857143,88.46153846153847,85.71428571428571,0.0009842915805643143,0.6211304664611816
409,1.0285437107086182,1.5702507495880127,78.84615384615384,42.857142857142854,88.46153846153847,78.57142857142857,0.0009801468428384703,0.6194336414337158
410,1.1971086263656616,1.4448095560073853,71.15384615384616,57.142857142857146,82.6923076923077,85.71428571428571,0.0009755282581475755,0.6199057102203369
411,0.8782762289047241,0.8562527894973755,82.6923076923077,92.85714285714286,90.38461538461539,85.71428571428571,0.0009704403844771115,0.6239168643951416
412,0.9507892727851868,1.6224479675292969,86.53846153846153,50.0,80.76923076923077,78.57142857142857,0.0009648882429441247,0.6210379600524902
413,0.8779924809932709,1.3231645822525024,78.84615384615384,64.28571428571429,92.3076923076923,78.57142857142857,0.0009588773128419895,0.6177222728729248
414,1.0196506977081299,1.4246647357940674,84.61538461538461,57.142857142857146,92.3076923076923,85.71428571428571,0.0009524135262330088,0.6170639991760254
415,1.0365335643291473,1.0416462421417236,73.07692307692308,78.57142857142857,90.38461538461539,85.71428571428571,0.0009455032620941826,0.6200230121612549
416,1.1060596704483032,1.2492263317108154,71.15384615384616,64.28571428571429,88.46153846153847,92.85714285714286,0.0009381533400219305,0.6191048622131348
417,0.9659835398197174,1.213679552078247,76.92307692307692,64.28571428571429,82.6923076923077,85.71428571428571,0.0009303710135019706,0.621694803237915
418,0.922477662563324,0.8633831739425659,78.84615384615384,85.71428571428571,94.23076923076923,92.85714285714286,0.0009221639627510065,0.6164934635162354
419,1.1305894255638123,1.0442479848861694,80.76923076923077,78.57142857142857,92.3076923076923,85.71428571428571,0.0009135402871372799,0.6155595779418945
420,1.06913423538208,1.5114772319793701,76.92307692307692,57.142857142857146,84.61538461538461,78.57142857142857,0.0009045084971874728,0.6198644638061523
421,1.0491745471954346,1.116574764251709,78.84615384615384,71.42857142857143,86.53846153846153,85.71428571428571,0.0008950775061878442,0.6158978939056396
422,0.9197933971881866,1.623582124710083,84.61538461538461,57.142857142857146,82.6923076923077,78.57142857142857,0.0008852566213878938,0.6230363845825195
423,1.1248714923858643,1.0723384618759155,76.92307692307692,71.42857142857143,86.53846153846153,85.71428571428571,0.000875055534815229,0.6119091510772705
424,1.085440456867218,1.589128017425537,76.92307692307692,64.28571428571429,82.6923076923077,71.42857142857143,0.0008644843137107044,0.614473819732666
425,1.1968204975128174,1.0581921339035034,73.07692307692308,71.42857142857143,84.61538461538461,85.71428571428571,0.0008535533905932732,0.6167149543762207
426,1.0362564027309418,1.1304874420166016,75.0,78.57142857142857,86.53846153846153,78.57142857142857,0.0008422735529643432,0.6108553409576416
427,1.2828431725502014,1.4150277376174927,73.07692307692308,57.142857142857146,84.61538461538461,78.57142857142857,0.0008306559326618249,0.6178328990936279
428,1.0507240295410156,1.2654733657836914,73.07692307692308,50.0,90.38461538461539,100.0,0.0008187119948743438,0.6140227317810059
429,0.9633209109306335,1.37881600856781,82.6923076923077,64.28571428571429,86.53846153846153,92.85714285714286,0.0008064535268264873,0.6065740585327148
430,1.0704036355018616,1.2960045337677002,75.0,57.142857142857146,90.38461538461539,78.57142857142857,0.0007938926261462357,0.6150450706481934
431,1.0376833081245422,1.5505311489105225,71.15384615384616,42.857142857142854,92.3076923076923,85.71428571428571,0.0007810416889260646,0.6161179542541504
432,1.1872268915176392,1.3074864149093628,75.0,71.42857142857143,92.3076923076923,85.71428571428571,0.0007679133974894978,0.6145913600921631
433,1.1567578315734863,1.3554744720458984,67.3076923076923,57.142857142857146,92.3076923076923,85.71428571428571,0.0007545207078751844,0.6124758720397949
434,1.2003597915172577,1.4335317611694336,65.38461538461539,57.142857142857146,84.61538461538461,78.57142857142857,0.0007408768370508572,0.61004638671875
435,1.061438262462616,1.4069615602493286,76.92307692307692,57.142857142857146,92.3076923076923,85.71428571428571,0.0007269952498697724,0.6122066974639893
436,1.1555481553077698,1.086997389793396,69.23076923076923,57.142857142857146,86.53846153846153,85.71428571428571,0.0007128896457825362,0.630091667175293
437,1.0292832255363464,1.2946772575378418,71.15384615384616,71.42857142857143,88.46153846153847,85.71428571428571,0.0006985739453173894,0.6268541812896729
438,1.0154319107532501,1.0588891506195068,82.6923076923077,71.42857142857143,90.38461538461539,85.71428571428571,0.0006840622763423383,0.6133856773376465
439,1.326066255569458,1.030339002609253,59.61538461538461,71.42857142857143,86.53846153846153,78.57142857142857,0.000669368960122645,0.6137936115264893
440,1.0877355933189392,1.1715115308761597,73.07692307692308,71.42857142857143,76.92307692307692,85.71428571428571,0.0006545084971874732,0.625708818435669
441,0.9906363785266876,1.1957842111587524,78.84615384615384,71.42857142857143,88.46153846153847,92.85714285714286,0.0006394955530196142,0.6175665855407715
442,1.0378137230873108,0.7931180000305176,78.84615384615384,78.57142857142857,82.6923076923077,100.0,0.0006243449435824263,0.6131508350372314
443,1.0219365656375885,0.9137895703315735,80.76923076923077,71.42857142857143,88.46153846153847,92.85714285714286,0.0006090716206982711,0.6142313480377197
444,0.9411547482013702,1.4610929489135742,78.84615384615384,57.142857142857146,88.46153846153847,92.85714285714286,0.0005936906572928613,0.6180458068847656
445,1.056606411933899,1.3491995334625244,73.07692307692308,64.28571428571429,92.3076923076923,78.57142857142857,0.0005782172325201155,0.6192195415496826
446,1.0168980956077576,0.8201786279678345,78.84615384615384,78.57142857142857,86.53846153846153,100.0,0.0005626666167821514,0.620699405670166
447,0.8971582055091858,1.2221622467041016,84.61538461538461,71.42857142857143,88.46153846153847,78.57142857142857,0.0005470541566592574,0.6153461933135986
448,0.9503188133239746,1.3192827701568604,75.0,42.857142857142854,92.3076923076923,92.85714285714286,0.0005313952597646561,0.6253950595855713
449,0.8817614316940308,0.9218181371688843,80.76923076923077,78.57142857142857,88.46153846153847,92.85714285714286,0.0005157053795390638,0.6127316951751709
450,1.1494150757789612,0.9977326393127441,67.3076923076923,78.57142857142857,86.53846153846153,71.42857142857143,0.0004999999999999997,0.6238012313842773
451,1.1250685453414917,1.1633983850479126,76.92307692307692,71.42857142857143,84.61538461538461,71.42857142857143,0.0004842946204609348,0.6185441017150879
452,1.0559942424297333,1.0370975732803345,71.15384615384616,64.28571428571429,90.38461538461539,100.0,0.0004686047402353432,0.6274216175079346
453,0.8482643067836761,1.2678189277648926,82.6923076923077,71.42857142857143,86.53846153846153,92.85714285714286,0.000452945843340742,0.6142611503601074
454,0.9748751521110535,1.2769098281860352,71.15384615384616,64.28571428571429,94.23076923076923,85.71428571428571,0.000437333383217848,0.6139318943023682
455,1.0206339657306671,1.5030384063720703,76.92307692307692,57.142857142857146,82.6923076923077,78.57142857142857,0.0004217827674798839,0.6153907775878906
456,1.146424949169159,1.426978349685669,71.15384615384616,64.28571428571429,90.38461538461539,85.71428571428571,0.000406309342707138,0.6162819862365723
457,1.074487715959549,1.4892103672027588,76.92307692307692,50.0,82.6923076923077,78.57142857142857,0.0003909283793017283,0.6142778396606445
458,0.985145628452301,1.5846350193023682,76.92307692307692,57.142857142857146,84.61538461538461,85.71428571428571,0.00037565505641757316,0.6197597980499268
459,0.9860073328018188,1.3237438201904297,86.53846153846153,57.142857142857146,82.6923076923077,85.71428571428571,0.0003605044469803851,0.6133229732513428
460,0.9619626402854919,1.4269235134124756,78.84615384615384,71.42857142857143,88.46153846153847,78.57142857142857,0.0003454915028125253,0.6143722534179688
461,1.0380944311618805,0.9686931371688843,76.92307692307692,92.85714285714286,80.76923076923077,78.57142857142857,0.00033063103987735425,0.6167595386505127
462,0.8069065511226654,1.1426767110824585,86.53846153846153,64.28571428571429,92.3076923076923,85.71428571428571,0.00031593772365766024,0.6134402751922607
463,0.9410818815231323,0.9761114716529846,88.46153846153847,71.42857142857143,90.38461538461539,100.0,0.0003014260546826098,0.6168069839477539
464,1.0249865353107452,1.5650296211242676,78.84615384615384,42.857142857142854,88.46153846153847,92.85714285714286,0.0002871103542174631,0.6164274215698242
465,0.7724837958812714,1.1117048263549805,86.53846153846153,78.57142857142857,94.23076923076923,85.71428571428571,0.00027300475013022695,0.6173961162567139
466,0.9849650263786316,1.0868417024612427,75.0,71.42857142857143,82.6923076923077,78.57142857142857,0.00025912316294914196,0.6191799640655518
467,0.9643511176109314,1.5891302824020386,76.92307692307692,50.0,88.46153846153847,78.57142857142857,0.0002454792921248148,0.6151292324066162
468,0.9946198761463165,1.2147905826568604,73.07692307692308,64.28571428571429,88.46153846153847,85.71428571428571,0.00023208660251050148,0.6200106143951416
469,1.1497578024864197,1.0301368236541748,78.84615384615384,71.42857142857143,82.6923076923077,78.57142857142857,0.0002189583110739353,0.6159169673919678
470,0.8468923568725586,1.4633022546768188,86.53846153846153,57.142857142857146,94.23076923076923,85.71428571428571,0.00020610737385376337,0.6214456558227539
471,0.8687371015548706,1.2860033512115479,84.61538461538461,78.57142857142857,92.3076923076923,78.57142857142857,0.00019354647317351112,0.6201744079589844
472,0.8611819744110107,1.2969059944152832,84.61538461538461,64.28571428571429,92.3076923076923,78.57142857142857,0.0001812880051256553,0.6151072978973389
473,0.741050660610199,1.3139766454696655,86.53846153846153,71.42857142857143,90.38461538461539,78.57142857142857,0.0001693440673381736,0.6165966987609863
474,0.798123836517334,1.5678116083145142,82.6923076923077,71.42857142857143,92.3076923076923,85.71428571428571,0.00015772644703565593,0.6165602207183838
475,0.8194842338562012,1.1213994026184082,82.6923076923077,71.42857142857143,90.38461538461539,92.85714285714286,0.00014644660940672598,0.6157479286193848
476,1.0395368337631226,0.89348304271698,75.0,78.57142857142857,88.46153846153847,92.85714285714286,0.00013551568628929463,0.6181449890136719
477,0.8879014551639557,1.0951100587844849,76.92307692307692,64.28571428571429,94.23076923076923,78.57142857142857,0.00012494446518477011,0.6112971305847168
478,1.0533093214035034,1.1430976390838623,80.76923076923077,71.42857142857143,86.53846153846153,92.85714285714286,0.00011474337861210591,0.6173865795135498
479,1.1540442109107971,1.4596714973449707,80.76923076923077,64.28571428571429,82.6923076923077,78.57142857142857,0.00010492249381215485,0.6161677837371826
480,0.8340303301811218,1.369443655014038,80.76923076923077,71.42857142857143,94.23076923076923,85.71428571428571,9.54915028125269e-05,0.6194136142730713
481,1.209087610244751,1.231703519821167,80.76923076923077,57.142857142857146,80.76923076923077,92.85714285714286,8.645971286271922e-05,0.6194741725921631
482,0.7786250114440918,1.2297396659851074,92.3076923076923,71.42857142857143,94.23076923076923,78.57142857142857,7.783603724899216e-05,0.6122689247131348
483,0.818891853094101,1.4014570713043213,88.46153846153847,64.28571428571429,90.38461538461539,78.57142857142857,6.962898649802839e-05,0.6138603687286377
484,0.8240078091621399,1.399694561958313,84.61538461538461,71.42857142857143,84.61538461538461,92.85714285714286,6.184665997806804e-05,0.6132004261016846
485,0.8560856878757477,1.3356249332427979,82.6923076923077,71.42857142857143,88.46153846153847,85.71428571428571,5.449673790581633e-05,0.6174871921539307
486,0.8193581700325012,0.8569328784942627,88.46153846153847,92.85714285714286,84.61538461538461,85.71428571428571,4.7586473766990165e-05,0.6153130531311035
487,0.9447124898433685,1.508529782295227,76.92307692307692,64.28571428571429,90.38461538461539,85.71428571428571,4.112268715800978e-05,0.6192388534545898
488,0.9538509845733643,1.1296955347061157,80.76923076923077,78.57142857142857,82.6923076923077,92.85714285714286,3.511175705587429e-05,0.6173763275146484
489,1.0563496947288513,1.4643890857696533,69.23076923076923,57.142857142857146,90.38461538461539,78.57142857142857,2.955961552288763e-05,0.6342546939849854
490,0.8045316636562347,1.3145358562469482,82.6923076923077,64.28571428571429,94.23076923076923,85.71428571428571,2.4471741852423262e-05,0.620018720626831
491,0.863296389579773,1.696801781654358,80.76923076923077,57.142857142857146,88.46153846153847,92.85714285714286,1.985315716152828e-05,0.6222939491271973
492,0.776464581489563,0.8985856175422668,84.61538461538461,85.71428571428571,94.23076923076923,78.57142857142857,1.5708419435684555e-05,0.6307027339935303
493,1.070157527923584,1.4435545206069946,75.0,57.142857142857146,88.46153846153847,78.57142857142857,1.2041619030626213e-05,0.6412537097930908
494,1.0036022663116455,1.4300034046173096,78.84615384615384,57.142857142857146,88.46153846153847,78.57142857142857,8.856374635655795e-06,0.6245777606964111
495,0.8509502708911896,1.333480954170227,88.46153846153847,64.28571428571429,84.61538461538461,92.85714285714286,6.1558297024311075e-06,0.6155540943145752
496,0.8802981674671173,1.0437922477722168,84.61538461538461,71.42857142857143,90.38461538461539,85.71428571428571,3.942649342761168e-06,0.6192128658294678
497,1.0133190155029297,1.2280771732330322,75.0,71.42857142857143,90.38461538461539,92.85714285714286,2.2190176984599993e-06,0.611931562423706
498,1.0035655498504639,1.460026502609253,80.76923076923077,71.42857142857143,92.3076923076923,92.85714285714286,9.86635785864275e-07,0.6152420043945312
499,1.0611510872840881,1.2234002351760864,78.84615384615384,78.57142857142857,84.61538461538461,85.71428571428571,2.4671981713425525e-07,0.6183960437774658
500,0.7378730177879333,1.2531790733337402,86.53846153846153,57.142857142857146,90.38461538461539,78.57142857142857,0.0,0.6168131828308105
501,0.8583964705467224,1.5100963115692139,84.61538461538461,64.28571428571429,90.38461538461539,71.42857142857143,2.467198171342e-07,0.6202325820922852
502,0.8649246096611023,1.6126151084899902,84.61538461538461,50.0,92.3076923076923,92.85714285714286,9.866357858642204e-07,0.6181695461273193
503,0.8372035473585129,1.202272891998291,82.6923076923077,64.28571428571429,92.3076923076923,92.85714285714286,2.2190176984599464e-06,0.615875244140625
504,1.0373159050941467,1.4583079814910889,76.92307692307692,71.42857142857143,88.46153846153847,85.71428571428571,3.942649342761118e-06,0.6186106204986572
505,1.013162612915039,1.470153570175171,78.84615384615384,50.0,92.3076923076923,92.85714285714286,6.155829702431005e-06,0.6116249561309814
506,0.976738840341568,1.1550620794296265,80.76923076923077,64.28571428571429,90.38461538461539,71.42857142857143,8.856374635655697e-06,0.617619514465332
507,0.8245324194431305,1.0149199962615967,84.61538461538461,85.71428571428571,88.46153846153847,85.71428571428571,1.2041619030626118e-05,0.6158053874969482
508,0.9837785065174103,1.3140939474105835,73.07692307692308,64.28571428571429,90.38461538461539,78.57142857142857,1.570841943568441e-05,0.6171984672546387
509,1.1618580222129822,1.2931647300720215,73.07692307692308,78.57142857142857,86.53846153846153,78.57142857142857,1.9853157161528137e-05,0.6153829097747803
510,0.8290283679962158,1.3955144882202148,86.53846153846153,64.28571428571429,86.53846153846153,78.57142857142857,2.4471741852423404e-05,0.6159605979919434
511,0.8881516456604004,1.1115058660507202,82.6923076923077,78.57142857142857,90.38461538461539,78.57142857142857,2.955961552288711e-05,0.6181890964508057
512,1.080064982175827,0.9949017763137817,78.84615384615384,71.42857142857143,92.3076923076923,92.85714285714286,3.511175705587445e-05,0.6165392398834229
513,0.8556767404079437,1.5272181034088135,82.6923076923077,57.142857142857146,96.15384615384616,92.85714285714286,4.112268715800922e-05,0.612933874130249
514,0.8523620963096619,1.7834534645080566,84.61538461538461,57.142857142857146,92.3076923076923,85.71428571428571,4.7586473766990335e-05,0.6169595718383789
515,0.9371948838233948,0.9780242443084717,82.6923076923077,78.57142857142857,88.46153846153847,85.71428571428571,5.449673790581573e-05,0.6138360500335693
516,0.9173153936862946,1.4884018898010254,82.6923076923077,64.28571428571429,90.38461538461539,78.57142857142857,6.184665997806823e-05,0.6174464225769043
517,0.9798593521118164,1.290392518043518,76.92307692307692,71.42857142857143,88.46153846153847,92.85714285714286,6.962898649802864e-05,0.6132853031158447
518,0.7351386547088623,1.4231908321380615,84.61538461538461,71.42857142857143,98.07692307692308,92.85714285714286,7.783603724899244e-05,0.615619421005249
519,0.814630925655365,1.1181682348251343,82.6923076923077,78.57142857142857,96.15384615384616,92.85714285714286,8.645971286271952e-05,0.6183211803436279
520,0.9580742716789246,1.6517291069030762,76.92307692307692,71.42857142857143,86.53846153846153,71.42857142857143,9.549150281252615e-05,0.6158783435821533
521,1.0276575088500977,1.6067497730255127,78.84615384615384,71.42857142857143,84.61538461538461,64.28571428571429,0.00010492249381215516,0.6211273670196533
522,0.8640346825122833,1.4489662647247314,82.6923076923077,71.42857142857143,84.61538461538461,85.71428571428571,0.00011474337861210514,0.6085307598114014
523,0.8789764642715454,1.111182451248169,84.61538461538461,64.28571428571429,92.3076923076923,85.71428571428571,0.00012494446518477047,0.6141214370727539
524,0.8881304264068604,1.0840697288513184,84.61538461538461,78.57142857142857,86.53846153846153,85.71428571428571,0.00013551568628929382,0.6216294765472412
525,0.9104728400707245,1.7325637340545654,82.6923076923077,50.0,88.46153846153847,92.85714285714286,0.00014644660940672636,0.6157596111297607
526,0.7715848684310913,1.0816736221313477,82.6923076923077,85.71428571428571,92.3076923076923,71.42857142857143,0.00015772644703565642,0.6158955097198486
527,0.9057897627353668,1.5798077583312988,73.07692307692308,57.142857142857146,84.61538461538461,78.57142857142857,0.0001693440673381741,0.6117801666259766
528,0.9570654630661011,0.9356508851051331,82.6923076923077,85.71428571428571,94.23076923076923,85.71428571428571,0.0001812880051256558,0.6150641441345215
529,0.8080348372459412,1.1502339839935303,86.53846153846153,71.42857142857143,88.46153846153847,92.85714285714286,0.00019354647317351164,0.61183762550354
530,0.8817566335201263,1.6061047315597534,78.84615384615384,64.28571428571429,86.53846153846153,85.71428571428571,0.00020610737385376394,0.6164779663085938
531,0.9781975448131561,1.5008656978607178,76.92307692307692,64.28571428571429,92.3076923076923,64.28571428571429,0.00021895831107393446,0.6140005588531494
532,1.0569161772727966,1.0779454708099365,71.15384615384616,78.57142857142857,88.46153846153847,85.71428571428571,0.0002320866025105021,0.609511137008667
533,0.8963994383811951,1.4263062477111816,84.61538461538461,64.28571428571429,92.3076923076923,85.71428571428571,0.0002454792921248139,0.6141674518585205
534,0.789516419172287,1.7767834663391113,84.61538461538461,57.142857142857146,92.3076923076923,85.71428571428571,0.0002591231629491426,0.6131575107574463
535,0.7885712683200836,1.178320288658142,86.53846153846153,71.42857142857143,90.38461538461539,78.57142857142857,0.0002730047501302276,0.6231060028076172
536,1.072113037109375,1.2395485639572144,73.07692307692308,78.57142857142857,90.38461538461539,92.85714285714286,0.00028711035421746377,0.6214826107025146
537,0.8817429542541504,1.619070053100586,80.76923076923077,78.57142857142857,86.53846153846153,64.28571428571429,0.00030142605468261053,0.6141424179077148
538,0.8408057689666748,0.944754958152771,82.6923076923077,85.71428571428571,92.3076923076923,85.71428571428571,0.000315937723657661,0.6181411743164062
539,1.0111382603645325,1.1287503242492676,82.6923076923077,64.28571428571429,90.38461538461539,85.71428571428571,0.00033063103987735507,0.6156439781188965
540,0.9385196268558502,0.9476711750030518,78.84615384615384,85.71428571428571,90.38461538461539,78.57142857142857,0.0003454915028125261,0.6171865463256836
541,0.8677763938903809,1.9999299049377441,84.61538461538461,42.857142857142854,88.46153846153847,85.71428571428571,0.00036050444698038607,0.6183106899261475
542,0.9129540622234344,1.2608979940414429,86.53846153846153,71.42857142857143,84.61538461538461,85.71428571428571,0.0003756550564175724,0.6154446601867676
543,0.8145873248577118,0.9898591041564941,82.6923076923077,71.42857142857143,90.38461538461539,85.71428571428571,0.0003909283793017293,0.6155192852020264
544,0.6703796982765198,0.9449954032897949,90.38461538461539,78.57142857142857,90.38461538461539,92.85714285714286,0.0004063093427071391,0.6192305088043213
545,1.076684296131134,1.4376752376556396,78.84615384615384,64.28571428571429,84.61538461538461,92.85714285714286,0.00042178276747988503,0.6159908771514893
546,0.7871060371398926,1.28668212890625,86.53846153846153,64.28571428571429,84.61538461538461,92.85714285714286,0.0004373333832178491,0.6154580116271973
547,0.8606555759906769,1.1472901105880737,82.6923076923077,78.57142857142857,92.3076923076923,92.85714285714286,0.00045294584334074317,0.6140110492706299
548,0.7895843684673309,0.9709066152572632,90.38461538461539,57.142857142857146,88.46153846153847,92.85714285714286,0.00046860474023534444,0.618201732635498
549,1.0801997184753418,1.4864370822906494,76.92307692307692,57.142857142857146,82.6923076923077,78.57142857142857,0.000484294620460936,0.6203474998474121
550,0.8191468715667725,0.954068660736084,88.46153846153847,71.42857142857143,88.46153846153847,85.71428571428571,0.0005000000000000009,0.6124355792999268
551,0.7572576701641083,1.408536672592163,80.76923076923077,78.57142857142857,96.15384615384616,85.71428571428571,0.000515705379539064,0.6177206039428711
552,0.8622341156005859,1.2084404230117798,82.6923076923077,57.142857142857146,82.6923076923077,92.85714285714286,0.0005313952597646574,0.6151187419891357
553,0.956110030412674,1.0458720922470093,80.76923076923077,78.57142857142857,92.3076923076923,92.85714285714286,0.000547054156659257,0.6128950119018555
554,1.0106509327888489,1.0559765100479126,80.76923076923077,64.28571428571429,88.46153846153847,85.71428571428571,0.0005626666167821528,0.6141071319580078
555,0.8497111201286316,1.1546072959899902,84.61538461538461,71.42857142857143,94.23076923076923,78.57142857142857,0.0005782172325201169,0.6180963516235352
556,0.9585803151130676,1.3798892498016357,82.6923076923077,64.28571428571429,84.61538461538461,92.85714285714286,0.0005936906572928627,0.6152815818786621
557,0.7241560220718384,1.780168890953064,86.53846153846153,57.142857142857146,94.23076923076923,85.71428571428571,0.0006090716206982724,0.6130106449127197
558,0.8557642698287964,1.3216056823730469,82.6923076923077,71.42857142857143,94.23076923076923,78.57142857142857,0.0006243449435824277,0.6190729141235352
559,0.8428625762462616,1.7501020431518555,82.6923076923077,64.28571428571429,88.46153846153847,85.71428571428571,0.0006394955530196158,0.6166346073150635
560,1.0069075226783752,0.8359056711196899,78.84615384615384,85.71428571428571,86.53846153846153,85.71428571428571,0.000654508497187474,0.6160643100738525
561,0.7046465873718262,1.0062510967254639,90.38461538461539,78.57142857142857,84.61538461538461,100.0,0.0006693689601226467,0.6228721141815186
562,0.9558624029159546,1.6107178926467896,78.84615384615384,64.28571428571429,88.46153846153847,78.57142857142857,0.0006840622763423391,0.6093864440917969
563,0.994743824005127,1.293437123298645,73.07692307692308,78.57142857142857,90.38461538461539,85.71428571428571,0.0006985739453173912,0.6179003715515137
564,0.8951515257358551,1.2169413566589355,80.76923076923077,78.57142857142857,90.38461538461539,71.42857142857143,0.0007128896457825364,0.6168041229248047
565,0.9708455502986908,1.453837513923645,78.84615384615384,64.28571428571429,90.38461538461539,85.71428571428571,0.0007269952498697741,0.6170415878295898
566,0.9642742276191711,1.6608948707580566,82.6923076923077,42.857142857142854,88.46153846153847,78.57142857142857,0.000740876837050859,0.6169881820678711
567,0.8619564771652222,1.3700555562973022,86.53846153846153,64.28571428571429,86.53846153846153,78.57142857142857,0.0007545207078751864,0.6152698993682861
568,1.0709843635559082,1.4332901239395142,75.0,71.42857142857143,82.6923076923077,85.71428571428571,0.0007679133974894997,0.6222758293151855
569,1.039384812116623,1.3232136964797974,75.0,57.142857142857146,88.46153846153847,92.85714285714286,0.0007810416889260658,0.6183156967163086
570,0.8796325623989105,1.1620662212371826,76.92307692307692,71.42857142857143,92.3076923076923,92.85714285714286,0.0007938926261462379,0.6227319240570068
571,0.9379048347473145,1.270412802696228,76.92307692307692,57.142857142857146,88.46153846153847,92.85714285714286,0.0008064535268264887,0.6198391914367676
572,1.0832340121269226,1.65003502368927,75.0,50.0,86.53846153846153,85.71428571428571,0.0008187119948743461,0.6140496730804443
573,0.9743768572807312,1.5285124778747559,76.92307692307692,50.0,94.23076923076923,85.71428571428571,0.0008306559326618264,0.6141653060913086
574,0.8434157073497772,0.8847804665565491,80.76923076923077,78.57142857142857,90.38461538461539,78.57142857142857,0.0008422735529643455,0.6191134452819824
575,0.9749768376350403,1.3019237518310547,76.92307692307692,64.28571428571429,88.46153846153847,85.71428571428571,0.0008535533905932741,0.6175758838653564
576,0.9833071827888489,1.0777920484542847,76.92307692307692,71.42857142857143,88.46153846153847,85.71428571428571,0.0008644843137107068,0.6309900283813477
577,0.8326719701290131,1.318648099899292,82.6923076923077,71.42857142857143,88.46153846153847,92.85714285714286,0.0008750555348152313,0.612917423248291
578,1.0263583660125732,1.0222704410552979,75.0,71.42857142857143,88.46153846153847,85.71428571428571,0.0008852566213878955,0.613093376159668
579,1.0881398916244507,1.0740554332733154,67.3076923076923,78.57142857142857,88.46153846153847,85.71428571428571,0.0008950775061878465,0.6141006946563721
580,0.9128971099853516,1.4094369411468506,88.46153846153847,57.142857142857146,80.76923076923077,85.71428571428571,0.0009045084971874744,0.6108391284942627
581,0.9511973857879639,1.2969247102737427,78.84615384615384,71.42857142857143,82.6923076923077,85.71428571428571,0.000913540287137282,0.6247031688690186
582,1.0710183084011078,1.4655678272247314,80.76923076923077,71.42857142857143,82.6923076923077,85.71428571428571,0.000922163962751008,0.6158020496368408
583,1.2779979705810547,1.1966183185577393,71.15384615384616,71.42857142857143,82.6923076923077,85.71428571428571,0.0009303710135019726,0.6245596408843994
584,0.9405505061149597,0.9537284970283508,80.76923076923077,85.71428571428571,90.38461538461539,92.85714285714286,0.0009381533400219321,0.6164343357086182
585,1.1083431243896484,0.9848200082778931,65.38461538461539,71.42857142857143,88.46153846153847,85.71428571428571,0.0009455032620941845,0.6186504364013672
586,0.9730711579322815,1.463728666305542,73.07692307692308,57.142857142857146,92.3076923076923,78.57142857142857,0.0009524135262330099,0.6139416694641113
587,0.851903885602951,0.8487099409103394,82.6923076923077,78.57142857142857,88.46153846153847,85.71428571428571,0.000958877312841991,0.615894079208374
588,0.9192906320095062,1.7299773693084717,86.53846153846153,57.142857142857146,82.6923076923077,78.57142857142857,0.0009648882429441264,0.6160097122192383
589,1.248765230178833,1.1348589658737183,69.23076923076923,64.28571428571429,84.61538461538461,85.71428571428571,0.0009704403844771131,0.6169183254241943
590,0.8299525380134583,1.0964120626449585,78.84615384615384,78.57142857142857,92.3076923076923,92.85714285714286,0.0009755282581475773,0.6116666793823242
591,0.8076717555522919,1.142409086227417,84.61538461538461,71.42857142857143,90.38461538461539,85.71428571428571,0.0009801468428384719,0.6177089214324951
592,0.8572188019752502,0.9091604351997375,88.46153846153847,85.71428571428571,88.46153846153847,85.71428571428571,0.000984291580564316,0.6140406131744385
593,1.2172112464904785,1.7466926574707031,71.15384615384616,50.0,92.3076923076923,71.42857142857143,0.0009879583809693738,0.6211748123168945
594,0.9879237115383148,1.410836935043335,82.6923076923077,64.28571428571429,92.3076923076923,78.57142857142857,0.0009911436253643446,0.6180722713470459
595,0.8682555854320526,1.031736969947815,82.6923076923077,71.42857142857143,86.53846153846153,85.71428571428571,0.0009938441702975688,0.6150500774383545
596,1.1659134924411774,0.8670457601547241,73.07692307692308,78.57142857142857,88.46153846153847,92.85714285714286,0.0009960573506572392,0.6152205467224121
597,0.8445606529712677,0.890167236328125,78.84615384615384,78.57142857142857,88.46153846153847,85.71428571428571,0.0009977809823015402,0.6113765239715576
598,0.9358752965927124,1.2783268690109253,78.84615384615384,64.28571428571429,88.46153846153847,92.85714285714286,0.000999013364214136,0.6149578094482422
599,0.9128995537757874,0.8745108842849731,78.84615384615384,78.57142857142857,92.3076923076923,92.85714285714286,0.000999753280182866,0.6170094013214111
600,1.1332389116287231,1.2970235347747803,73.07692307692308,64.28571428571429,86.53846153846153,85.71428571428571,0.0010000000000000002,0.6081643104553223
601,0.984552264213562,1.3358567953109741,76.92307692307692,64.28571428571429,86.53846153846153,85.71428571428571,0.000999753280182866,0.6162283420562744
602,0.9962319135665894,0.9015175700187683,78.84615384615384,85.71428571428571,88.46153846153847,85.71428571428571,0.0009990133642141363,0.6181135177612305
603,1.0702893137931824,1.444892168045044,78.84615384615384,64.28571428571429,88.46153846153847,92.85714285714286,0.0009977809823015404,0.6157596111297607
604,1.037118673324585,1.30171537399292,76.92307692307692,71.42857142857143,86.53846153846153,78.57142857142857,0.0009960573506572394,0.6123456954956055
605,1.106064796447754,0.9243324995040894,67.3076923076923,78.57142857142857,86.53846153846153,78.57142857142857,0.0009938441702975693,0.61859130859375
606,1.0578193068504333,0.8884963989257812,78.84615384615384,85.71428571428571,86.53846153846153,92.85714285714286,0.0009911436253643448,0.6217362880706787
607,1.0487611293792725,1.1767834424972534,75.0,64.28571428571429,86.53846153846153,92.85714285714286,0.000987958380969374,0.6633927822113037
608,1.0001958012580872,1.2527287006378174,75.0,71.42857142857143,86.53846153846153,78.57142857142857,0.000984291580564316,0.6293253898620605
609,1.039886236190796,1.5858142375946045,78.84615384615384,64.28571428571429,88.46153846153847,85.71428571428571,0.0009801468428384719,0.6195440292358398
610,0.9213937520980835,1.0442209243774414,75.0,71.42857142857143,84.61538461538461,85.71428571428571,0.0009755282581475768,0.606677770614624
611,0.9975641369819641,1.3307149410247803,73.07692307692308,57.142857142857146,86.53846153846153,78.57142857142857,0.0009704403844771132,0.6188790798187256
612,0.7570371627807617,1.064302921295166,90.38461538461539,71.42857142857143,92.3076923076923,85.71428571428571,0.0009648882429441259,0.6157577037811279
613,1.1224716305732727,0.8855905532836914,78.84615384615384,71.42857142857143,82.6923076923077,92.85714285714286,0.0009588773128419912,0.6167030334472656
614,1.0894479751586914,1.0002498626708984,76.92307692307692,78.57142857142857,80.76923076923077,85.71428571428571,0.00095241352623301,0.6200137138366699
615,1.0057305693626404,1.1979345083236694,84.61538461538461,64.28571428571429,80.76923076923077,85.71428571428571,0.0009455032620941847,0.6187853813171387
616,1.1386691331863403,1.2213459014892578,73.07692307692308,57.142857142857146,88.46153846153847,85.71428571428571,0.0009381533400219321,0.6151676177978516
617,0.9393255412578583,1.52437162399292,82.6923076923077,64.28571428571429,86.53846153846153,71.42857142857143,0.0009303710135019726,0.6140406131744385
618,0.7809123992919922,1.661397933959961,86.53846153846153,71.42857142857143,86.53846153846153,78.57142857142857,0.000922163962751008,0.6191911697387695
619,0.9866187572479248,1.1245595216751099,78.84615384615384,71.42857142857143,90.38461538461539,85.71428571428571,0.000913540287137281,0.6140487194061279
620,1.085333228111267,1.0942652225494385,78.84615384615384,78.57142857142857,84.61538461538461,92.85714285714286,0.0009045084971874743,0.6147053241729736
621,1.174235463142395,1.0145328044891357,75.0,78.57142857142857,80.76923076923077,85.71428571428571,0.0008950775061878452,0.6140906810760498
622,0.8679156005382538,1.0229554176330566,78.84615384615384,78.57142857142857,92.3076923076923,78.57142857142857,0.0008852566213878953,0.6112504005432129
623,0.926149308681488,1.3218047618865967,75.0,57.142857142857146,92.3076923076923,92.85714285714286,0.0008750555348152299,0.6165330410003662
624,0.8416586220264435,1.2282871007919312,82.6923076923077,64.28571428571429,90.38461538461539,92.85714285714286,0.0008644843137107066,0.6168210506439209
625,0.9914345741271973,1.3259073495864868,75.0,64.28571428571429,88.46153846153847,85.71428571428571,0.0008535533905932739,0.6109693050384521
626,0.8574153184890747,1.374511480331421,80.76923076923077,64.28571428571429,86.53846153846153,85.71428571428571,0.0008422735529643453,0.6170909404754639
627,0.8492993414402008,1.7470791339874268,84.61538461538461,57.142857142857146,88.46153846153847,85.71428571428571,0.0008306559326618263,0.6120150089263916
628,0.8452228307723999,1.8414427042007446,80.76923076923077,42.857142857142854,92.3076923076923,85.71428571428571,0.000818711994874346,0.6171069145202637
629,0.9702990651130676,1.1170322895050049,78.84615384615384,85.71428571428571,86.53846153846153,64.28571428571429,0.0008064535268264887,0.614997148513794
630,0.826858401298523,0.9696643352508545,88.46153846153847,78.57142857142857,84.61538461538461,71.42857142857143,0.0007938926261462365,0.6209664344787598
631,1.0506284534931183,1.155468463897705,84.61538461538461,71.42857142857143,82.6923076923077,85.71428571428571,0.0007810416889260658,0.6202762126922607
632,1.0251725018024445,1.4835803508758545,80.76923076923077,71.42857142857143,82.6923076923077,85.71428571428571,0.0007679133974894983,0.6236786842346191
633,0.8855175673961639,1.570111632347107,86.53846153846153,64.28571428571429,90.38461538461539,85.71428571428571,0.0007545207078751865,0.6138126850128174
634,0.8999155461788177,1.6233842372894287,84.61538461538461,71.42857142857143,86.53846153846153,85.71428571428571,0.0007408768370508578,0.6493115425109863
635,1.0675402879714966,1.6685287952423096,73.07692307692308,64.28571428571429,84.61538461538461,64.28571428571429,0.0007269952498697744,0.6249117851257324
636,0.9043243527412415,1.0288662910461426,78.84615384615384,78.57142857142857,84.61538461538461,92.85714285714286,0.0007128896457825366,0.6208004951477051
637,0.9890949130058289,1.1722757816314697,76.92307692307692,71.42857142857143,90.38461538461539,85.71428571428571,0.0006985739453173915,0.624434232711792
638,0.7924749553203583,1.3076281547546387,84.61538461538461,78.57142857142857,98.07692307692308,78.57142857142857,0.0006840622763423395,0.618675708770752
639,0.8501253426074982,1.2350809574127197,86.53846153846153,71.42857142857143,84.61538461538461,85.71428571428571,0.000669368960122647,0.620851993560791
640,0.8946203589439392,1.0563796758651733,80.76923076923077,85.71428571428571,92.3076923076923,85.71428571428571,0.0006545084971874743,0.6180510520935059
641,0.9110488891601562,1.5532082319259644,76.92307692307692,64.28571428571429,90.38461538461539,78.57142857142857,0.0006394955530196145,0.6288416385650635
642,1.0163543224334717,2.1441750526428223,82.6923076923077,57.142857142857146,86.53846153846153,71.42857142857143,0.0006243449435824282,0.6240532398223877
643,1.1672598123550415,1.279629111289978,73.07692307692308,71.42857142857143,86.53846153846153,71.42857142857143,0.0006090716206982713,0.6142520904541016
644,0.9456695318222046,1.841740608215332,76.92307692307692,50.0,94.23076923076923,85.71428571428571,0.0005936906572928633,0.6180319786071777
645,0.9207803905010223,1.53065025806427,82.6923076923077,71.42857142857143,88.46153846153847,78.57142857142857,0.0005782172325201156,0.6155407428741455
646,0.8779371380805969,1.443029522895813,82.6923076923077,64.28571428571429,86.53846153846153,78.57142857142857,0.0005626666167821532,0.6220519542694092
647,0.9331174492835999,1.0529675483703613,86.53846153846153,71.42857142857143,92.3076923076923,100.0,0.0005470541566592574,0.621516227722168
648,0.9089344441890717,2.2731211185455322,76.92307692307692,64.28571428571429,86.53846153846153,78.57142857142857,0.000531395259764658,0.6125879287719727
649,0.9623634815216064,1.618727207183838,80.76923076923077,57.142857142857146,94.23076923076923,78.57142857142857,0.0005157053795390645,0.6156835556030273
650,0.8250457346439362,0.9337767362594604,82.6923076923077,71.42857142857143,92.3076923076923,85.71428571428571,0.0005000000000000014,0.6136646270751953
651,1.0179659128189087,1.4652435779571533,82.6923076923077,42.857142857142854,80.76923076923077,92.85714285714286,0.00048429462046093645,0.6236615180969238
652,0.9302783608436584,1.3028157949447632,76.92307692307692,64.28571428571429,92.3076923076923,92.85714285714286,0.0004686047402353448,0.6118881702423096
653,0.936749279499054,1.6856578588485718,80.76923076923077,42.857142857142854,90.38461538461539,85.71428571428571,0.00045294584334074176,0.6068978309631348
654,0.8953040838241577,1.1739505529403687,78.84615384615384,71.42857142857143,92.3076923076923,100.0,0.0004373333832178478,0.6073107719421387
655,1.032127857208252,1.4722988605499268,75.0,57.142857142857146,86.53846153846153,92.85714285714286,0.00042178276747988547,0.6114182472229004
656,0.9779386520385742,1.4777863025665283,75.0,57.142857142857146,90.38461538461539,92.85714285714286,0.0004063093427071395,0.6188464164733887
657,0.913918524980545,1.028503656387329,84.61538461538461,85.71428571428571,90.38461538461539,92.85714285714286,0.000390928379301728,0.6111304759979248
658,1.1026937365531921,1.3824031352996826,78.84615384615384,42.857142857142854,82.6923076923077,85.71428571428571,0.00037565505641757284,0.6286635398864746
659,0.7478102445602417,1.7002986669540405,88.46153846153847,64.28571428571429,94.23076923076923,78.57142857142857,0.00036050444698038656,0.617976188659668
660,0.7129135727882385,1.2442094087600708,84.61538461538461,71.42857142857143,92.3076923076923,92.85714285714286,0.0003454915028125284,0.6338212490081787
661,0.9706681072711945,1.385785698890686,75.0,57.142857142857146,86.53846153846153,92.85714285714286,0.00033063103987735393,0.6197240352630615
662,1.0595258474349976,1.582475185394287,76.92307692307692,57.142857142857146,86.53846153846153,92.85714285714286,0.0003159377236576616,0.6172561645507812
663,0.86588254570961,1.5876686573028564,88.46153846153847,57.142857142857146,90.38461538461539,85.71428571428571,0.0003014260546826111,0.6180040836334229
664,0.8418640196323395,1.4323604106903076,88.46153846153847,64.28571428571429,84.61538461538461,71.42857142857143,0.00028711035421746274,0.6264114379882812
665,1.0653712451457977,1.2888127565383911,76.92307692307692,71.42857142857143,82.6923076923077,78.57142857142857,0.0002730047501302265,0.6134297847747803
666,0.7867220044136047,0.8817768096923828,84.61538461538461,85.71428571428571,84.61538461538461,78.57142857142857,0.0002591231629491431,0.6204128265380859
667,0.9946935772895813,1.0220797061920166,76.92307692307692,78.57142857142857,86.53846153846153,85.71428571428571,0.0002454792921248159,0.6176362037658691
668,1.0445525646209717,1.1007448434829712,76.92307692307692,57.142857142857146,84.61538461538461,85.71428571428571,0.00023208660251050105,0.6179642677307129
669,0.9763299524784088,0.7086789608001709,73.07692307692308,85.71428571428571,84.61538461538461,85.71428571428571,0.00021895831107393492,0.6190712451934814
670,1.0072918832302094,0.9835357666015625,80.76923076923077,78.57142857142857,84.61538461538461,100.0,0.00020610737385376443,0.6089980602264404
671,1.1187670230865479,0.772089958190918,78.84615384615384,78.57142857142857,82.6923076923077,92.85714285714286,0.00019354647317351348,0.6240837574005127
672,1.0236532092094421,1.1726990938186646,71.15384615384616,78.57142857142857,86.53846153846153,92.85714285714286,0.00018128800512565485,0.613166093826294
673,0.8011410236358643,1.2310514450073242,90.38461538461539,71.42857142857143,84.61538461538461,85.71428571428571,0.00016934406733817454,0.6183226108551025
674,0.9349574744701385,1.0066215991973877,78.84615384615384,64.28571428571429,86.53846153846153,85.71428571428571,0.00015772644703565682,0.6225531101226807
675,0.9342208504676819,1.5504515171051025,76.92307692307692,57.142857142857146,92.3076923076923,85.71428571428571,0.00014644660940672558,0.6138715744018555
676,0.8193793594837189,0.9785470962524414,88.46153846153847,78.57142857142857,88.46153846153847,85.71428571428571,0.00013551568628929425,0.612302303314209
677,1.0461612939834595,1.044895052909851,75.0,71.42857142857143,90.38461538461539,92.85714285714286,0.0001249444651847709,0.6113758087158203
678,0.9199339747428894,1.3332328796386719,86.53846153846153,64.28571428571429,90.38461538461539,92.85714285714286,0.00011474337861210663,0.6123249530792236
679,0.8439897298812866,1.689481258392334,78.84615384615384,57.142857142857146,90.38461538461539,92.85714285714286,0.00010492249381215444,0.6176533699035645
680,0.890449583530426,1.3474758863449097,80.76923076923077,57.142857142857146,86.53846153846153,92.85714285714286,9.549150281252653e-05,0.6159718036651611
681,0.8637371063232422,1.7131632566452026,82.6923076923077,50.0,86.53846153846153,85.71428571428571,8.645971286271984e-05,0.6147897243499756
682,0.7982265949249268,1.5240614414215088,82.6923076923077,57.142857142857146,86.53846153846153,92.85714285714286,7.783603724899372e-05,0.6118521690368652
683,0.9544946551322937,1.2125933170318604,76.92307692307692,64.28571428571429,88.46153846153847,92.85714285714286,6.962898649802805e-05,0.6176164150238037
684,0.9021705985069275,1.4841992855072021,78.84615384615384,64.28571428571429,90.38461538461539,78.57142857142857,6.184665997806858e-05,0.6169650554656982
685,0.9579779207706451,1.7218832969665527,78.84615384615384,50.0,94.23076923076923,92.85714285714286,5.449673790581686e-05,0.6143441200256348
686,0.9082618355751038,0.8796365857124329,88.46153846153847,78.57142857142857,88.46153846153847,92.85714285714286,4.758647376698986e-05,0.6237087249755859
687,0.8834050297737122,1.4183499813079834,84.61538461538461,57.142857142857146,90.38461538461539,92.85714285714286,4.112268715800947e-05,0.6122767925262451
688,0.9043661952018738,1.5355910062789917,84.61538461538461,57.142857142857146,90.38461538461539,78.57142857142857,3.5111757055874705e-05,0.613417387008667
689,0.9409937858581543,1.0128363370895386,76.92307692307692,78.57142857142857,90.38461538461539,85.71428571428571,2.9559615522887985e-05,0.6143715381622314
690,0.790158212184906,1.6361838579177856,78.84615384615384,64.28571428571429,84.61538461538461,92.85714285714286,2.4471741852423062e-05,0.6143064498901367
691,0.8480560779571533,0.956584632396698,86.53846153846153,85.71428571428571,94.23076923076923,92.85714285714286,1.9853157161528628e-05,0.6171517372131348
692,0.8484215438365936,1.238542079925537,76.92307692307692,64.28571428571429,92.3076923076923,92.85714285714286,1.5708419435684792e-05,0.6187112331390381
693,0.90818652510643,1.1958026885986328,84.61538461538461,78.57142857142857,86.53846153846153,85.71428571428571,1.2041619030626447e-05,0.6180005073547363
694,0.8720143735408783,1.1627622842788696,82.6923076923077,71.42857142857143,94.23076923076923,92.85714285714286,8.856374635655637e-06,0.6159546375274658
695,0.7859063744544983,1.0918867588043213,84.61538461538461,64.28571428571429,88.46153846153847,92.85714285714286,6.15582970243128e-06,0.6200566291809082
696,0.8148006200790405,1.1432626247406006,82.6923076923077,71.42857142857143,92.3076923076923,92.85714285714286,3.942649342761339e-06,0.624291181564331
697,0.7769935429096222,1.2374802827835083,88.46153846153847,57.142857142857146,86.53846153846153,92.85714285714286,2.2190176984599464e-06,0.6227984428405762
698,0.8848533630371094,1.2985676527023315,86.53846153846153,71.42857142857143,98.07692307692308,85.71428571428571,9.866357858642204e-07,0.6219930648803711
699,1.0198289155960083,1.3999948501586914,76.92307692307692,71.42857142857143,86.53846153846153,85.71428571428571,2.4671981713425546e-07,0.6130385398864746
700,0.9932076334953308,1.199284315109253,75.0,64.28571428571429,90.38461538461539,92.85714285714286,0.0,0.6092932224273682
701,0.7525494396686554,1.9330089092254639,90.38461538461539,42.857142857142854,86.53846153846153,85.71428571428571,2.467198171342e-07,0.6200747489929199
702,0.8131140172481537,1.3155549764633179,82.6923076923077,64.28571428571429,82.6923076923077,92.85714285714286,9.86635785863943e-07,0.6173088550567627
703,0.8321004509925842,1.1096134185791016,82.6923076923077,64.28571428571429,92.3076923076923,92.85714285714286,2.219017698459336e-06,0.6193270683288574
704,0.8221065402030945,1.4151824712753296,82.6923076923077,57.142857142857146,90.38461538461539,92.85714285714286,3.9426493427601195e-06,0.6230497360229492
705,0.8087209463119507,0.9421744346618652,88.46153846153847,71.42857142857143,90.38461538461539,92.85714285714286,6.15582970242973e-06,0.6233477592468262
706,0.7614213228225708,1.284315824508667,92.3076923076923,57.142857142857146,90.38461538461539,92.85714285714286,8.856374635653481e-06,0.6283373832702637
707,0.82561856508255,1.5126289129257202,82.6923076923077,57.142857142857146,86.53846153846153,92.85714285714286,1.2041619030623184e-05,0.6181759834289551
708,0.9304743707180023,1.0122021436691284,82.6923076923077,78.57142857142857,86.53846153846153,78.57142857142857,1.5708419435681038e-05,0.6197962760925293
709,1.038580060005188,1.7416670322418213,76.92307692307692,50.0,86.53846153846153,85.71428571428571,1.9853157161523888e-05,0.6267499923706055
710,0.8636919558048248,1.2663198709487915,84.61538461538461,78.57142857142857,86.53846153846153,85.71428571428571,2.4471741852417285e-05,0.6281218528747559
711,0.8592308759689331,0.9151206016540527,80.76923076923077,85.71428571428571,88.46153846153847,78.57142857142857,2.9559615522880457e-05,0.6251027584075928
712,0.9038926959037781,1.3669965267181396,86.53846153846153,64.28571428571429,90.38461538461539,100.0,3.5111757055866485e-05,0.6172592639923096
713,0.8767029047012329,1.3726952075958252,76.92307692307692,57.142857142857146,88.46153846153847,92.85714285714286,4.1122687157999905e-05,0.6179087162017822
714,0.7871326208114624,1.3671760559082031,86.53846153846153,57.142857142857146,88.46153846153847,85.71428571428571,4.758647376697884e-05,0.6121087074279785
715,0.8452495336532593,1.2345410585403442,86.53846153846153,64.28571428571429,82.6923076923077,78.57142857142857,5.449673790580424e-05,0.6149702072143555
716,0.8125501573085785,1.4278538227081299,86.53846153846153,64.28571428571429,82.6923076923077,85.71428571428571,6.184665997805424e-05,0.6138157844543457
717,0.8167998194694519,0.8813527822494507,84.61538461538461,71.42857142857143,92.3076923076923,100.0,6.962898649801196e-05,0.6183407306671143
718,0.8501118719577789,0.6869337558746338,82.6923076923077,85.71428571428571,86.53846153846153,100.0,7.783603724897385e-05,0.6109600067138672
719,0.7648443281650543,1.2646334171295166,84.61538461538461,78.57142857142857,94.23076923076923,78.57142857142857,8.645971286269991e-05,0.6161303520202637
720,0.8374457657337189,1.1373071670532227,82.6923076923077,71.42857142857143,88.46153846153847,71.42857142857143,9.549150281250456e-05,0.6082966327667236
721,0.886540412902832,1.0713733434677124,82.6923076923077,71.42857142857143,92.3076923076923,85.71428571428571,0.00010492249381213034,0.6130926609039307
722,0.936649888753891,1.3264080286026,86.53846153846153,57.142857142857146,86.53846153846153,92.85714285714286,0.00011474337861207917,0.6135458946228027
723,0.7017941176891327,1.7252628803253174,84.61538461538461,64.28571428571429,88.46153846153847,78.57142857142857,0.00012494446518474225,0.6177616119384766
724,0.8674554824829102,0.875327467918396,82.6923076923077,85.71428571428571,88.46153846153847,85.71428571428571,0.00013551568628926316,0.6297645568847656
725,0.8258605897426605,1.6604604721069336,88.46153846153847,64.28571428571429,82.6923076923077,92.85714285714286,0.00014644660940669202,0.62074875831604
726,0.9013597965240479,1.6842029094696045,78.84615384615384,64.28571428571429,86.53846153846153,78.57142857142857,0.00015772644703562072,0.6429190635681152
727,1.0047073364257812,1.2396290302276611,75.0,78.57142857142857,92.3076923076923,85.71428571428571,0.00016934406733813578,0.620563268661499
728,1.0277786254882812,1.3011773824691772,78.84615384615384,71.42857142857143,84.61538461538461,92.85714285714286,0.0001812880051256134,0.6133489608764648
729,1.0459306836128235,1.180828332901001,82.6923076923077,64.28571428571429,84.61538461538461,85.71428571428571,0.0001935464731734679,0.6145853996276855
730,0.6805374920368195,1.6388005018234253,92.3076923076923,50.0,90.38461538461539,92.85714285714286,0.00020610737385371735,0.6209630966186523
731,0.9283654689788818,1.2519619464874268,82.6923076923077,71.42857142857143,94.23076923076923,85.71428571428571,0.00021895831107388497,0.6210429668426514
732,0.7977888882160187,0.6912957429885864,86.53846153846153,85.71428571428571,86.53846153846153,85.71428571428571,0.00023208660251044814,0.6292667388916016
733,1.0891622304916382,1.188737392425537,78.84615384615384,71.42857142857143,84.61538461538461,78.57142857142857,0.00024547929212475846,0.6160180568695068
734,1.0059541463851929,1.6036620140075684,82.6923076923077,57.142857142857146,88.46153846153847,71.42857142857143,0.0002591231629490841,0.6244077682495117
735,1.012539803981781,1.6561306715011597,76.92307692307692,64.28571428571429,90.38461538461539,85.71428571428571,0.00027300475013016434,0.6376490592956543
736,0.8089942932128906,1.372842788696289,86.53846153846153,50.0,92.3076923076923,92.85714285714286,0.00028711035421739736,0.6235158443450928
737,0.9042702615261078,1.2078566551208496,76.92307692307692,64.28571428571429,88.46153846153847,78.57142857142857,0.0003014260546825424,0.621915340423584
738,0.6933673918247223,0.8462177515029907,86.53846153846153,92.85714285714286,92.3076923076923,78.57142857142857,0.00031593772365758955,0.6114199161529541
739,0.998649388551712,1.1160746812820435,80.76923076923077,57.142857142857146,90.38461538461539,92.85714285714286,0.0003306310398772786,0.6203954219818115
740,0.7749578356742859,1.7451510429382324,88.46153846153847,50.0,86.53846153846153,71.42857142857143,0.00034549150281244794,0.6398084163665771
741,0.7499212324619293,1.5463759899139404,84.61538461538461,71.42857142857143,96.15384615384616,85.71428571428571,0.0003605044469803044,0.6357219219207764
742,0.7842339873313904,1.4733613729476929,90.38461538461539,57.142857142857146,90.38461538461539,78.57142857142857,0.00037565505641748724,0.6179845333099365
743,0.9196314811706543,1.4142260551452637,76.92307692307692,57.142857142857146,84.61538461538461,85.71428571428571,0.00039092837930163895,0.6182048320770264
744,0.8832118511199951,1.5369415283203125,82.6923076923077,50.0,88.46153846153847,85.71428571428571,0.00040630934270704524,0.6110267639160156
745,0.7388116121292114,1.487565279006958,94.23076923076923,57.142857142857146,90.38461538461539,85.71428571428571,0.00042178276747978935,0.6480329036712646
746,0.7473197877407074,2.2326576709747314,84.61538461538461,50.0,88.46153846153847,85.71428571428571,0.0004373333832177482,0.6207215785980225
747,0.7977942526340485,1.0138626098632812,86.53846153846153,71.42857142857143,92.3076923076923,92.85714285714286,0.00045294584334064055,0.6190495491027832
748,0.8134936690330505,1.481121301651001,86.53846153846153,57.142857142857146,86.53846153846153,92.85714285714286,0.00046860474023523825,0.6268472671508789
749,0.7478770017623901,1.1628453731536865,86.53846153846153,71.42857142857143,90.38461538461539,78.57142857142857,0.00048429462046082624,0.6130986213684082
750,1.0625834465026855,1.2026853561401367,84.61538461538461,57.142857142857146,90.38461538461539,92.85714285714286,0.0004999999999998858,0.6281790733337402
751,0.7268054187297821,1.2937085628509521,86.53846153846153,64.28571428571429,94.23076923076923,78.57142857142857,0.0005157053795389471,0.6241059303283691
752,0.8039735555648804,1.1182987689971924,82.6923076923077,57.142857142857146,86.53846153846153,85.71428571428571,0.000531395259764537,0.626816987991333
753,0.7988247871398926,1.4284212589263916,84.61538461538461,71.42857142857143,88.46153846153847,92.85714285714286,0.0005470541566591329,0.6251974105834961
754,0.687320202589035,1.8923428058624268,86.53846153846153,50.0,92.3076923076923,78.57142857142857,0.0005626666167820234,0.6219985485076904
755,0.7364681959152222,0.9871677160263062,92.3076923076923,71.42857142857143,84.61538461538461,78.57142857142857,0.000578217232519984,0.6230523586273193
756,0.9082362651824951,1.7974061965942383,82.6923076923077,50.0,86.53846153846153,78.57142857142857,0.0005936906572927282,0.6250834465026855
757,0.7985063791275024,1.2069603204727173,84.61538461538461,71.42857142857143,86.53846153846153,85.71428571428571,0.0006090716206981328,0.6435205936431885
758,0.8342095613479614,1.4571821689605713,82.6923076923077,71.42857142857143,92.3076923076923,85.71428571428571,0.0006243449435822862,0.6302788257598877
759,0.7872699797153473,1.1325716972351074,84.61538461538461,85.71428571428571,90.38461538461539,85.71428571428571,0.0006394955530194708,0.616856575012207
760,0.8316655158996582,1.057186245918274,82.6923076923077,78.57142857142857,88.46153846153847,85.71428571428571,0.0006545084971873256,0.620661735534668
761,0.9254437386989594,0.8254951238632202,82.6923076923077,78.57142857142857,80.76923076923077,85.71428571428571,0.0006693689601224933,0.6204953193664551
762,0.9294927716255188,0.7541095018386841,82.6923076923077,85.71428571428571,88.46153846153847,71.42857142857143,0.000684062276342184,0.6225879192352295
763,0.7846195995807648,1.4828824996948242,80.76923076923077,64.28571428571429,94.23076923076923,85.71428571428571,0.0006985739453172327,0.6188101768493652
764,1.00310218334198,1.4949488639831543,71.15384615384616,64.28571428571429,86.53846153846153,92.85714285714286,0.0007128896457823746,0.6050598621368408
765,0.7761096656322479,1.2432667016983032,82.6923076923077,71.42857142857143,90.38461538461539,100.0,0.0007269952498696092,0.6189451217651367
766,0.8229427337646484,1.3554420471191406,84.61538461538461,71.42857142857143,90.38461538461539,78.57142857142857,0.0007408768370506894,0.6215238571166992
767,0.7518778741359711,1.4810130596160889,86.53846153846153,64.28571428571429,90.38461538461539,85.71428571428571,0.000754520707875015,0.6099085807800293
768,1.0973082780838013,1.6567672491073608,73.07692307692308,64.28571428571429,86.53846153846153,78.57142857142857,0.000767913397489324,0.6144442558288574
769,0.9182369410991669,1.8338836431503296,84.61538461538461,64.28571428571429,90.38461538461539,85.71428571428571,0.0007810416889258886,0.6088376045227051
770,1.1076773703098297,1.1888625621795654,82.6923076923077,71.42857142857143,80.76923076923077,100.0,0.0007938926261460577,0.6142439842224121
771,0.9762110710144043,1.3282748460769653,82.6923076923077,78.57142857142857,90.38461538461539,85.71428571428571,0.0008064535268263057,0.6139636039733887
772,0.85155388712883,1.212860345840454,82.6923076923077,71.42857142857143,94.23076923076923,92.85714285714286,0.0008187119948741587,0.6136906147003174
773,0.8853121399879456,1.1991801261901855,82.6923076923077,71.42857142857143,94.23076923076923,92.85714285714286,0.0008306559326616377,0.6249606609344482
774,0.9721097350120544,1.0923833847045898,76.92307692307692,71.42857142857143,90.38461538461539,92.85714285714286,0.0008422735529641542,0.6292846202850342
775,0.9457888007164001,1.0947644710540771,78.84615384615384,71.42857142857143,86.53846153846153,71.42857142857143,0.0008535533905930803,0.6292099952697754
776,0.9238141775131226,1.719414472579956,80.76923076923077,64.28571428571429,88.46153846153847,85.71428571428571,0.0008644843137105105,0.625347375869751
777,1.0152870118618011,1.023749828338623,82.6923076923077,78.57142857142857,92.3076923076923,92.85714285714286,0.0008750555348150315,0.6183090209960938
778,1.034502387046814,1.2505828142166138,80.76923076923077,57.142857142857146,88.46153846153847,92.85714285714286,0.0008852566213876945,0.6152811050415039
779,0.8377489149570465,1.0387263298034668,82.6923076923077,64.28571428571429,90.38461538461539,92.85714285714286,0.0008950775061876422,0.6147258281707764
780,0.9568145573139191,1.5053683519363403,80.76923076923077,57.142857142857146,88.46153846153847,92.85714285714286,0.0009045084971872693,0.6172149181365967
781,0.8553500175476074,1.1766324043273926,76.92307692307692,71.42857142857143,96.15384615384616,85.71428571428571,0.0009135402871370748,0.6231281757354736
782,1.0576515197753906,1.0709888935089111,73.07692307692308,71.42857142857143,90.38461538461539,85.71428571428571,0.0009221639627507988,0.6135134696960449
783,1.1917665004730225,0.7771329879760742,69.23076923076923,78.57142857142857,88.46153846153847,85.71428571428571,0.0009303710135017616,0.6100614070892334
784,1.135711908340454,1.0836460590362549,78.84615384615384,64.28571428571429,82.6923076923077,85.71428571428571,0.0009381533400217194,0.6137995719909668
785,0.9266162514686584,1.3483878374099731,75.0,57.142857142857146,96.15384615384616,92.85714285714286,0.0009455032620939703,0.6153390407562256
786,1.0846177339553833,1.29044508934021,75.0,64.28571428571429,84.61538461538461,85.71428571428571,0.0009524135262327941,0.618966817855835
787,1.1632863283157349,1.6341233253479004,75.0,57.142857142857146,86.53846153846153,78.57142857142857,0.0009588773128417739,0.6120028495788574
788,0.9552856087684631,0.8313732147216797,82.6923076923077,78.57142857142857,86.53846153846153,85.71428571428571,0.0009648882429439073,0.6173536777496338
789,0.9482284188270569,1.2524018287658691,75.0,64.28571428571429,96.15384615384616,85.71428571428571,0.0009704403844768934,0.6236152648925781
790,0.8796966969966888,0.8544356226921082,76.92307692307692,71.42857142857143,92.3076923076923,100.0,0.0009755282581473561,0.6154172420501709
791,1.0440367460250854,1.1268789768218994,73.07692307692308,71.42857142857143,90.38461538461539,92.85714285714286,0.00098014684283825,0.6183662414550781
