epoch,train_loss,test_loss,train_acc_action,test_acc_action,train_acc_status,test_acc_status,learning_rate,epoch_time
1,1.8736249208450317,1.783656120300293,34.61538461538461,42.857142857142854,23.076923076923077,21.428571428571427,0.00039990131207314633,0.8727743625640869
2,1.7711753249168396,1.8576252460479736,50.0,28.571428571428573,40.38461538461539,78.57142857142857,0.00039960534568565434,0.5944299697875977
3,1.7468801736831665,1.7009556293487549,51.92307692307692,42.857142857142854,50.0,85.71428571428571,0.00039911239292061604,0.5852601528167725
4,1.769731879234314,1.8450782299041748,40.38461538461539,21.428571428571427,59.61538461538461,57.142857142857146,0.00039842294026289565,0.595679759979248
5,1.7283394932746887,1.7388262748718262,48.07692307692308,28.571428571428573,63.46153846153846,71.42857142857143,0.0003975376681190276,0.5898241996765137
6,1.7274137735366821,1.608669400215149,44.23076923076923,50.0,69.23076923076923,92.85714285714286,0.0003964574501457378,0.6055302619934082
7,1.6973444819450378,1.591331958770752,51.92307692307692,57.142857142857146,69.23076923076923,78.57142857142857,0.00039518335238774953,0.5937860012054443
8,1.6417014002799988,1.6917414665222168,44.23076923076923,35.714285714285715,78.84615384615384,78.57142857142857,0.00039371663222572626,0.5888378620147705
9,1.665534257888794,1.6868455410003662,44.23076923076923,42.857142857142854,76.92307692307692,85.71428571428571,0.0003920587371353887,0.5901684761047363
10,1.6318165063858032,1.619361162185669,53.84615384615385,42.857142857142854,75.0,85.71428571428571,0.0003902113032590308,0.5940988063812256
11,1.6296066641807556,1.6942038536071777,38.46153846153846,42.857142857142854,76.92307692307692,85.71428571428571,0.0003881761537908452,0.592914342880249
12,1.5902838706970215,1.5953236818313599,48.07692307692308,42.857142857142854,76.92307692307692,85.71428571428571,0.0003859552971776504,0.5889062881469727
13,1.5402737855911255,1.5184037685394287,57.69230769230769,64.28571428571429,80.76923076923077,85.71428571428571,0.0003835509251367963,0.5871744155883789
14,1.6622928977012634,1.4825658798217773,46.15384615384615,78.57142857142857,82.6923076923077,85.71428571428571,0.000380965410493204,0.6007857322692871
15,1.546802580356598,1.3947887420654297,57.69230769230769,71.42857142857143,82.6923076923077,85.71428571428571,0.0003782013048376737,0.5999405384063721
16,1.4839444756507874,1.4434311389923096,55.76923076923077,78.57142857142857,82.6923076923077,85.71428571428571,0.00037526133600877283,0.5959794521331787
17,1.441521167755127,1.4730923175811768,59.61538461538461,64.28571428571429,80.76923076923077,85.71428571428571,0.0003721484054007889,0.5942747592926025
18,1.5353223085403442,1.421832799911499,57.69230769230769,57.142857142857146,82.6923076923077,85.71428571428571,0.0003688655851004032,0.5892617702484131
19,1.523848056793213,1.3737655878067017,63.46153846153846,64.28571428571429,82.6923076923077,85.71428571428571,0.00036541611485491255,0.5861036777496338
20,1.4005372524261475,1.4486724138259888,71.15384615384616,57.142857142857146,82.6923076923077,85.71428571428571,0.0003618033988749897,0.5870916843414307
21,1.5401420593261719,1.3997056484222412,50.0,50.0,82.6923076923077,85.71428571428571,0.00035803100247513823,0.583871603012085
22,1.3971670866012573,1.3930866718292236,63.46153846153846,50.0,80.76923076923077,85.71428571428571,0.000354102648555158,0.5867063999176025
23,1.370241641998291,1.2602672576904297,63.46153846153846,71.42857142857143,82.6923076923077,85.71428571428571,0.0003500222139260921,0.583946704864502
24,1.4842491149902344,1.340649127960205,48.07692307692308,57.142857142857146,78.84615384615384,85.71428571428571,0.00034579372548428246,0.5990004539489746
25,1.3053556680679321,1.416151762008667,65.38461538461539,50.0,80.76923076923077,85.71428571428571,0.0003414213562373096,0.5874550342559814
26,1.4086671471595764,1.4871339797973633,53.84615384615385,57.142857142857146,82.6923076923077,85.71428571428571,0.00033690942118573785,0.6138062477111816
27,1.3664250373840332,1.4830708503723145,61.53846153846154,50.0,82.6923076923077,85.71428571428571,0.0003322623730647305,0.5897819995880127
28,1.3253219723701477,1.2369105815887451,67.3076923076923,57.142857142857146,82.6923076923077,85.71428571428571,0.00032748479794973803,0.5918800830841064
29,1.3435332775115967,1.286611795425415,67.3076923076923,64.28571428571429,82.6923076923077,85.71428571428571,0.00032258141073059543,0.5900468826293945
30,1.3587770462036133,1.2032991647720337,65.38461538461539,78.57142857142857,82.6923076923077,85.71428571428571,0.0003175570504584948,0.5871782302856445
31,1.2497183084487915,0.992884635925293,75.0,92.85714285714286,82.6923076923077,85.71428571428571,0.0003124166755704263,0.5880348682403564
32,1.3089823126792908,1.003608226776123,65.38461538461539,92.85714285714286,80.76923076923077,85.71428571428571,0.0003071653589957995,0.5920956134796143
33,1.3480894565582275,1.1505787372589111,69.23076923076923,71.42857142857143,78.84615384615384,85.71428571428571,0.00030180828315007444,0.5966653823852539
34,1.3356059193611145,1.2213268280029297,61.53846153846154,71.42857142857143,82.6923076923077,85.71428571428571,0.0002963507348203432,0.5984699726104736
35,1.2772928476333618,0.9610401391983032,71.15384615384616,85.71428571428571,80.76923076923077,85.71428571428571,0.00029079809994790953,0.5875415802001953
36,1.174641489982605,1.101632833480835,73.07692307692308,78.57142857142857,82.6923076923077,85.71428571428571,0.00028515585831301473,0.5837299823760986
37,1.2856754064559937,0.9448342323303223,69.23076923076923,85.71428571428571,82.6923076923077,85.71428571428571,0.0002794295781269563,0.5865256786346436
38,1.1861170530319214,0.8852715492248535,75.0,92.85714285714286,82.6923076923077,85.71428571428571,0.0002736249105369358,0.5948259830474854
39,1.1822872757911682,0.9139305353164673,73.07692307692308,85.71428571428571,82.6923076923077,85.71428571428571,0.0002677475840490585,0.5938990116119385
40,1.1212998628616333,1.0083359479904175,78.84615384615384,78.57142857142857,82.6923076923077,85.71428571428571,0.0002618033988749897,0.591357946395874
41,1.1761180758476257,0.9540212154388428,76.92307692307692,78.57142857142857,82.6923076923077,85.71428571428571,0.0002557982212078461,0.5927979946136475
42,1.1409690976142883,1.225587248802185,65.38461538461539,64.28571428571429,84.61538461538461,85.71428571428571,0.00024973797743297113,0.5931401252746582
43,1.0986641645431519,0.8292568922042847,78.84615384615384,92.85714285714286,82.6923076923077,85.71428571428571,0.00024362864827930873,0.5925211906433105
44,1.21796053647995,1.0485492944717407,69.23076923076923,78.57142857142857,82.6923076923077,85.71428571428571,0.00023747626291714514,0.5916397571563721
45,1.143604040145874,1.0968860387802124,75.0,78.57142857142857,80.76923076923077,85.71428571428571,0.00023128689300804637,0.5924484729766846
46,1.1896163523197174,0.7972385287284851,75.0,92.85714285714286,82.6923076923077,85.71428571428571,0.00022506664671286108,0.5948359966278076
47,1.0281921327114105,1.0804426670074463,82.6923076923077,71.42857142857143,80.76923076923077,85.71428571428571,0.00021882166266370303,0.5820395946502686
48,1.1152099967002869,1.3164077997207642,73.07692307692308,64.28571428571429,86.53846153846153,85.71428571428571,0.00021255810390586287,0.5902376174926758
49,1.0918568968772888,1.0880112648010254,80.76923076923077,71.42857142857143,82.6923076923077,85.71428571428571,0.00020628215181562584,0.5853519439697266
50,1.0815185010433197,0.992868185043335,76.92307692307692,78.57142857142857,84.61538461538461,85.71428571428571,0.00020000000000000017,0.5909090042114258
51,1.014391303062439,1.1164747476577759,82.6923076923077,78.57142857142857,84.61538461538461,85.71428571428571,0.0001937178481843745,0.585167646408081
52,1.08521169424057,1.2609784603118896,71.15384615384616,71.42857142857143,82.6923076923077,85.71428571428571,0.00018744189609413747,0.5889854431152344
53,1.060583233833313,0.8816239833831787,73.07692307692308,78.57142857142857,80.76923076923077,85.71428571428571,0.00018117833733629726,0.5915586948394775
54,0.9957217276096344,1.2640947103500366,76.92307692307692,57.142857142857146,84.61538461538461,85.71428571428571,0.0001749333532871393,0.5893082618713379
55,1.125131368637085,1.1114479303359985,71.15384615384616,64.28571428571429,82.6923076923077,85.71428571428571,0.00016871310699195395,0.5922408103942871
56,1.1396371126174927,0.9830974340438843,80.76923076923077,85.71428571428571,82.6923076923077,85.71428571428571,0.0001625237370828552,0.5889616012573242
57,1.0752295851707458,0.846696674823761,80.76923076923077,78.57142857142857,82.6923076923077,85.71428571428571,0.00015637135172069167,0.5907468795776367
58,1.2264195084571838,1.1782982349395752,73.07692307692308,78.57142857142857,86.53846153846153,85.71428571428571,0.00015026202256702916,0.590111494064331
59,1.0533450245857239,0.924044132232666,82.6923076923077,78.57142857142857,84.61538461538461,85.71428571428571,0.0001442017787921543,0.5862195491790771
60,1.1885377764701843,0.8453595042228699,80.76923076923077,92.85714285714286,84.61538461538461,85.71428571428571,0.0001381966011250107,0.5901639461517334
61,1.0705403685569763,0.780925989151001,82.6923076923077,92.85714285714286,88.46153846153847,85.71428571428571,0.00013225241595094187,0.5873801708221436
62,1.1216816306114197,0.9786170721054077,76.92307692307692,85.71428571428571,82.6923076923077,85.71428571428571,0.0001263750894630646,0.6102457046508789
63,1.0989539623260498,1.6596779823303223,78.84615384615384,71.42857142857143,80.76923076923077,85.71428571428571,0.00012057042187304399,0.5934338569641113
64,1.2214744687080383,1.3296231031417847,71.15384615384616,57.142857142857146,82.6923076923077,85.71428571428571,0.00011484414168698559,0.593024730682373
65,1.0112472176551819,0.821931004524231,84.61538461538461,85.71428571428571,82.6923076923077,85.71428571428571,0.00010920190005209077,0.5888175964355469
66,0.9970945119857788,0.98023521900177,86.53846153846153,85.71428571428571,82.6923076923077,85.71428571428571,0.00010364926517965704,0.5904629230499268
67,1.1173993945121765,0.9042375087738037,78.84615384615384,78.57142857142857,84.61538461538461,85.71428571428571,9.819171684992585e-05,0.5919880867004395
68,1.1003786325454712,1.0069496631622314,63.46153846153846,71.42857142857143,82.6923076923077,85.71428571428571,9.283464100420074e-05,0.5910375118255615
69,0.9555443525314331,1.3343088626861572,76.92307692307692,57.142857142857146,82.6923076923077,85.71428571428571,8.758332442957398e-05,0.5904598236083984
70,1.1977932453155518,1.1533238887786865,73.07692307692308,64.28571428571429,82.6923076923077,85.71428571428571,8.24429495415055e-05,0.5913386344909668
71,0.9223986566066742,0.8380782008171082,86.53846153846153,85.71428571428571,86.53846153846153,85.71428571428571,7.741858926940478e-05,0.5953552722930908
72,0.9914220571517944,0.8745317459106445,82.6923076923077,85.71428571428571,82.6923076923077,85.71428571428571,7.251520205026215e-05,0.5899326801300049
73,0.8849062621593475,1.0243078470230103,88.46153846153847,71.42857142857143,84.61538461538461,85.71428571428571,6.773762693526975e-05,0.5861594676971436
74,0.8911836743354797,0.94591224193573,86.53846153846153,78.57142857142857,86.53846153846153,85.71428571428571,6.309057881426234e-05,0.595388650894165
75,0.9690808653831482,0.7220586538314819,82.6923076923077,92.85714285714286,80.76923076923077,85.71428571428571,5.857864376269059e-05,0.5888955593109131
76,1.0111045241355896,1.1961898803710938,76.92307692307692,71.42857142857143,84.61538461538461,85.71428571428571,5.420627451571781e-05,0.5972998142242432
77,0.912016749382019,1.023474931716919,84.61538461538461,85.71428571428571,84.61538461538461,85.71428571428571,4.9977786073908174e-05,0.5925486087799072
78,1.0491345822811127,1.1089260578155518,75.0,71.42857142857143,80.76923076923077,85.71428571428571,4.5897351444842234e-05,0.5872054100036621
79,0.9251626133918762,0.9461582899093628,82.6923076923077,78.57142857142857,88.46153846153847,85.71428571428571,4.1968997524861976e-05,0.593970775604248
80,0.8959006667137146,0.8478570580482483,88.46153846153847,92.85714285714286,80.76923076923077,85.71428571428571,3.8196601125010586e-05,0.5839385986328125
81,1.013329178094864,1.1577627658843994,78.84615384615384,78.57142857142857,82.6923076923077,85.71428571428571,3.458388514508772e-05,0.5965077877044678
82,1.104690968990326,1.0449936389923096,80.76923076923077,85.71428571428571,82.6923076923077,85.71428571428571,3.113441489959707e-05,0.5873596668243408
83,0.9445088505744934,0.8845298290252686,82.6923076923077,92.85714285714286,80.76923076923077,85.71428571428571,2.7851594599211286e-05,0.5956761837005615
84,1.0054747462272644,0.817905068397522,73.07692307692308,100.0,80.76923076923077,85.71428571428571,2.4738663991227316e-05,0.591564416885376
85,0.9507235586643219,0.7960879802703857,84.61538461538461,78.57142857142857,80.76923076923077,85.71428571428571,2.179869516232647e-05,0.5932116508483887
86,0.9983426928520203,0.9758630394935608,82.6923076923077,78.57142857142857,86.53846153846153,85.71428571428571,1.9034589506796152e-05,0.5926289558410645
87,1.0040439069271088,0.7523490190505981,88.46153846153847,92.85714285714286,84.61538461538461,85.71428571428571,1.6449074863203837e-05,0.5928161144256592
88,0.9147180020809174,0.9697914123535156,88.46153846153847,85.71428571428571,82.6923076923077,85.71428571428571,1.4044702822349747e-05,0.5927608013153076
89,0.9665016531944275,1.1956816911697388,78.84615384615384,57.142857142857146,80.76923076923077,85.71428571428571,1.1823846209154923e-05,0.5939598083496094
90,0.9416095614433289,1.214250087738037,86.53846153846153,71.42857142857143,80.76923076923077,85.71428571428571,9.788696740969305e-06,0.5900993347167969
91,1.2045947909355164,0.887127697467804,76.92307692307692,85.71428571428571,84.61538461538461,85.71428571428571,7.941262864611418e-06,0.5912494659423828
92,1.103566825389862,0.7756697535514832,78.84615384615384,85.71428571428571,80.76923076923077,85.71428571428571,6.283367774273814e-06,0.5924158096313477
93,0.9631743431091309,0.9339426755905151,84.61538461538461,78.57142857142857,84.61538461538461,85.71428571428571,4.816647612250541e-06,0.5928583145141602
94,1.0110527575016022,0.7164146900177002,84.61538461538461,92.85714285714286,82.6923076923077,85.71428571428571,3.54254985426226e-06,0.5882105827331543
95,1.0467804074287415,0.7419764995574951,82.6923076923077,92.85714285714286,82.6923076923077,85.71428571428571,2.462331880972471e-06,0.5913729667663574
96,0.8904682695865631,1.0994573831558228,84.61538461538461,71.42857142857143,82.6923076923077,85.71428571428571,1.577059737104449e-06,0.5938503742218018
97,0.9663342237472534,1.0793657302856445,82.6923076923077,71.42857142857143,80.76923076923077,85.71428571428571,8.876070793840018e-07,0.5931949615478516
98,0.9911550879478455,0.8198480606079102,86.53846153846153,78.57142857142857,84.61538461538461,85.71428571428571,3.946543143456887e-07,0.5871601104736328
99,0.8632635772228241,0.8737313747406006,86.53846153846153,85.71428571428571,82.6923076923077,85.71428571428571,9.86879268536801e-08,0.5876238346099854
100,1.020782470703125,0.8114977478981018,84.61538461538461,78.57142857142857,82.6923076923077,85.71428571428571,0.0,0.5952713489532471
101,1.010275959968567,0.8939675092697144,84.61538461538461,71.42857142857143,78.84615384615384,85.71428571428571,2.467198171342e-07,0.5854794979095459
102,1.1278263926506042,1.0193010568618774,76.92307692307692,78.57142857142857,82.6923076923077,85.71428571428571,9.866357858642204e-07,0.5908081531524658
103,1.2251749634742737,0.9592714309692383,78.84615384615384,64.28571428571429,82.6923076923077,85.71428571428571,2.2190176984600015e-06,0.5875692367553711
104,0.9824379682540894,0.912010133266449,78.84615384615384,85.71428571428571,84.61538461538461,85.71428571428571,3.9426493427610614e-06,0.5878579616546631
105,0.8888240158557892,1.0751523971557617,78.84615384615384,78.57142857142857,88.46153846153847,85.71428571428571,6.155829702431114e-06,0.5863099098205566
106,1.106172889471054,0.969792902469635,80.76923076923077,85.71428571428571,84.61538461538461,85.71428571428571,8.856374635655695e-06,0.5822892189025879
107,1.0091989636421204,1.0117204189300537,86.53846153846153,71.42857142857143,86.53846153846153,85.71428571428571,1.2041619030626284e-05,0.5864303112030029
108,0.9791133403778076,1.1142618656158447,78.84615384615384,64.28571428571429,84.61538461538461,85.71428571428571,1.570841943568441e-05,0.5928242206573486
109,1.0661186575889587,1.0215636491775513,78.84615384615384,78.57142857142857,82.6923076923077,85.71428571428571,1.9853157161528415e-05,0.5924084186553955
110,1.079421579837799,1.094000220298767,71.15384615384616,71.42857142857143,84.61538461538461,85.71428571428571,2.447174185242318e-05,0.5938010215759277
111,0.9892786145210266,0.924433171749115,76.92307692307692,78.57142857142857,82.6923076923077,85.71428571428571,2.9559615522887274e-05,0.5924632549285889
112,1.0301819145679474,1.2768226861953735,82.6923076923077,57.142857142857146,88.46153846153847,85.71428571428571,3.511175705587427e-05,0.5889384746551514
113,1.0444614887237549,1.1152467727661133,76.92307692307692,71.42857142857143,82.6923076923077,85.71428571428571,4.112268715800937e-05,0.6056766510009766
114,1.0165732502937317,1.5091617107391357,80.76923076923077,64.28571428571429,86.53846153846153,85.71428571428571,4.758647376699015e-05,0.589580774307251
115,1.1409780979156494,0.9132481217384338,73.07692307692308,78.57142857142857,82.6923076923077,85.71428571428571,5.449673790581616e-05,0.5914618968963623
116,1.0973470211029053,1.201983094215393,80.76923076923077,78.57142857142857,82.6923076923077,85.71428571428571,6.18466599780682e-05,0.5953173637390137
117,1.0437833666801453,1.0785057544708252,80.76923076923077,71.42857142857143,80.76923076923077,85.71428571428571,6.962898649802817e-05,0.5934176445007324
118,1.1182076930999756,0.9536742568016052,80.76923076923077,78.57142857142857,82.6923076923077,85.71428571428571,7.78360372489924e-05,0.5912928581237793
119,1.0592046976089478,0.9810821413993835,80.76923076923077,78.57142857142857,84.61538461538461,85.71428571428571,8.645971286271896e-05,0.6002986431121826
120,1.0187546014785767,1.2398970127105713,78.84615384615384,71.42857142857143,82.6923076923077,85.71428571428571,9.54915028125261e-05,0.5873715877532959
121,1.155386209487915,1.162300944328308,67.3076923076923,71.42857142857143,82.6923076923077,85.71428571428571,0.00010492249381215483,0.5881335735321045
122,1.1014374494552612,1.1648623943328857,69.23076923076923,57.142857142857146,86.53846153846153,85.71428571428571,0.00011474337861210537,0.5904202461242676
123,0.9567326009273529,0.9694846868515015,80.76923076923077,78.57142857142857,86.53846153846153,85.71428571428571,0.00012494446518477014,0.5889573097229004
124,1.1229931712150574,0.8511396050453186,76.92307692307692,85.71428571428571,90.38461538461539,85.71428571428571,0.00013551568628929406,0.587254524230957
125,1.0070669949054718,1.044385552406311,80.76923076923077,78.57142857142857,82.6923076923077,85.71428571428571,0.00014644660940672606,0.5937135219573975
126,1.2393256425857544,0.7938156127929688,71.15384615384616,85.71428571428571,80.76923076923077,85.71428571428571,0.00015772644703565569,0.5937209129333496
127,0.9633785784244537,1.0483665466308594,84.61538461538461,92.85714285714286,80.76923076923077,85.71428571428571,0.00016934406733817403,0.591036319732666
128,1.0882713794708252,0.9770550727844238,76.92307692307692,85.71428571428571,84.61538461538461,85.71428571428571,0.00018128800512565523,0.5954885482788086
129,1.008609116077423,1.5688984394073486,84.61538461538461,57.142857142857146,90.38461538461539,85.71428571428571,0.00019354647317351177,0.5887997150421143
130,0.9805970788002014,0.8133563995361328,78.84615384615384,85.71428571428571,82.6923076923077,78.57142857142857,0.0002061073738537634,0.5879104137420654
131,0.9518510103225708,1.0529639720916748,80.76923076923077,71.42857142857143,82.6923076923077,85.71428571428571,0.00021895831107393457,0.5912303924560547
132,1.062499761581421,0.8226058483123779,80.76923076923077,85.71428571428571,82.6923076923077,85.71428571428571,0.00023208660251050189,0.5879900455474854
133,1.0018379390239716,0.971610426902771,78.84615384615384,71.42857142857143,86.53846153846153,78.57142857142857,0.00024547929212481446,0.5885021686553955
134,0.9841732382774353,0.8547027111053467,80.76923076923077,78.57142857142857,88.46153846153847,85.71428571428571,0.0002591231629491424,0.5972721576690674
135,0.9999503493309021,0.905652642250061,80.76923076923077,71.42857142857143,84.61538461538461,85.71428571428571,0.0002730047501302265,0.5896790027618408
136,1.0674507021903992,1.2220791578292847,76.92307692307692,57.142857142857146,86.53846153846153,85.71428571428571,0.0002871103542174639,0.5912024974822998
137,0.9890861511230469,1.0922119617462158,73.07692307692308,71.42857142857143,84.61538461538461,85.71428571428571,0.0003014260546826098,0.5874807834625244
138,1.0382171869277954,0.9274699687957764,76.92307692307692,78.57142857142857,80.76923076923077,78.57142857142857,0.00031593772365766105,0.5915942192077637
139,1.0305829644203186,0.7262226343154907,76.92307692307692,92.85714285714286,84.61538461538461,78.57142857142857,0.00033063103987735425,0.5872571468353271
140,0.9179226756095886,1.0281615257263184,76.92307692307692,78.57142857142857,78.84615384615384,71.42857142857143,0.00034549150281252617,0.5890200138092041
141,0.9007978141307831,1.0220565795898438,80.76923076923077,78.57142857142857,84.61538461538461,78.57142857142857,0.0003605044469803852,0.5907270908355713
142,1.1334442496299744,0.8810502290725708,73.07692307692308,78.57142857142857,82.6923076923077,85.71428571428571,0.00037565505641757284,0.5912840366363525
143,1.1893028616905212,0.8152267932891846,73.07692307692308,85.71428571428571,90.38461538461539,85.71428571428571,0.00039092837930172883,0.5888440608978271
144,1.0694141387939453,0.8878837823867798,78.84615384615384,78.57142857142857,86.53846153846153,78.57142857142857,0.0004063093427071377,0.5838794708251953
145,1.0039389431476593,0.9032280445098877,75.0,71.42857142857143,88.46153846153847,78.57142857142857,0.00042178276747988454,0.5905373096466064
146,0.8723756968975067,0.9581543207168579,78.84615384615384,71.42857142857143,86.53846153846153,71.42857142857143,0.00043733338321784774,0.5868504047393799
147,0.9592502117156982,1.0094356536865234,78.84615384615384,85.71428571428571,86.53846153846153,78.57142857142857,0.000452945843340743,0.5945107936859131
148,0.9980370402336121,1.098344087600708,84.61538461538461,78.57142857142857,86.53846153846153,71.42857142857143,0.00046860474023534336,0.5950264930725098
149,0.9335501790046692,0.873275876045227,80.76923076923077,78.57142857142857,82.6923076923077,78.57142857142857,0.00048429462046093585,0.5911850929260254
150,1.0378627181053162,0.9667297601699829,82.6923076923077,71.42857142857143,82.6923076923077,71.42857142857143,0.0004999999999999999,0.5922040939331055
151,0.8442484140396118,1.5460522174835205,90.38461538461539,71.42857142857143,78.84615384615384,71.42857142857143,0.0005157053795390639,0.5836515426635742
152,1.0111024081707,1.2107512950897217,76.92307692307692,71.42857142857143,84.61538461538461,85.71428571428571,0.0005313952597646563,0.590313196182251
153,0.9323528409004211,1.0908666849136353,84.61538461538461,64.28571428571429,86.53846153846153,71.42857142857143,0.0005470541566592572,0.5882463455200195
154,0.9883036911487579,1.2010366916656494,80.76923076923077,71.42857142857143,86.53846153846153,71.42857142857143,0.0005626666167821521,0.5898730754852295
155,0.9987959265708923,0.8679966926574707,76.92307692307692,78.57142857142857,94.23076923076923,71.42857142857143,0.0005782172325201154,0.5959432125091553
156,0.9717129468917847,0.9929444789886475,78.84615384615384,71.42857142857143,82.6923076923077,78.57142857142857,0.0005936906572928622,0.5859391689300537
157,0.9719529449939728,1.3339998722076416,78.84615384615384,57.142857142857146,80.76923076923077,85.71428571428571,0.0006090716206982711,0.5907628536224365
158,1.0011404156684875,1.2704907655715942,76.92307692307692,78.57142857142857,86.53846153846153,78.57142857142857,0.0006243449435824275,0.5842070579528809
159,0.9402610063552856,0.8420908451080322,73.07692307692308,85.71428571428571,82.6923076923077,92.85714285714286,0.0006394955530196146,0.5892703533172607
160,1.0905343890190125,0.8743894100189209,80.76923076923077,85.71428571428571,86.53846153846153,78.57142857142857,0.0006545084971874736,0.5866255760192871
161,1.1267064809799194,0.9490565061569214,75.0,64.28571428571429,88.46153846153847,78.57142857142857,0.0006693689601226455,0.5898504257202148
162,1.060253620147705,1.1330480575561523,80.76923076923077,64.28571428571429,86.53846153846153,85.71428571428571,0.0006840622763423387,0.5879604816436768
163,0.8820658028125763,1.1358575820922852,82.6923076923077,78.57142857142857,82.6923076923077,85.71428571428571,0.00069857394531739,0.5856170654296875
164,1.0680742859840393,0.8330309391021729,75.0,85.71428571428571,88.46153846153847,71.42857142857143,0.0007128896457825359,0.5886228084564209
165,1.0744390785694122,1.0483462810516357,78.84615384615384,85.71428571428571,88.46153846153847,78.57142857142857,0.0007269952498697729,0.5872111320495605
166,0.9952377080917358,0.9579836130142212,80.76923076923077,71.42857142857143,82.6923076923077,78.57142857142857,0.0007408768370508579,0.5878994464874268
167,1.0510228872299194,0.751146674156189,75.0,85.71428571428571,90.38461538461539,85.71428571428571,0.0007545207078751859,0.5867941379547119
168,1.0127910375595093,1.0557564496994019,84.61538461538461,78.57142857142857,84.61538461538461,85.71428571428571,0.0007679133974894986,0.5830693244934082
169,1.006231427192688,1.4225271940231323,76.92307692307692,71.42857142857143,82.6923076923077,85.71428571428571,0.0007810416889260655,0.5922749042510986
170,1.037051022052765,1.0091674327850342,80.76923076923077,85.71428571428571,92.3076923076923,71.42857142857143,0.0007938926261462367,0.5825378894805908
171,0.9324661493301392,1.2392820119857788,84.61538461538461,85.71428571428571,84.61538461538461,78.57142857142857,0.0008064535268264883,0.600064754486084
172,1.167507529258728,0.8448131084442139,80.76923076923077,92.85714285714286,80.76923076923077,78.57142857142857,0.0008187119948743449,0.5871529579162598
173,1.2247706651687622,1.1085084676742554,75.0,85.71428571428571,84.61538461538461,71.42857142857143,0.0008306559326618259,0.5940349102020264
174,1.053961992263794,1.1775295734405518,82.6923076923077,85.71428571428571,80.76923076923077,85.71428571428571,0.0008422735529643441,0.5873165130615234
175,0.965274453163147,0.9155291318893433,80.76923076923077,92.85714285714286,84.61538461538461,78.57142857142857,0.0008535533905932735,0.58917236328125
176,1.0032801032066345,0.8177317380905151,76.92307692307692,78.57142857142857,84.61538461538461,78.57142857142857,0.0008644843137107058,0.5907089710235596
177,1.009329378604889,1.3470032215118408,75.0,71.42857142857143,92.3076923076923,85.71428571428571,0.0008750555348152301,0.5894267559051514
178,0.9817828834056854,0.8222841024398804,80.76923076923077,78.57142857142857,88.46153846153847,92.85714285714286,0.0008852566213878949,0.5886538028717041
179,0.9699488282203674,1.002463936805725,82.6923076923077,85.71428571428571,88.46153846153847,85.71428571428571,0.0008950775061878453,0.5801479816436768
180,0.9025881886482239,0.9872874021530151,82.6923076923077,78.57142857142857,86.53846153846153,85.71428571428571,0.0009045084971874741,0.5887961387634277
181,0.9704216122627258,1.575278878211975,84.61538461538461,57.142857142857146,88.46153846153847,71.42857142857143,0.0009135402871372812,0.5904085636138916
182,0.9625177383422852,1.2760783433914185,82.6923076923077,57.142857142857146,90.38461538461539,78.57142857142857,0.0009221639627510079,0.5822286605834961
183,0.9909591376781464,1.1026314496994019,80.76923076923077,85.71428571428571,86.53846153846153,92.85714285714286,0.000930371013501972,0.5915260314941406
184,0.8943604230880737,0.6469752788543701,80.76923076923077,100.0,88.46153846153847,85.71428571428571,0.000938153340021932,0.5817961692810059
185,0.9888963103294373,1.0582318305969238,75.0,71.42857142857143,88.46153846153847,78.57142857142857,0.0009455032620941843,0.5891187191009521
186,1.0395619869232178,0.8611882925033569,76.92307692307692,85.71428571428571,90.38461538461539,78.57142857142857,0.0009524135262330102,0.5811252593994141
187,1.2944684028625488,0.9672634601593018,73.07692307692308,85.71428571428571,86.53846153846153,85.71428571428571,0.0009588773128419913,0.5834174156188965
188,0.8477077186107635,1.2060115337371826,86.53846153846153,71.42857142857143,84.61538461538461,85.71428571428571,0.0009648882429441262,0.5867767333984375
189,1.1208879947662354,1.5485289096832275,76.92307692307692,57.142857142857146,86.53846153846153,78.57142857142857,0.0009704403844771133,0.5851802825927734
190,1.1993188261985779,0.9028512239456177,71.15384615384616,78.57142857142857,90.38461538461539,85.71428571428571,0.0009755282581475773,0.5872707366943359
191,0.9845763444900513,1.4321743249893188,75.0,64.28571428571429,90.38461538461539,92.85714285714286,0.000980146842838472,0.5908060073852539
192,1.0253394544124603,1.1448049545288086,80.76923076923077,71.42857142857143,78.84615384615384,85.71428571428571,0.0009842915805643162,0.5874137878417969
193,1.0022590160369873,1.0354022979736328,80.76923076923077,78.57142857142857,82.6923076923077,78.57142857142857,0.0009879583809693743,0.5808229446411133
194,0.9497560262680054,0.8861870765686035,84.61538461538461,85.71428571428571,88.46153846153847,85.71428571428571,0.000991143625364345,0.589719295501709
195,0.979337751865387,0.9239523410797119,76.92307692307692,78.57142857142857,84.61538461538461,78.57142857142857,0.0009938441702975695,0.5860111713409424
196,0.9406148791313171,0.9333758354187012,80.76923076923077,71.42857142857143,86.53846153846153,78.57142857142857,0.0009960573506572394,0.5897672176361084
197,0.9689120054244995,1.1454890966415405,78.84615384615384,71.42857142857143,86.53846153846153,78.57142857142857,0.0009977809823015407,0.5960009098052979
198,1.003068894147873,0.9823367595672607,78.84615384615384,71.42857142857143,84.61538461538461,92.85714285714286,0.0009990133642141365,0.5977969169616699
199,0.9058717489242554,1.0010526180267334,80.76923076923077,78.57142857142857,90.38461538461539,85.71428571428571,0.0009997532801828664,0.5961954593658447
200,0.9102878570556641,1.3759028911590576,82.6923076923077,64.28571428571429,88.46153846153847,85.71428571428571,0.0010000000000000007,0.5889244079589844
201,0.8846687972545624,1.0260615348815918,82.6923076923077,71.42857142857143,88.46153846153847,71.42857142857143,0.0009997532801828664,0.5887601375579834
202,1.063903033733368,0.9049886465072632,78.84615384615384,71.42857142857143,84.61538461538461,85.71428571428571,0.0009990133642141365,0.589148759841919
203,1.324063241481781,0.8513056635856628,75.0,85.71428571428571,90.38461538461539,85.71428571428571,0.0009977809823015407,0.5832376480102539
204,1.013439416885376,1.4468446969985962,75.0,78.57142857142857,94.23076923076923,85.71428571428571,0.0009960573506572396,0.5912492275238037
205,1.0407370328903198,1.2209413051605225,69.23076923076923,64.28571428571429,92.3076923076923,78.57142857142857,0.0009938441702975695,0.5886120796203613
206,1.0356958508491516,1.059540867805481,78.84615384615384,71.42857142857143,84.61538461538461,92.85714285714286,0.000991143625364345,0.590104341506958
207,1.0433094501495361,0.8483304977416992,80.76923076923077,85.71428571428571,86.53846153846153,85.71428571428571,0.0009879583809693743,0.5893459320068359
208,0.8000466525554657,0.9831269383430481,90.38461538461539,78.57142857142857,88.46153846153847,85.71428571428571,0.000984291580564316,0.5856626033782959
209,0.860649824142456,1.0349239110946655,84.61538461538461,64.28571428571429,94.23076923076923,92.85714285714286,0.000980146842838472,0.5949714183807373
210,0.8963690102100372,1.1400090456008911,80.76923076923077,64.28571428571429,92.3076923076923,78.57142857142857,0.0009755282581475773,0.5847327709197998
211,0.9789528548717499,1.290548324584961,80.76923076923077,64.28571428571429,86.53846153846153,85.71428571428571,0.0009704403844771134,0.589017391204834
212,0.9810822308063507,1.2647905349731445,80.76923076923077,64.28571428571429,86.53846153846153,85.71428571428571,0.0009648882429441263,0.5891437530517578
213,1.0983443856239319,1.158398151397705,76.92307692307692,71.42857142857143,86.53846153846153,100.0,0.000958877312841991,0.5867340564727783
214,0.9773544371128082,0.8298342227935791,78.84615384615384,85.71428571428571,86.53846153846153,85.71428571428571,0.0009524135262330103,0.5903878211975098
215,1.0126332938671112,0.98695969581604,75.0,85.71428571428571,88.46153846153847,92.85714285714286,0.0009455032620941846,0.6082627773284912
216,1.0386092960834503,1.040890097618103,76.92307692307692,85.71428571428571,86.53846153846153,71.42857142857143,0.0009381533400219324,0.5941319465637207
217,0.9664410948753357,0.9072186946868896,78.84615384615384,85.71428571428571,84.61538461538461,85.71428571428571,0.0009303710135019726,0.5855374336242676
218,1.1492800116539001,1.1781563758850098,71.15384615384616,78.57142857142857,84.61538461538461,78.57142857142857,0.0009221639627510083,0.5919559001922607
219,0.9710684418678284,1.1546903848648071,82.6923076923077,71.42857142857143,88.46153846153847,78.57142857142857,0.0009135402871372813,0.5888586044311523
220,0.9440251588821411,1.5460567474365234,84.61538461538461,57.142857142857146,90.38461538461539,78.57142857142857,0.0009045084971874742,0.5873346328735352
221,1.0521367490291595,1.029584288597107,80.76923076923077,78.57142857142857,88.46153846153847,85.71428571428571,0.0008950775061878455,0.5912964344024658
222,0.9945105910301208,1.1280192136764526,82.6923076923077,64.28571428571429,84.61538461538461,92.85714285714286,0.000885256621387895,0.5907001495361328
223,1.2731759548187256,1.2754828929901123,69.23076923076923,50.0,75.0,85.71428571428571,0.0008750555348152302,0.5909397602081299
224,1.2090941071510315,1.0011190176010132,69.23076923076923,64.28571428571429,88.46153846153847,92.85714285714286,0.0008644843137107062,0.5867691040039062
225,1.044883131980896,1.2975807189941406,76.92307692307692,71.42857142857143,90.38461538461539,71.42857142857143,0.0008535533905932743,0.5922784805297852
226,1.0365188717842102,1.144263744354248,73.07692307692308,64.28571428571429,88.46153846153847,92.85714285714286,0.0008422735529643449,0.5894818305969238
227,0.9584988355636597,1.1024153232574463,73.07692307692308,71.42857142857143,88.46153846153847,85.71428571428571,0.0008306559326618266,0.5862588882446289
228,1.0445938110351562,0.9852643013000488,73.07692307692308,71.42857142857143,84.61538461538461,71.42857142857143,0.0008187119948743455,0.5973854064941406
229,1.1726571321487427,0.906904935836792,67.3076923076923,85.71428571428571,86.53846153846153,78.57142857142857,0.0008064535268264891,0.5855753421783447
230,1.0720863342285156,0.9418931007385254,73.07692307692308,85.71428571428571,90.38461538461539,85.71428571428571,0.0007938926261462368,0.5905754566192627
231,1.1313189268112183,0.9258164167404175,73.07692307692308,85.71428571428571,92.3076923076923,78.57142857142857,0.0007810416889260656,0.5883204936981201
232,0.9761673808097839,0.9744694232940674,69.23076923076923,78.57142857142857,90.38461538461539,85.71428571428571,0.0007679133974894987,0.5941131114959717
233,1.1087937951087952,1.0654323101043701,75.0,78.57142857142857,86.53846153846153,85.71428571428571,0.0007545207078751862,0.5918285846710205
234,1.0965548753738403,1.1764609813690186,67.3076923076923,64.28571428571429,88.46153846153847,85.71428571428571,0.0007408768370508582,0.5895190238952637
235,0.9366820454597473,0.9907853007316589,78.84615384615384,85.71428571428571,88.46153846153847,78.57142857142857,0.000726995249869774,0.5878357887268066
236,0.9384804368019104,0.9014573097229004,84.61538461538461,85.71428571428571,88.46153846153847,71.42857142857143,0.0007128896457825371,0.5881974697113037
237,1.0054307579994202,0.6634379625320435,76.92307692307692,92.85714285714286,92.3076923076923,92.85714285714286,0.0006985739453173912,0.5888106822967529
238,0.9448133707046509,0.7882895469665527,78.84615384615384,78.57142857142857,92.3076923076923,78.57142857142857,0.00068406227634234,0.5869584083557129
239,0.908513069152832,0.6641784906387329,84.61538461538461,92.85714285714286,86.53846153846153,85.71428571428571,0.0006693689601226468,0.5880804061889648
240,1.0162896513938904,1.0670047998428345,80.76923076923077,71.42857142857143,88.46153846153847,78.57142857142857,0.0006545084971874749,0.5909323692321777
241,0.905536413192749,0.9676321744918823,84.61538461538461,71.42857142857143,86.53846153846153,100.0,0.000639495553019615,0.5844199657440186
242,1.0317720770835876,0.9932229518890381,75.0,71.42857142857143,86.53846153846153,78.57142857142857,0.0006243449435824279,0.5858480930328369
243,0.8777559399604797,1.1796875,82.6923076923077,71.42857142857143,88.46153846153847,85.71428571428571,0.0006090716206982718,0.5885128974914551
244,0.9687279462814331,1.004145860671997,84.61538461538461,71.42857142857143,88.46153846153847,78.57142857142857,0.000593690657292863,0.5842442512512207
245,0.9632826745510101,0.9972950220108032,86.53846153846153,78.57142857142857,84.61538461538461,85.71428571428571,0.0005782172325201161,0.5873970985412598
246,0.9605444073677063,0.7936419248580933,86.53846153846153,85.71428571428571,88.46153846153847,85.71428571428571,0.0005626666167821529,0.5902831554412842
247,0.9108768999576569,1.340986728668213,75.0,78.57142857142857,90.38461538461539,85.71428571428571,0.000547054156659258,0.5958895683288574
248,0.8697023987770081,1.115546464920044,86.53846153846153,71.42857142857143,86.53846153846153,78.57142857142857,0.0005313952597646575,0.5899844169616699
249,0.8068316578865051,1.1281547546386719,84.61538461538461,78.57142857142857,90.38461538461539,64.28571428571429,0.0005157053795390652,0.5949971675872803
250,1.018751084804535,0.9950002431869507,82.6923076923077,78.57142857142857,84.61538461538461,85.71428571428571,0.000500000000000001,0.5910546779632568
251,0.7309920489788055,0.835585355758667,90.38461538461539,92.85714285714286,88.46153846153847,85.71428571428571,0.000484294620460936,0.5923635959625244
252,0.8605071008205414,1.1063231229782104,82.6923076923077,78.57142857142857,86.53846153846153,85.71428571428571,0.0004686047402353436,0.5915360450744629
253,1.0878866910934448,1.4566829204559326,78.84615384615384,57.142857142857146,86.53846153846153,78.57142857142857,0.00045294584334074317,0.5877573490142822
254,0.9620956778526306,0.913947582244873,78.84615384615384,71.42857142857143,88.46153846153847,78.57142857142857,0.0004373333832178482,0.5993638038635254
255,0.8669736087322235,1.256098747253418,82.6923076923077,64.28571428571429,86.53846153846153,64.28571428571429,0.0004217827674798846,0.588454008102417
256,1.120309591293335,1.0843056440353394,80.76923076923077,71.42857142857143,88.46153846153847,92.85714285714286,0.0004063093427071378,0.5964107513427734
257,1.0043245553970337,1.170474648475647,76.92307692307692,71.42857142857143,90.38461538461539,92.85714285714286,0.0003909283793017289,0.5822336673736572
258,0.9307621121406555,1.279554843902588,76.92307692307692,71.42857142857143,88.46153846153847,78.57142857142857,0.0003756550564175728,0.5847938060760498
259,1.0394989848136902,1.163426399230957,78.84615384615384,78.57142857142857,88.46153846153847,71.42857142857143,0.00036050444698038564,0.5935797691345215
260,0.8099828958511353,0.7234795093536377,88.46153846153847,92.85714285714286,90.38461538461539,85.71428571428571,0.00034549150281252666,0.593008279800415
261,0.9017976522445679,0.7689592242240906,84.61538461538461,85.71428571428571,90.38461538461539,78.57142857142857,0.00033063103987735474,0.5883240699768066
262,0.7605785429477692,0.7826024293899536,86.53846153846153,92.85714285714286,90.38461538461539,92.85714285714286,0.00031593772365766154,0.5878944396972656
263,0.9366010129451752,1.0453935861587524,84.61538461538461,78.57142857142857,80.76923076923077,71.42857142857143,0.00030142605468260944,0.5872488021850586
264,0.7592989206314087,1.3467090129852295,84.61538461538461,71.42857142857143,90.38461538461539,71.42857142857143,0.0002871103542174635,0.5910787582397461
265,0.981662929058075,1.2541217803955078,76.92307692307692,78.57142857142857,88.46153846153847,78.57142857142857,0.0002730047501302265,0.5854241847991943
266,0.8718117475509644,0.9563478827476501,84.61538461538461,85.71428571428571,90.38461538461539,100.0,0.00025912316294914234,0.5961577892303467
267,0.8683365285396576,0.730475902557373,82.6923076923077,78.57142857142857,84.61538461538461,78.57142857142857,0.00024547929212481446,0.586493968963623
268,1.0149875283241272,0.5767309069633484,76.92307692307692,92.85714285714286,84.61538461538461,92.85714285714286,0.00023208660251050186,0.5950238704681396
269,0.8638338446617126,0.6799091696739197,84.61538461538461,92.85714285714286,96.15384615384616,85.71428571428571,0.00021895831107393495,0.5847241878509521
270,0.839432567358017,1.51725172996521,86.53846153846153,71.42857142857143,86.53846153846153,85.71428571428571,0.00020610737385376373,0.5948727130889893
271,0.8461647033691406,1.1654455661773682,88.46153846153847,78.57142857142857,90.38461538461539,85.71428571428571,0.00019354647317351215,0.5915277004241943
272,0.8762885332107544,1.103219985961914,82.6923076923077,85.71428571428571,84.61538461538461,85.71428571428571,0.0001812880051256549,0.5869145393371582
273,0.8088724613189697,1.1097466945648193,82.6923076923077,64.28571428571429,90.38461538461539,85.71428571428571,0.00016934406733817387,0.5962707996368408
274,0.9109163582324982,0.9333337545394897,90.38461538461539,78.57142857142857,90.38461538461539,78.57142857142857,0.00015772644703565558,0.6094133853912354
275,1.1044938564300537,1.0488636493682861,71.15384615384616,85.71428571428571,82.6923076923077,64.28571428571429,0.0001464466094067262,0.5967578887939453
276,0.9881057143211365,1.2804064750671387,82.6923076923077,78.57142857142857,86.53846153846153,85.71428571428571,0.00013551568628929425,0.5958700180053711
277,0.8855450749397278,1.0286997556686401,80.76923076923077,78.57142857142857,90.38461538461539,78.57142857142857,0.00012494446518477028,0.5900111198425293
278,0.746834933757782,1.2242963314056396,88.46153846153847,64.28571428571429,88.46153846153847,92.85714285714286,0.00011474337861210549,0.586815357208252
279,0.9672200679779053,0.7936573624610901,80.76923076923077,92.85714285714286,86.53846153846153,85.71428571428571,0.00010492249381215495,0.587517499923706
280,0.6678406596183777,0.9730219841003418,90.38461538461539,78.57142857142857,88.46153846153847,78.57142857142857,9.549150281252649e-05,0.593407154083252
281,0.7317123115062714,1.1896506547927856,90.38461538461539,64.28571428571429,90.38461538461539,85.71428571428571,8.645971286271934e-05,0.5840625762939453
282,0.9595022201538086,0.8364599943161011,78.84615384615384,85.71428571428571,90.38461538461539,78.57142857142857,7.783603724899271e-05,0.588604211807251
283,0.812014639377594,1.1244680881500244,84.61538461538461,85.71428571428571,86.53846153846153,64.28571428571429,6.962898649802803e-05,0.5966739654541016
284,0.8999933004379272,0.8869442939758301,86.53846153846153,85.71428571428571,90.38461538461539,78.57142857142857,6.18466599780681e-05,0.5964841842651367
285,0.7768365740776062,0.9709112644195557,84.61538461538461,78.57142857142857,92.3076923076923,85.71428571428571,5.4496737905815994e-05,0.5906274318695068
286,0.8344002366065979,0.9115855693817139,84.61538461538461,78.57142857142857,92.3076923076923,92.85714285714286,4.7586473766990206e-05,0.5898199081420898
287,0.8124435544013977,1.3884155750274658,86.53846153846153,71.42857142857143,84.61538461538461,71.42857142857143,4.112268715800942e-05,0.5961532592773438
288,0.9566839635372162,1.076357364654541,82.6923076923077,71.42857142857143,86.53846153846153,71.42857142857143,3.5111757055874305e-05,0.5896341800689697
289,0.8820158243179321,0.7261275053024292,84.61538461538461,92.85714285714286,90.38461538461539,85.71428571428571,2.9559615522887304e-05,0.5892090797424316
290,0.7647237777709961,1.0355398654937744,88.46153846153847,64.28571428571429,86.53846153846153,78.57142857142857,2.4471741852423316e-05,0.5980751514434814
291,0.6511058807373047,1.359796166419983,90.38461538461539,57.142857142857146,92.3076923076923,71.42857142857143,1.9853157161528543e-05,0.5928146839141846
292,0.7916936278343201,0.576656699180603,84.61538461538461,100.0,88.46153846153847,92.85714285714286,1.5708419435684534e-05,0.5886471271514893
293,0.8299896121025085,0.9227118492126465,90.38461538461539,71.42857142857143,86.53846153846153,78.57142857142857,1.2041619030626406e-05,0.5926618576049805
294,0.8457051813602448,0.7014561891555786,82.6923076923077,92.85714285714286,88.46153846153847,78.57142857142857,8.856374635655593e-06,0.5943496227264404
295,0.9518305957317352,0.9622690081596375,84.61538461538461,78.57142857142857,88.46153846153847,85.71428571428571,6.155829702431122e-06,0.5982482433319092
296,0.7869479954242706,1.1618273258209229,88.46153846153847,64.28571428571429,90.38461538461539,85.71428571428571,3.9426493427610665e-06,0.5876283645629883
297,0.8507713377475739,1.2683148384094238,82.6923076923077,71.42857142857143,94.23076923076923,71.42857142857143,2.2190176984600044e-06,0.593980073928833
298,0.8212267160415649,0.9083784818649292,78.84615384615384,85.71428571428571,94.23076923076923,71.42857142857143,9.866357858642217e-07,0.5885491371154785
299,0.921674370765686,1.1372801065444946,80.76923076923077,78.57142857142857,90.38461538461539,78.57142857142857,2.4671981713420025e-07,0.588531494140625
300,0.7738398909568787,0.7345173358917236,78.84615384615384,92.85714285714286,92.3076923076923,71.42857142857143,0.0,0.5941629409790039
301,0.8519005477428436,0.8524433374404907,80.76923076923077,78.57142857142857,94.23076923076923,85.71428571428571,2.467198171342e-07,0.5875699520111084
302,0.8476721048355103,1.2363375425338745,82.6923076923077,71.42857142857143,88.46153846153847,78.57142857142857,9.866357858642204e-07,0.5895676612854004
303,0.9739479422569275,1.237905502319336,78.84615384615384,71.42857142857143,88.46153846153847,78.57142857142857,2.2190176984599464e-06,0.5913259983062744
304,0.8599684834480286,0.721317708492279,82.6923076923077,92.85714285714286,86.53846153846153,78.57142857142857,3.942649342761006e-06,0.5962619781494141
305,0.8106075525283813,0.8740527629852295,84.61538461538461,78.57142857142857,90.38461538461539,71.42857142857143,6.155829702431169e-06,0.5882418155670166
306,0.9890168309211731,0.8267242312431335,82.6923076923077,71.42857142857143,88.46153846153847,78.57142857142857,8.856374635655693e-06,0.597562313079834
307,0.963002622127533,1.0023454427719116,75.0,85.71428571428571,86.53846153846153,85.71428571428571,1.2041619030626337e-05,0.5921516418457031
308,0.7534605860710144,0.9412278532981873,88.46153846153847,85.71428571428571,96.15384615384616,78.57142857142857,1.570841943568446e-05,0.5851485729217529
309,0.7965020537376404,0.9446631669998169,82.6923076923077,85.71428571428571,84.61538461538461,85.71428571428571,1.9853157161528408e-05,0.5888533592224121
310,0.8668976128101349,0.6860443353652954,80.76923076923077,92.85714285714286,86.53846153846153,85.71428571428571,2.4471741852423174e-05,0.5861225128173828
311,0.8498288989067078,0.9884650707244873,78.84615384615384,78.57142857142857,92.3076923076923,85.71428571428571,2.9559615522887152e-05,0.5964884757995605
312,0.861016184091568,0.6878875494003296,80.76923076923077,85.71428571428571,90.38461538461539,85.71428571428571,3.511175705587414e-05,0.59010910987854
313,0.855234831571579,1.2594797611236572,82.6923076923077,64.28571428571429,90.38461538461539,92.85714285714286,4.112268715800924e-05,0.592909574508667
314,0.823716014623642,1.1607531309127808,84.61538461538461,71.42857142857143,90.38461538461539,85.71428571428571,4.758647376698997e-05,0.590484619140625
315,0.8902420401573181,0.8213297128677368,75.0,85.71428571428571,90.38461538461539,85.71428571428571,5.449673790581614e-05,0.5903379917144775
316,0.8560611605644226,1.3081053495407104,82.6923076923077,71.42857142857143,90.38461538461539,78.57142857142857,6.184665997806823e-05,0.5934765338897705
317,0.9505362510681152,0.7727681398391724,80.76923076923077,92.85714285714286,90.38461538461539,85.71428571428571,6.96289864980282e-05,0.5917050838470459
318,0.7928525507450104,0.847722053527832,88.46153846153847,92.85714285714286,90.38461538461539,78.57142857142857,7.783603724899242e-05,0.6205863952636719
319,0.7340241372585297,1.1052321195602417,88.46153846153847,78.57142857142857,86.53846153846153,85.71428571428571,8.645971286271898e-05,0.593191385269165
320,0.9262692928314209,0.8755373954772949,80.76923076923077,85.71428571428571,88.46153846153847,71.42857142857143,9.54915028125261e-05,0.5895836353302002
321,0.8177788853645325,0.8647652864456177,82.6923076923077,71.42857142857143,88.46153846153847,92.85714285714286,0.00010492249381215455,0.5913171768188477
322,0.8367503881454468,0.8570398688316345,80.76923076923077,78.57142857142857,94.23076923076923,85.71428571428571,0.00011474337861210506,0.5931382179260254
323,0.7876903116703033,1.07076895236969,82.6923076923077,78.57142857142857,88.46153846153847,78.57142857142857,0.00012494446518476982,0.5937559604644775
324,0.8681408762931824,1.3379548788070679,84.61538461538461,71.42857142857143,88.46153846153847,78.57142857142857,0.0001355156862892937,0.5900955200195312
325,0.7766876220703125,0.7852134108543396,86.53846153846153,85.71428571428571,90.38461538461539,71.42857142857143,0.00014644660940672563,0.5912728309631348
326,0.9153933823108673,1.316741943359375,82.6923076923077,64.28571428571429,90.38461538461539,85.71428571428571,0.000157726447035655,0.592829704284668
327,0.8782353699207306,1.2527061700820923,86.53846153846153,71.42857142857143,82.6923076923077,100.0,0.00016934406733817395,0.5900604724884033
328,0.7777824103832245,0.8715499639511108,84.61538461538461,78.57142857142857,86.53846153846153,92.85714285714286,0.0001812880051256543,0.5978453159332275
329,0.8714866638183594,1.1234687566757202,82.6923076923077,64.28571428571429,92.3076923076923,92.85714285714286,0.00019354647317351147,0.5907258987426758
330,0.7694219648838043,0.7929384112358093,82.6923076923077,92.85714285714286,88.46153846153847,78.57142857142857,0.00020610737385376234,0.6044888496398926
331,0.8727468848228455,0.7351952195167542,76.92307692307692,92.85714285714286,88.46153846153847,92.85714285714286,0.00021895831107393427,0.586695671081543
332,0.805077075958252,0.8519904613494873,80.76923076923077,92.85714285714286,90.38461538461539,64.28571428571429,0.00023208660251050189,0.5974392890930176
333,0.7616711854934692,1.2616305351257324,92.3076923076923,64.28571428571429,90.38461538461539,92.85714285714286,0.0002454792921248137,0.5876731872558594
334,0.6550650596618652,1.4911998510360718,94.23076923076923,64.28571428571429,84.61538461538461,78.57142857142857,0.00025912316294914234,0.5923628807067871
335,0.8124420642852783,0.9246354103088379,84.61538461538461,78.57142857142857,94.23076923076923,78.57142857142857,0.0002730047501302257,0.5905055999755859
336,0.7914368212223053,0.6249734163284302,88.46153846153847,92.85714285714286,88.46153846153847,85.71428571428571,0.00028711035421746345,0.5922460556030273
337,0.7886042594909668,0.8595083951950073,84.61538461538461,78.57142857142857,88.46153846153847,78.57142857142857,0.0003014260546826086,0.5937864780426025
338,0.802801251411438,0.7629039287567139,90.38461538461539,85.71428571428571,88.46153846153847,78.57142857142857,0.00031593772365766056,0.590012788772583
339,0.8097341656684875,1.0847069025039673,86.53846153846153,71.42857142857143,86.53846153846153,85.71428571428571,0.0003306310398773529,0.5931293964385986
340,0.820588082075119,1.3047583103179932,84.61538461538461,71.42857142857143,90.38461538461539,64.28571428571429,0.0003454915028125255,0.5858755111694336
341,0.772470235824585,1.0298429727554321,86.53846153846153,78.57142857142857,84.61538461538461,85.71428571428571,0.0003605044469803837,0.5913362503051758
342,0.7653313875198364,0.5138121843338013,84.61538461538461,100.0,94.23076923076923,92.85714285714286,0.00037565505641757175,0.5987231731414795
343,0.9714456796646118,0.8098217248916626,80.76923076923077,92.85714285714286,90.38461538461539,85.71428571428571,0.0003909283793017286,0.591883659362793
344,0.9253800511360168,1.0170336961746216,84.61538461538461,78.57142857142857,90.38461538461539,71.42857142857143,0.00040630934270713664,0.589414119720459
345,0.8626020550727844,1.0788397789001465,86.53846153846153,57.142857142857146,88.46153846153847,85.71428571428571,0.00042178276747988427,0.5935990810394287
346,0.977806031703949,1.0607459545135498,80.76923076923077,78.57142857142857,88.46153846153847,78.57142857142857,0.0004373333832178466,0.594221830368042
347,0.9444202184677124,1.1844607591629028,76.92307692307692,71.42857142857143,84.61538461538461,71.42857142857143,0.00045294584334074235,0.5971062183380127
348,0.8867865204811096,0.7334060668945312,80.76923076923077,92.85714285714286,96.15384615384616,85.71428571428571,0.0004686047402353418,0.5924415588378906
349,0.8622596263885498,0.7808430194854736,82.6923076923077,92.85714285714286,88.46153846153847,78.57142857142857,0.00048429462046093515,0.5982680320739746
350,0.8888047933578491,1.0624229907989502,90.38461538461539,78.57142857142857,96.15384615384616,85.71428571428571,0.0004999999999999983,0.5970242023468018
351,1.046122431755066,1.1194407939910889,80.76923076923077,78.57142857142857,86.53846153846153,78.57142857142857,0.0005157053795390631,0.59596848487854
352,0.9538596272468567,1.0136668682098389,78.84615384615384,78.57142857142857,86.53846153846153,71.42857142857143,0.0005313952597646556,0.5920677185058594
353,1.023802638053894,1.280992031097412,75.0,64.28571428571429,88.46153846153847,78.57142857142857,0.0005470541566592559,0.587864875793457
354,0.7598273158073425,1.0582808256149292,88.46153846153847,57.142857142857146,92.3076923076923,85.71428571428571,0.0005626666167821516,0.5944502353668213
355,0.7300950288772583,1.0447219610214233,88.46153846153847,85.71428571428571,82.6923076923077,78.57142857142857,0.000578217232520114,0.5903058052062988
356,0.9964686036109924,0.8872948884963989,75.0,71.42857142857143,90.38461538461539,78.57142857142857,0.0005936906572928615,0.5925865173339844
357,0.9193982183933258,0.9947589635848999,75.0,78.57142857142857,92.3076923076923,85.71428571428571,0.0006090716206982696,0.5908181667327881
358,0.7796912789344788,0.9521650075912476,84.61538461538461,92.85714285714286,88.46153846153847,71.42857142857143,0.0006243449435824264,0.5949347019195557
359,0.773513525724411,0.698868989944458,84.61538461538461,85.71428571428571,86.53846153846153,100.0,0.0006394955530196126,0.5947225093841553
360,0.93796107172966,0.6706004738807678,78.84615384615384,92.85714285714286,84.61538461538461,92.85714285714286,0.0006545084971874727,0.5952825546264648
361,0.848904550075531,1.5974950790405273,86.53846153846153,71.42857142857143,90.38461538461539,71.42857142857143,0.0006693689601226445,0.5936589241027832
362,0.9105201661586761,1.261974573135376,80.76923076923077,71.42857142857143,90.38461538461539,71.42857142857143,0.0006840622763423378,0.5983138084411621
363,0.9365277588367462,1.141533374786377,75.0,78.57142857142857,94.23076923076923,71.42857142857143,0.0006985739453173898,0.5907206535339355
364,0.9487365484237671,1.0727710723876953,78.84615384615384,71.42857142857143,86.53846153846153,85.71428571428571,0.0007128896457825348,0.596097469329834
365,0.8934611976146698,0.7211903929710388,86.53846153846153,85.71428571428571,88.46153846153847,85.71428571428571,0.0007269952498697726,0.589292049407959
366,1.013974130153656,1.3960089683532715,82.6923076923077,71.42857142857143,88.46153846153847,78.57142857142857,0.0007408768370508559,0.5962367057800293
367,0.8942291438579559,0.8483835458755493,82.6923076923077,85.71428571428571,84.61538461538461,85.71428571428571,0.0007545207078751845,0.5963144302368164
368,1.0360107123851776,1.2004612684249878,78.84615384615384,64.28571428571429,90.38461538461539,92.85714285714286,0.0007679133974894963,0.6014938354492188
369,0.9978771209716797,0.8753528594970703,76.92307692307692,85.71428571428571,82.6923076923077,78.57142857142857,0.0007810416889260641,0.5938923358917236
370,1.0815226435661316,1.335242748260498,75.0,57.142857142857146,88.46153846153847,78.57142857142857,0.0007938926261462354,0.5870401859283447
371,0.8529804944992065,1.0362913608551025,82.6923076923077,78.57142857142857,86.53846153846153,78.57142857142857,0.0008064535268264869,0.595599889755249
372,0.764260470867157,0.9672445058822632,84.61538461538461,71.42857142857143,86.53846153846153,85.71428571428571,0.0008187119948743434,0.5915853977203369
373,1.0040888786315918,0.9845883846282959,76.92307692307692,78.57142857142857,86.53846153846153,78.57142857142857,0.0008306559326618243,0.6117265224456787
374,0.8954614400863647,1.092545509338379,80.76923076923077,78.57142857142857,92.3076923076923,71.42857142857143,0.0008422735529643434,0.5899279117584229
375,1.0901401042938232,1.3812949657440186,67.3076923076923,71.42857142857143,88.46153846153847,92.85714285714286,0.0008535533905932721,0.5901377201080322
376,0.9694259166717529,1.3633809089660645,76.92307692307692,71.42857142857143,92.3076923076923,85.71428571428571,0.0008644843137107048,0.5922849178314209
377,0.9771462380886078,0.9568818807601929,78.84615384615384,71.42857142857143,88.46153846153847,85.71428571428571,0.0008750555348152279,0.5827088356018066
378,0.8623034358024597,1.0765485763549805,80.76923076923077,71.42857142857143,88.46153846153847,85.71428571428571,0.0008852566213878934,0.5917596817016602
379,0.9556267857551575,0.8919973373413086,75.0,85.71428571428571,92.3076923076923,92.85714285714286,0.0008950775061878439,0.5919020175933838
380,0.8724610209465027,0.9558178186416626,82.6923076923077,71.42857142857143,92.3076923076923,92.85714285714286,0.0009045084971874722,0.5909488201141357
381,1.010289490222931,1.2899127006530762,82.6923076923077,71.42857142857143,84.61538461538461,71.42857142857143,0.0009135402871372796,0.5903854370117188
382,0.9102200865745544,0.827335000038147,84.61538461538461,78.57142857142857,90.38461538461539,92.85714285714286,0.0009221639627510062,0.5858786106109619
383,0.8215376436710358,1.1760581731796265,86.53846153846153,71.42857142857143,88.46153846153847,85.71428571428571,0.0009303710135019704,0.5933933258056641
384,1.0370968580245972,0.8810187578201294,76.92307692307692,78.57142857142857,80.76923076923077,92.85714285714286,0.0009381533400219304,0.5883362293243408
385,0.910655289888382,1.4099466800689697,82.6923076923077,71.42857142857143,88.46153846153847,92.85714285714286,0.0009455032620941829,0.595855712890625
386,0.9643428027629852,0.7242295742034912,78.84615384615384,85.71428571428571,82.6923076923077,85.71428571428571,0.0009524135262330084,0.5905814170837402
387,0.871530681848526,0.9124172329902649,78.84615384615384,78.57142857142857,90.38461538461539,85.71428571428571,0.0009588773128419893,0.593764066696167
388,0.861769288778305,0.985101580619812,86.53846153846153,78.57142857142857,92.3076923076923,85.71428571428571,0.0009648882429441245,0.5950160026550293
389,0.7339957654476166,1.4044463634490967,82.6923076923077,71.42857142857143,96.15384615384616,78.57142857142857,0.0009704403844771113,0.5873329639434814
390,0.9790328741073608,0.5756179094314575,78.84615384615384,100.0,88.46153846153847,78.57142857142857,0.0009755282581475754,0.5946128368377686
391,0.8249628841876984,1.1322451829910278,90.38461538461539,85.71428571428571,88.46153846153847,71.42857142857143,0.0009801468428384701,0.5918543338775635
392,0.7423629760742188,1.082320213317871,84.61538461538461,78.57142857142857,90.38461538461539,64.28571428571429,0.0009842915805643143,0.5927977561950684
393,0.9184767603874207,1.1715091466903687,78.84615384615384,85.71428571428571,94.23076923076923,85.71428571428571,0.0009879583809693723,0.5906774997711182
394,0.981172502040863,1.189429521560669,82.6923076923077,78.57142857142857,84.61538461538461,85.71428571428571,0.0009911436253643429,0.5906627178192139
395,0.9824835658073425,0.9256699681282043,78.84615384615384,71.42857142857143,88.46153846153847,85.71428571428571,0.0009938441702975675,0.5879528522491455
396,0.8258515000343323,0.9738411903381348,88.46153846153847,78.57142857142857,86.53846153846153,85.71428571428571,0.0009960573506572377,0.590435266494751
397,0.9647005796432495,0.8301500678062439,76.92307692307692,85.71428571428571,80.76923076923077,78.57142857142857,0.0009977809823015387,0.5878994464874268
398,0.9325838685035706,0.8867820501327515,71.15384615384616,85.71428571428571,90.38461538461539,71.42857142857143,0.0009990133642141345,0.587989091873169
399,0.9351136088371277,0.905805230140686,82.6923076923077,85.71428571428571,86.53846153846153,78.57142857142857,0.0009997532801828645,0.5966589450836182
400,0.801148921251297,0.8920247554779053,86.53846153846153,85.71428571428571,94.23076923076923,78.57142857142857,0.0009999999999999987,0.5862386226654053
401,0.8618368208408356,0.7751032114028931,82.6923076923077,92.85714285714286,88.46153846153847,71.42857142857143,0.0009997532801828645,0.588176965713501
402,1.1220107674598694,0.8837193250656128,75.0,92.85714285714286,92.3076923076923,78.57142857142857,0.0009990133642141345,0.5926473140716553
403,1.100059300661087,1.2244764566421509,76.92307692307692,57.142857142857146,88.46153846153847,78.57142857142857,0.0009977809823015387,0.5942842960357666
404,1.036983996629715,1.238829493522644,73.07692307692308,85.71428571428571,80.76923076923077,71.42857142857143,0.0009960573506572377,0.6022305488586426
405,0.8121900856494904,1.1381025314331055,86.53846153846153,78.57142857142857,84.61538461538461,85.71428571428571,0.0009938441702975677,0.5988576412200928
406,0.9243326485157013,1.0808252096176147,82.6923076923077,78.57142857142857,88.46153846153847,71.42857142857143,0.000991143625364343,0.5932419300079346
407,0.8383958339691162,0.7386595010757446,86.53846153846153,85.71428571428571,86.53846153846153,92.85714285714286,0.0009879583809693725,0.5956740379333496
408,1.0206097662448883,0.86463463306427,82.6923076923077,78.57142857142857,90.38461538461539,85.71428571428571,0.0009842915805643143,0.591486930847168
409,0.9064563810825348,0.7860218286514282,80.76923076923077,85.71428571428571,90.38461538461539,71.42857142857143,0.0009801468428384703,0.592005729675293
410,0.9757398366928101,0.7589781880378723,80.76923076923077,92.85714285714286,86.53846153846153,78.57142857142857,0.0009755282581475755,0.5903351306915283
411,1.0057753324508667,0.9893231987953186,78.84615384615384,78.57142857142857,82.6923076923077,78.57142857142857,0.0009704403844771115,0.5889482498168945
412,0.8966476321220398,1.0146732330322266,88.46153846153847,78.57142857142857,84.61538461538461,78.57142857142857,0.0009648882429441247,0.5950009822845459
413,1.120628833770752,0.9863572120666504,76.92307692307692,71.42857142857143,84.61538461538461,85.71428571428571,0.0009588773128419895,0.5900766849517822
414,1.1769734025001526,1.1211187839508057,75.0,78.57142857142857,86.53846153846153,85.71428571428571,0.0009524135262330088,0.5901672840118408
415,0.9388803541660309,0.8996833562850952,75.0,78.57142857142857,92.3076923076923,85.71428571428571,0.0009455032620941826,0.5944032669067383
416,0.7798017859458923,1.0035960674285889,84.61538461538461,64.28571428571429,92.3076923076923,92.85714285714286,0.0009381533400219305,0.5953993797302246
417,1.1020426154136658,0.9754736423492432,75.0,92.85714285714286,84.61538461538461,85.71428571428571,0.0009303710135019706,0.5939230918884277
418,0.8035833239555359,0.9916412830352783,88.46153846153847,92.85714285714286,88.46153846153847,71.42857142857143,0.0009221639627510065,0.5890071392059326
419,0.9408866763114929,0.8780337572097778,88.46153846153847,92.85714285714286,92.3076923076923,64.28571428571429,0.0009135402871372799,0.6190736293792725
420,0.9205680191516876,0.7823376059532166,78.84615384615384,92.85714285714286,88.46153846153847,85.71428571428571,0.0009045084971874728,0.5879418849945068
421,0.8417395949363708,0.9864965677261353,84.61538461538461,92.85714285714286,90.38461538461539,78.57142857142857,0.0008950775061878442,0.5868749618530273
422,0.8409925699234009,1.0378437042236328,78.84615384615384,71.42857142857143,94.23076923076923,92.85714285714286,0.0008852566213878938,0.5939111709594727
423,0.9258856773376465,1.0339668989181519,78.84615384615384,78.57142857142857,86.53846153846153,92.85714285714286,0.000875055534815229,0.5934524536132812
424,0.7700329720973969,1.1299744844436646,86.53846153846153,57.142857142857146,94.23076923076923,78.57142857142857,0.0008644843137107044,0.6044192314147949
425,0.9932079017162323,0.8577389121055603,75.0,92.85714285714286,98.07692307692308,71.42857142857143,0.0008535533905932732,0.5866479873657227
426,0.8955531120300293,0.9138351678848267,84.61538461538461,92.85714285714286,84.61538461538461,71.42857142857143,0.0008422735529643432,0.5959999561309814
427,0.945608526468277,0.6434966325759888,76.92307692307692,92.85714285714286,88.46153846153847,85.71428571428571,0.0008306559326618249,0.5943496227264404
428,1.061996579170227,0.9944491386413574,69.23076923076923,71.42857142857143,86.53846153846153,78.57142857142857,0.0008187119948743438,0.6012015342712402
429,0.9014434218406677,0.6737222075462341,78.84615384615384,100.0,80.76923076923077,78.57142857142857,0.0008064535268264873,0.5935287475585938
430,0.9950427114963531,0.9547595381736755,82.6923076923077,85.71428571428571,80.76923076923077,78.57142857142857,0.0007938926261462357,0.5905246734619141
431,0.835149496793747,0.836830735206604,82.6923076923077,85.71428571428571,86.53846153846153,85.71428571428571,0.0007810416889260646,0.5942635536193848
432,0.8400684595108032,0.9491689205169678,84.61538461538461,78.57142857142857,90.38461538461539,85.71428571428571,0.0007679133974894978,0.5895509719848633
433,0.800281822681427,1.144526481628418,84.61538461538461,78.57142857142857,100.0,92.85714285714286,0.0007545207078751844,0.5970132350921631
434,0.9323626160621643,0.9251952171325684,76.92307692307692,71.42857142857143,84.61538461538461,78.57142857142857,0.0007408768370508572,0.5988795757293701
435,0.8012368381023407,1.4400802850723267,76.92307692307692,57.142857142857146,92.3076923076923,78.57142857142857,0.0007269952498697724,0.5908842086791992
436,1.0275550484657288,0.8211746215820312,73.07692307692308,85.71428571428571,88.46153846153847,85.71428571428571,0.0007128896457825362,0.5936985015869141
437,1.0239385068416595,1.4920600652694702,69.23076923076923,71.42857142857143,92.3076923076923,85.71428571428571,0.0006985739453173894,0.5884895324707031
438,0.773656040430069,0.8165102005004883,86.53846153846153,92.85714285714286,94.23076923076923,78.57142857142857,0.0006840622763423383,0.5980880260467529
439,0.8419016599655151,0.7721266746520996,86.53846153846153,92.85714285714286,88.46153846153847,78.57142857142857,0.000669368960122645,0.5963485240936279
440,0.823668897151947,0.8794130086898804,82.6923076923077,85.71428571428571,88.46153846153847,78.57142857142857,0.0006545084971874732,0.5990922451019287
441,0.871462345123291,0.9680414795875549,82.6923076923077,71.42857142857143,88.46153846153847,78.57142857142857,0.0006394955530196142,0.5923745632171631
442,0.8455446362495422,0.5746464729309082,84.61538461538461,100.0,84.61538461538461,92.85714285714286,0.0006243449435824263,0.5929794311523438
443,0.9558826684951782,0.7843657732009888,76.92307692307692,78.57142857142857,90.38461538461539,78.57142857142857,0.0006090716206982711,0.5947749614715576
444,0.8680291771888733,0.9543296098709106,86.53846153846153,85.71428571428571,90.38461538461539,85.71428571428571,0.0005936906572928613,0.5878534317016602
445,0.8328138887882233,0.8338749408721924,84.61538461538461,78.57142857142857,82.6923076923077,78.57142857142857,0.0005782172325201155,0.594010591506958
446,0.7694302797317505,0.8262729644775391,88.46153846153847,92.85714285714286,94.23076923076923,92.85714285714286,0.0005626666167821514,0.5963723659515381
447,0.7235956490039825,0.8660974502563477,90.38461538461539,92.85714285714286,86.53846153846153,78.57142857142857,0.0005470541566592574,0.5896263122558594
448,0.6977865695953369,0.6078306436538696,88.46153846153847,92.85714285714286,96.15384615384616,92.85714285714286,0.0005313952597646561,0.5932037830352783
449,0.688082218170166,0.6783650517463684,88.46153846153847,92.85714285714286,86.53846153846153,85.71428571428571,0.0005157053795390638,0.5865545272827148
450,0.795392632484436,0.8257900476455688,78.84615384615384,92.85714285714286,84.61538461538461,64.28571428571429,0.0004999999999999997,0.5916299819946289
451,0.8587092757225037,0.962683379650116,82.6923076923077,85.71428571428571,90.38461538461539,71.42857142857143,0.0004842946204609348,0.5881478786468506
452,0.9942875504493713,0.7798202037811279,78.84615384615384,78.57142857142857,90.38461538461539,85.71428571428571,0.0004686047402353432,0.5881085395812988
453,0.8131183385848999,0.8129349946975708,84.61538461538461,85.71428571428571,88.46153846153847,85.71428571428571,0.000452945843340742,0.5958247184753418
454,0.736951470375061,0.8139748573303223,86.53846153846153,85.71428571428571,92.3076923076923,78.57142857142857,0.000437333383217848,0.5938951969146729
455,0.7304680347442627,0.8429460525512695,86.53846153846153,92.85714285714286,88.46153846153847,78.57142857142857,0.0004217827674798839,0.5958797931671143
456,0.990534245967865,0.8476207852363586,82.6923076923077,92.85714285714286,90.38461538461539,85.71428571428571,0.000406309342707138,0.5953662395477295
457,0.8283030390739441,0.7034995555877686,86.53846153846153,85.71428571428571,84.61538461538461,92.85714285714286,0.0003909283793017283,0.5941264629364014
458,0.965035080909729,1.5490763187408447,73.07692307692308,71.42857142857143,90.38461538461539,78.57142857142857,0.00037565505641757316,0.5933189392089844
459,0.7273500561714172,0.8080062866210938,90.38461538461539,78.57142857142857,94.23076923076923,85.71428571428571,0.0003605044469803851,0.5958492755889893
460,1.003665804862976,0.7278355360031128,76.92307692307692,85.71428571428571,88.46153846153847,85.71428571428571,0.0003454915028125253,0.593029260635376
461,0.8144114315509796,0.8280431032180786,84.61538461538461,85.71428571428571,86.53846153846153,78.57142857142857,0.00033063103987735425,0.5986835956573486
462,0.7363376617431641,0.8056483268737793,88.46153846153847,78.57142857142857,90.38461538461539,78.57142857142857,0.00031593772365766024,0.5945937633514404
463,0.7195909321308136,1.0385406017303467,88.46153846153847,85.71428571428571,88.46153846153847,85.71428571428571,0.0003014260546826098,0.5902154445648193
464,0.8339277803897858,1.0062522888183594,86.53846153846153,85.71428571428571,92.3076923076923,85.71428571428571,0.0002871103542174631,0.5937864780426025
465,0.8121687769889832,1.093016505241394,82.6923076923077,78.57142857142857,94.23076923076923,85.71428571428571,0.00027300475013022695,0.5956716537475586
466,0.7827524840831757,0.9464454650878906,84.61538461538461,85.71428571428571,90.38461538461539,71.42857142857143,0.00025912316294914196,0.5931098461151123
467,0.751741349697113,1.3361355066299438,78.84615384615384,78.57142857142857,94.23076923076923,64.28571428571429,0.0002454792921248148,0.593193531036377
468,0.7693155705928802,0.6663262248039246,88.46153846153847,85.71428571428571,90.38461538461539,85.71428571428571,0.00023208660251050148,0.5916519165039062
469,0.7886756956577301,0.8532969951629639,84.61538461538461,85.71428571428571,94.23076923076923,71.42857142857143,0.0002189583110739353,0.5940463542938232
470,0.8747337460517883,0.8108885288238525,84.61538461538461,85.71428571428571,90.38461538461539,85.71428571428571,0.00020610737385376337,0.5971887111663818
471,0.8511599898338318,1.1842312812805176,78.84615384615384,78.57142857142857,92.3076923076923,71.42857142857143,0.00019354647317351112,0.5935964584350586
472,0.601588785648346,0.9782940149307251,94.23076923076923,85.71428571428571,96.15384615384616,85.71428571428571,0.0001812880051256553,0.5951895713806152
473,0.7715073227882385,0.6167479753494263,82.6923076923077,85.71428571428571,88.46153846153847,85.71428571428571,0.0001693440673381736,0.5893862247467041
474,0.8970918655395508,0.7658869028091431,86.53846153846153,85.71428571428571,92.3076923076923,85.71428571428571,0.00015772644703565593,0.5938100814819336
475,0.7574618756771088,1.2262165546417236,88.46153846153847,78.57142857142857,92.3076923076923,71.42857142857143,0.00014644660940672598,0.5882718563079834
476,0.8263159692287445,0.6900940537452698,80.76923076923077,92.85714285714286,92.3076923076923,85.71428571428571,0.00013551568628929463,0.5920498371124268
477,0.7776475548744202,0.8197618722915649,82.6923076923077,92.85714285714286,96.15384615384616,85.71428571428571,0.00012494446518477011,0.5982999801635742
478,0.7289070785045624,0.7430902719497681,88.46153846153847,100.0,92.3076923076923,71.42857142857143,0.00011474337861210591,0.5868604183197021
479,0.9943931102752686,1.4257359504699707,78.84615384615384,71.42857142857143,92.3076923076923,78.57142857142857,0.00010492249381215485,0.618889331817627
480,0.6776140928268433,0.8540624380111694,88.46153846153847,85.71428571428571,92.3076923076923,85.71428571428571,9.54915028125269e-05,0.5904319286346436
481,0.9692025780677795,0.7600618004798889,75.0,85.71428571428571,92.3076923076923,92.85714285714286,8.645971286271922e-05,0.5903980731964111
482,0.8674076199531555,0.6070133447647095,78.84615384615384,100.0,94.23076923076923,85.71428571428571,7.783603724899216e-05,0.5959279537200928
483,0.6575905829668045,1.2937052249908447,86.53846153846153,64.28571428571429,98.07692307692308,78.57142857142857,6.962898649802839e-05,0.5906412601470947
484,0.7011651396751404,1.0544313192367554,84.61538461538461,78.57142857142857,94.23076923076923,85.71428571428571,6.184665997806804e-05,0.5933551788330078
485,0.7620438635349274,1.0839040279388428,84.61538461538461,78.57142857142857,92.3076923076923,85.71428571428571,5.449673790581633e-05,0.5932986736297607
486,0.7583752274513245,0.6912124752998352,90.38461538461539,92.85714285714286,88.46153846153847,78.57142857142857,4.7586473766990165e-05,0.5936894416809082
487,0.8212934732437134,1.111534833908081,78.84615384615384,78.57142857142857,94.23076923076923,85.71428571428571,4.112268715800978e-05,0.5847101211547852
488,0.7836167812347412,1.0762335062026978,84.61538461538461,85.71428571428571,88.46153846153847,92.85714285714286,3.511175705587429e-05,0.5965335369110107
489,0.6607002913951874,1.1529158353805542,88.46153846153847,78.57142857142857,90.38461538461539,71.42857142857143,2.955961552288763e-05,0.5976982116699219
490,0.7452465295791626,0.7419665455818176,84.61538461538461,92.85714285714286,98.07692307692308,78.57142857142857,2.4471741852423262e-05,0.5956788063049316
491,0.7120906710624695,1.1321814060211182,86.53846153846153,85.71428571428571,90.38461538461539,78.57142857142857,1.985315716152828e-05,0.5970115661621094
492,0.6901163160800934,0.696771502494812,88.46153846153847,85.71428571428571,92.3076923076923,85.71428571428571,1.5708419435684555e-05,0.6031992435455322
493,0.8471280038356781,1.3251373767852783,82.6923076923077,78.57142857142857,92.3076923076923,85.71428571428571,1.2041619030626213e-05,0.5928328037261963
494,0.9085992872714996,0.5504721999168396,86.53846153846153,100.0,94.23076923076923,85.71428571428571,8.856374635655795e-06,0.592463493347168
495,0.6973065137863159,0.6529036164283752,84.61538461538461,100.0,92.3076923076923,71.42857142857143,6.1558297024311075e-06,0.5964224338531494
496,0.771535187959671,0.8774306774139404,84.61538461538461,85.71428571428571,86.53846153846153,78.57142857142857,3.942649342761168e-06,0.5970847606658936
497,0.7589385509490967,1.0769883394241333,86.53846153846153,85.71428571428571,96.15384615384616,85.71428571428571,2.2190176984599993e-06,0.588554859161377
498,0.8565827906131744,0.9831948280334473,88.46153846153847,85.71428571428571,90.38461538461539,78.57142857142857,9.86635785864275e-07,0.592559814453125
499,0.7579878568649292,0.663042426109314,82.6923076923077,92.85714285714286,94.23076923076923,78.57142857142857,2.4671981713425525e-07,0.5904662609100342
500,0.5845707356929779,0.7288087010383606,94.23076923076923,92.85714285714286,90.38461538461539,78.57142857142857,0.0,0.5903885364532471
501,0.9702023267745972,0.985345184803009,80.76923076923077,78.57142857142857,88.46153846153847,78.57142857142857,2.467198171342e-07,0.5901107788085938
502,0.7314145565032959,1.3749792575836182,86.53846153846153,78.57142857142857,92.3076923076923,85.71428571428571,9.866357858642204e-07,0.595670223236084
503,0.6354022175073624,0.9661358594894409,88.46153846153847,85.71428571428571,94.23076923076923,92.85714285714286,2.2190176984599464e-06,0.5897443294525146
504,0.7255780696868896,0.6692958474159241,88.46153846153847,92.85714285714286,94.23076923076923,92.85714285714286,3.942649342761118e-06,0.5922088623046875
505,0.7058305740356445,0.7604963779449463,88.46153846153847,85.71428571428571,90.38461538461539,85.71428571428571,6.155829702431005e-06,0.5940914154052734
506,0.6395674347877502,0.8260024785995483,92.3076923076923,92.85714285714286,92.3076923076923,71.42857142857143,8.856374635655697e-06,0.5948398113250732
507,0.5897208750247955,0.9177815914154053,90.38461538461539,92.85714285714286,90.38461538461539,71.42857142857143,1.2041619030626118e-05,0.5947427749633789
508,0.6477723121643066,1.2339262962341309,88.46153846153847,64.28571428571429,94.23076923076923,85.71428571428571,1.570841943568441e-05,0.5932779312133789
509,0.8050362765789032,0.8315083980560303,86.53846153846153,92.85714285714286,90.38461538461539,78.57142857142857,1.9853157161528137e-05,0.5919137001037598
510,0.7751863896846771,0.9343047142028809,88.46153846153847,78.57142857142857,88.46153846153847,85.71428571428571,2.4471741852423404e-05,0.5925238132476807
511,0.6838654577732086,0.6118751168251038,88.46153846153847,85.71428571428571,88.46153846153847,85.71428571428571,2.955961552288711e-05,0.5935900211334229
512,0.7704029083251953,0.7484025955200195,86.53846153846153,85.71428571428571,94.23076923076923,85.71428571428571,3.511175705587445e-05,0.5921034812927246
513,0.7398317456245422,1.1557538509368896,90.38461538461539,78.57142857142857,92.3076923076923,92.85714285714286,4.112268715800922e-05,0.5946354866027832
514,0.8023264706134796,1.2944731712341309,80.76923076923077,71.42857142857143,88.46153846153847,85.71428571428571,4.7586473766990335e-05,0.5931651592254639
515,1.0462433099746704,0.9623285531997681,76.92307692307692,92.85714285714286,94.23076923076923,78.57142857142857,5.449673790581573e-05,0.5960652828216553
516,0.7984631061553955,0.7148885130882263,86.53846153846153,92.85714285714286,90.38461538461539,85.71428571428571,6.184665997806823e-05,0.5909860134124756
517,0.7628067433834076,0.8052893877029419,84.61538461538461,85.71428571428571,88.46153846153847,85.71428571428571,6.962898649802864e-05,0.5900487899780273
518,0.625016838312149,0.5086261630058289,96.15384615384616,100.0,92.3076923076923,92.85714285714286,7.783603724899244e-05,0.5924522876739502
519,0.7011765241622925,0.5878132581710815,88.46153846153847,100.0,86.53846153846153,85.71428571428571,8.645971286271952e-05,0.5901467800140381
520,0.7863330543041229,0.9133862257003784,84.61538461538461,78.57142857142857,86.53846153846153,85.71428571428571,9.549150281252615e-05,0.5972442626953125
521,0.8505005538463593,1.400724172592163,82.6923076923077,78.57142857142857,88.46153846153847,71.42857142857143,0.00010492249381215516,0.6190743446350098
522,0.6892198622226715,1.2227519750595093,90.38461538461539,71.42857142857143,90.38461538461539,85.71428571428571,0.00011474337861210514,0.5936343669891357
523,0.8118657171726227,1.1306064128875732,86.53846153846153,71.42857142857143,88.46153846153847,78.57142857142857,0.00012494446518477047,0.5942285060882568
524,0.6515775620937347,0.6308003664016724,88.46153846153847,92.85714285714286,88.46153846153847,85.71428571428571,0.00013551568628929382,0.5925276279449463
525,0.7651542127132416,1.0396859645843506,82.6923076923077,85.71428571428571,92.3076923076923,71.42857142857143,0.00014644660940672636,0.6119158267974854
526,0.7257051169872284,0.6417359113693237,86.53846153846153,100.0,96.15384615384616,71.42857142857143,0.00015772644703565642,0.593024730682373
527,0.6734490394592285,1.1491643190383911,90.38461538461539,92.85714285714286,94.23076923076923,64.28571428571429,0.0001693440673381741,0.5924103260040283
528,0.7459927201271057,0.9740139245986938,82.6923076923077,78.57142857142857,94.23076923076923,78.57142857142857,0.0001812880051256558,0.5904970169067383
529,0.6887653470039368,1.0842580795288086,86.53846153846153,85.71428571428571,86.53846153846153,85.71428571428571,0.00019354647317351164,0.5952937602996826
530,0.5996658802032471,1.2433550357818604,92.3076923076923,78.57142857142857,94.23076923076923,85.71428571428571,0.00020610737385376394,0.5980465412139893
531,0.8050843179225922,0.7222204208374023,82.6923076923077,92.85714285714286,86.53846153846153,78.57142857142857,0.00021895831107393446,0.5908339023590088
532,0.7379311323165894,0.7966304421424866,86.53846153846153,78.57142857142857,92.3076923076923,85.71428571428571,0.0002320866025105021,0.5979957580566406
533,0.646118700504303,1.2379324436187744,92.3076923076923,85.71428571428571,96.15384615384616,71.42857142857143,0.0002454792921248139,0.5922544002532959
534,0.7042678892612457,0.7584424614906311,88.46153846153847,92.85714285714286,90.38461538461539,71.42857142857143,0.0002591231629491426,0.5923233032226562
535,0.6706676781177521,0.8310592174530029,90.38461538461539,92.85714285714286,94.23076923076923,64.28571428571429,0.0002730047501302276,0.591280460357666
536,0.6645899713039398,0.9259689450263977,90.38461538461539,85.71428571428571,96.15384615384616,78.57142857142857,0.00028711035421746377,0.61189866065979
537,0.8701523542404175,1.087390661239624,78.84615384615384,92.85714285714286,94.23076923076923,71.42857142857143,0.00030142605468261053,0.5963709354400635
538,0.7133697271347046,0.6503379344940186,86.53846153846153,100.0,92.3076923076923,71.42857142857143,0.000315937723657661,0.5985462665557861
539,0.9418004155158997,0.7917525768280029,76.92307692307692,92.85714285714286,94.23076923076923,78.57142857142857,0.00033063103987735507,0.5921192169189453
540,0.5702882409095764,0.6627850532531738,98.07692307692308,92.85714285714286,88.46153846153847,71.42857142857143,0.0003454915028125261,0.5892317295074463
541,0.6746894419193268,0.8796133995056152,92.3076923076923,85.71428571428571,92.3076923076923,92.85714285714286,0.00036050444698038607,0.6000556945800781
542,0.7995248436927795,1.0922355651855469,86.53846153846153,85.71428571428571,90.38461538461539,64.28571428571429,0.0003756550564175724,0.5956583023071289
543,0.8791541159152985,0.737865686416626,76.92307692307692,92.85714285714286,90.38461538461539,85.71428571428571,0.0003909283793017293,0.59031081199646
544,0.6334734559059143,0.8600476980209351,88.46153846153847,85.71428571428571,94.23076923076923,85.71428571428571,0.0004063093427071391,0.5964720249176025
545,0.9326821267604828,0.8929538726806641,80.76923076923077,85.71428571428571,94.23076923076923,78.57142857142857,0.00042178276747988503,0.5918717384338379
546,0.8289749622344971,1.0907756090164185,88.46153846153847,78.57142857142857,90.38461538461539,92.85714285714286,0.0004373333832178491,0.5962164402008057
547,0.7308123707771301,0.7407641410827637,90.38461538461539,92.85714285714286,90.38461538461539,78.57142857142857,0.00045294584334074317,0.5937366485595703
548,0.6648021936416626,0.9807711839675903,88.46153846153847,85.71428571428571,86.53846153846153,71.42857142857143,0.00046860474023534444,0.5935099124908447
549,0.7517895102500916,0.7209445238113403,86.53846153846153,85.71428571428571,90.38461538461539,85.71428571428571,0.000484294620460936,0.5909979343414307
550,0.8253176212310791,1.1440865993499756,86.53846153846153,85.71428571428571,86.53846153846153,78.57142857142857,0.0005000000000000009,0.5966947078704834
551,0.6931823194026947,1.26616632938385,88.46153846153847,71.42857142857143,98.07692307692308,85.71428571428571,0.000515705379539064,0.5876102447509766
552,0.6349388659000397,0.6966723799705505,90.38461538461539,92.85714285714286,92.3076923076923,78.57142857142857,0.0005313952597646574,0.5978968143463135
553,0.758959025144577,0.739889919757843,90.38461538461539,78.57142857142857,90.38461538461539,92.85714285714286,0.000547054156659257,0.5948977470397949
554,0.838179349899292,0.6920948028564453,88.46153846153847,85.71428571428571,90.38461538461539,100.0,0.0005626666167821528,0.593228816986084
555,0.834026038646698,0.8479824662208557,82.6923076923077,85.71428571428571,94.23076923076923,92.85714285714286,0.0005782172325201169,0.5981922149658203
556,0.8502687811851501,1.178617238998413,82.6923076923077,85.71428571428571,92.3076923076923,92.85714285714286,0.0005936906572928627,0.5886881351470947
557,0.8174888491630554,0.7074953317642212,84.61538461538461,85.71428571428571,92.3076923076923,85.71428571428571,0.0006090716206982724,0.5920681953430176
558,1.0057830512523651,0.6546280980110168,76.92307692307692,100.0,94.23076923076923,78.57142857142857,0.0006243449435824277,0.5917055606842041
559,0.8741762042045593,0.956469714641571,80.76923076923077,78.57142857142857,92.3076923076923,78.57142857142857,0.0006394955530196158,0.5920119285583496
560,0.9046231210231781,0.6457330584526062,80.76923076923077,100.0,100.0,78.57142857142857,0.000654508497187474,0.5961513519287109
561,0.81828173995018,0.7130940556526184,90.38461538461539,92.85714285714286,88.46153846153847,85.71428571428571,0.0006693689601226467,0.593275785446167
562,0.6582416594028473,1.01478111743927,92.3076923076923,78.57142857142857,92.3076923076923,71.42857142857143,0.0006840622763423391,0.5942606925964355
563,0.838643342256546,0.7437708377838135,82.6923076923077,85.71428571428571,88.46153846153847,85.71428571428571,0.0006985739453173912,0.5935885906219482
564,0.787188321352005,0.7781515121459961,84.61538461538461,85.71428571428571,86.53846153846153,78.57142857142857,0.0007128896457825364,0.5886898040771484
565,0.8974583745002747,0.9198037385940552,84.61538461538461,78.57142857142857,88.46153846153847,78.57142857142857,0.0007269952498697741,0.589066743850708
566,0.8839321732521057,1.0194060802459717,84.61538461538461,78.57142857142857,86.53846153846153,71.42857142857143,0.000740876837050859,0.5946078300476074
567,0.6642746925354004,0.7121712565422058,88.46153846153847,92.85714285714286,96.15384615384616,78.57142857142857,0.0007545207078751864,0.5932328701019287
568,0.6886849999427795,0.7112066149711609,88.46153846153847,92.85714285714286,90.38461538461539,78.57142857142857,0.0007679133974894997,0.5910899639129639
569,0.8974358439445496,1.274993658065796,80.76923076923077,78.57142857142857,94.23076923076923,78.57142857142857,0.0007810416889260658,0.5854363441467285
570,0.7397692799568176,0.9012200236320496,86.53846153846153,85.71428571428571,92.3076923076923,85.71428571428571,0.0007938926261462379,0.6001429557800293
571,0.835263729095459,1.0957610607147217,80.76923076923077,78.57142857142857,88.46153846153847,78.57142857142857,0.0008064535268264887,0.5961155891418457
572,0.881819874048233,0.8303173780441284,80.76923076923077,92.85714285714286,90.38461538461539,71.42857142857143,0.0008187119948743461,0.59562087059021
573,0.9421544373035431,1.0302915573120117,76.92307692307692,78.57142857142857,92.3076923076923,71.42857142857143,0.0008306559326618264,0.5923068523406982
574,0.6921461522579193,1.2109448909759521,92.3076923076923,78.57142857142857,94.23076923076923,78.57142857142857,0.0008422735529643455,0.5911529064178467
575,0.6534269005060196,1.7365814447402954,90.38461538461539,64.28571428571429,92.3076923076923,78.57142857142857,0.0008535533905932741,0.5855786800384521
576,0.9587858021259308,1.1592559814453125,82.6923076923077,71.42857142857143,84.61538461538461,92.85714285714286,0.0008644843137107068,0.6116328239440918
577,0.9324851036071777,1.5266779661178589,82.6923076923077,57.142857142857146,92.3076923076923,71.42857142857143,0.0008750555348152313,0.5956869125366211
578,0.8717629313468933,1.1754708290100098,82.6923076923077,78.57142857142857,94.23076923076923,78.57142857142857,0.0008852566213878955,0.5925004482269287
579,0.8846925497055054,0.9376722574234009,80.76923076923077,92.85714285714286,92.3076923076923,71.42857142857143,0.0008950775061878465,0.5993986129760742
580,0.8383305072784424,1.236475944519043,84.61538461538461,78.57142857142857,88.46153846153847,78.57142857142857,0.0009045084971874744,0.5886874198913574
581,0.9707966148853302,1.4241580963134766,78.84615384615384,71.42857142857143,86.53846153846153,78.57142857142857,0.000913540287137282,0.5892312526702881
582,0.9597859084606171,0.8797383904457092,76.92307692307692,85.71428571428571,86.53846153846153,85.71428571428571,0.000922163962751008,0.5979948043823242
583,0.9214982390403748,0.8307478427886963,78.84615384615384,85.71428571428571,88.46153846153847,71.42857142857143,0.0009303710135019726,0.5931050777435303
584,0.9557026028633118,1.1548324823379517,78.84615384615384,78.57142857142857,90.38461538461539,78.57142857142857,0.0009381533400219321,0.6010997295379639
585,0.8643346726894379,1.0415658950805664,78.84615384615384,71.42857142857143,84.61538461538461,85.71428571428571,0.0009455032620941845,0.5928163528442383
586,0.8924803733825684,1.044628381729126,78.84615384615384,78.57142857142857,88.46153846153847,78.57142857142857,0.0009524135262330099,0.594491720199585
587,0.869629979133606,0.9499558210372925,80.76923076923077,78.57142857142857,96.15384615384616,78.57142857142857,0.000958877312841991,0.5951027870178223
588,0.9063615202903748,0.8847081661224365,78.84615384615384,92.85714285714286,92.3076923076923,78.57142857142857,0.0009648882429441264,0.5902023315429688
589,0.9848334193229675,0.8286685347557068,78.84615384615384,85.71428571428571,88.46153846153847,78.57142857142857,0.0009704403844771131,0.5955438613891602
590,0.8666837513446808,0.7390294671058655,80.76923076923077,78.57142857142857,90.38461538461539,92.85714285714286,0.0009755282581475773,0.591392993927002
591,0.8980667591094971,0.9995629787445068,76.92307692307692,85.71428571428571,90.38461538461539,78.57142857142857,0.0009801468428384719,0.5954329967498779
592,0.7745343446731567,0.8714243173599243,84.61538461538461,85.71428571428571,92.3076923076923,78.57142857142857,0.000984291580564316,0.5931491851806641
593,0.9066324234008789,1.0102512836456299,71.15384615384616,78.57142857142857,94.23076923076923,78.57142857142857,0.0009879583809693738,0.594092845916748
594,0.8023752570152283,1.059863567352295,86.53846153846153,78.57142857142857,86.53846153846153,78.57142857142857,0.0009911436253643446,0.6005535125732422
595,0.7555673718452454,0.7365797758102417,90.38461538461539,92.85714285714286,94.23076923076923,78.57142857142857,0.0009938441702975688,0.586334228515625
596,0.8771252036094666,1.0693082809448242,78.84615384615384,78.57142857142857,88.46153846153847,92.85714285714286,0.0009960573506572392,0.5938644409179688
597,0.9597165286540985,0.9991912841796875,80.76923076923077,78.57142857142857,88.46153846153847,71.42857142857143,0.0009977809823015402,0.5945022106170654
598,0.9795924425125122,1.6684191226959229,76.92307692307692,71.42857142857143,90.38461538461539,92.85714285714286,0.000999013364214136,0.5961911678314209
599,0.865908682346344,1.2084851264953613,84.61538461538461,71.42857142857143,94.23076923076923,78.57142857142857,0.000999753280182866,0.5944085121154785
600,0.8416288197040558,0.6658715009689331,82.6923076923077,85.71428571428571,86.53846153846153,85.71428571428571,0.0010000000000000002,0.5946125984191895
601,1.1099154949188232,0.7217588424682617,78.84615384615384,85.71428571428571,82.6923076923077,92.85714285714286,0.000999753280182866,0.5928716659545898
602,0.9666826725006104,1.1102668046951294,76.92307692307692,92.85714285714286,88.46153846153847,64.28571428571429,0.0009990133642141363,0.5906305313110352
603,1.1301257610321045,0.9886322021484375,65.38461538461539,78.57142857142857,92.3076923076923,85.71428571428571,0.0009977809823015404,0.5985541343688965
604,0.9827804267406464,0.943942666053772,75.0,92.85714285714286,86.53846153846153,71.42857142857143,0.0009960573506572394,0.5930535793304443
605,0.905023455619812,0.7182407379150391,73.07692307692308,92.85714285714286,90.38461538461539,85.71428571428571,0.0009938441702975693,0.5938408374786377
606,0.8447112143039703,0.8737902641296387,80.76923076923077,71.42857142857143,88.46153846153847,92.85714285714286,0.0009911436253643448,0.5929772853851318
607,0.899470865726471,1.0281341075897217,75.0,78.57142857142857,94.23076923076923,92.85714285714286,0.000987958380969374,0.5896358489990234
608,0.808942973613739,0.7440505027770996,82.6923076923077,85.71428571428571,86.53846153846153,92.85714285714286,0.000984291580564316,0.5919687747955322
609,0.9036210775375366,1.1860690116882324,80.76923076923077,92.85714285714286,90.38461538461539,64.28571428571429,0.0009801468428384719,0.5926063060760498
610,1.0836734175682068,0.6128027439117432,78.84615384615384,100.0,88.46153846153847,85.71428571428571,0.0009755282581475768,0.59444260597229
611,0.9329999685287476,0.547330915927887,76.92307692307692,92.85714285714286,88.46153846153847,100.0,0.0009704403844771132,0.5935366153717041
612,0.80496945977211,0.823442280292511,76.92307692307692,85.71428571428571,90.38461538461539,85.71428571428571,0.0009648882429441259,0.5926706790924072
613,0.8773729205131531,0.7368141412734985,76.92307692307692,92.85714285714286,92.3076923076923,85.71428571428571,0.0009588773128419912,0.5974171161651611
614,0.868499368429184,0.8731262683868408,84.61538461538461,85.71428571428571,84.61538461538461,78.57142857142857,0.00095241352623301,0.5936682224273682
615,0.8942387998104095,0.7252354621887207,84.61538461538461,92.85714285714286,98.07692307692308,78.57142857142857,0.0009455032620941847,0.5903005599975586
616,0.9591903388500214,0.6575092077255249,76.92307692307692,100.0,92.3076923076923,78.57142857142857,0.0009381533400219321,0.5938754081726074
617,0.8541496396064758,1.115505337715149,82.6923076923077,85.71428571428571,88.46153846153847,71.42857142857143,0.0009303710135019726,0.5926363468170166
618,0.814270406961441,0.8106169700622559,84.61538461538461,85.71428571428571,96.15384615384616,78.57142857142857,0.000922163962751008,0.5949275493621826
619,0.9583883285522461,0.9440870881080627,76.92307692307692,78.57142857142857,88.46153846153847,71.42857142857143,0.000913540287137281,0.5940630435943604
620,0.9590891599655151,0.8021891117095947,82.6923076923077,85.71428571428571,86.53846153846153,92.85714285714286,0.0009045084971874743,0.5934414863586426
621,0.9664368033409119,0.8400559425354004,82.6923076923077,85.71428571428571,88.46153846153847,78.57142857142857,0.0008950775061878452,0.5918567180633545
622,0.8435508608818054,0.9916257858276367,80.76923076923077,78.57142857142857,94.23076923076923,92.85714285714286,0.0008852566213878953,0.596275806427002
623,0.9412655234336853,0.8990271091461182,78.84615384615384,78.57142857142857,94.23076923076923,85.71428571428571,0.0008750555348152299,0.5999870300292969
624,0.9542201161384583,0.9856756925582886,84.61538461538461,92.85714285714286,88.46153846153847,92.85714285714286,0.0008644843137107066,0.5895113945007324
625,0.8800812065601349,0.9811607003211975,80.76923076923077,78.57142857142857,92.3076923076923,85.71428571428571,0.0008535533905932739,0.6021711826324463
626,0.7201442122459412,0.8946085572242737,88.46153846153847,78.57142857142857,86.53846153846153,78.57142857142857,0.0008422735529643453,0.5877795219421387
627,0.8464908599853516,0.9743993282318115,84.61538461538461,78.57142857142857,88.46153846153847,85.71428571428571,0.0008306559326618263,0.591771125793457
628,1.013254463672638,1.0837464332580566,75.0,78.57142857142857,88.46153846153847,78.57142857142857,0.000818711994874346,0.5966882705688477
629,0.8770737648010254,0.6697551608085632,80.76923076923077,92.85714285714286,90.38461538461539,85.71428571428571,0.0008064535268264887,0.6141741275787354
630,0.7712710201740265,0.613921046257019,84.61538461538461,100.0,94.23076923076923,85.71428571428571,0.0007938926261462365,0.5891923904418945
631,0.847427248954773,0.8809977769851685,82.6923076923077,85.71428571428571,90.38461538461539,78.57142857142857,0.0007810416889260658,0.5900018215179443
632,0.8653347492218018,1.0675593614578247,80.76923076923077,85.71428571428571,92.3076923076923,85.71428571428571,0.0007679133974894983,0.5921759605407715
633,0.8046116828918457,1.119933843612671,88.46153846153847,78.57142857142857,92.3076923076923,71.42857142857143,0.0007545207078751865,0.6010253429412842
634,0.837515115737915,0.7500443458557129,86.53846153846153,85.71428571428571,92.3076923076923,85.71428571428571,0.0007408768370508578,0.5923733711242676
635,0.9554694592952728,0.6302735805511475,73.07692307692308,92.85714285714286,90.38461538461539,92.85714285714286,0.0007269952498697744,0.5972480773925781
636,0.9240787923336029,1.1060235500335693,82.6923076923077,78.57142857142857,88.46153846153847,71.42857142857143,0.0007128896457825366,0.5910871028900146
637,0.8311122357845306,0.7809535264968872,86.53846153846153,78.57142857142857,88.46153846153847,92.85714285714286,0.0006985739453173915,0.5928974151611328
638,0.8164654672145844,0.770505428314209,78.84615384615384,92.85714285714286,90.38461538461539,64.28571428571429,0.0006840622763423395,0.5899569988250732
639,0.722257673740387,0.7992664575576782,86.53846153846153,85.71428571428571,92.3076923076923,85.71428571428571,0.000669368960122647,0.5948598384857178
640,0.8705575168132782,0.7179604768753052,82.6923076923077,85.71428571428571,88.46153846153847,92.85714285714286,0.0006545084971874743,0.589773416519165
641,0.9565839469432831,0.7511698603630066,80.76923076923077,92.85714285714286,86.53846153846153,71.42857142857143,0.0006394955530196145,0.5920109748840332
642,0.8180745542049408,0.7361602187156677,86.53846153846153,92.85714285714286,92.3076923076923,71.42857142857143,0.0006243449435824282,0.5912706851959229
643,0.9450440406799316,0.6200066804885864,78.84615384615384,92.85714285714286,88.46153846153847,85.71428571428571,0.0006090716206982713,0.5878129005432129
644,0.8182900846004486,0.9327295422554016,80.76923076923077,78.57142857142857,92.3076923076923,71.42857142857143,0.0005936906572928633,0.5913007259368896
645,0.798608124256134,1.2060604095458984,82.6923076923077,85.71428571428571,90.38461538461539,71.42857142857143,0.0005782172325201156,0.5906147956848145
646,0.9721615314483643,1.1208536624908447,78.84615384615384,78.57142857142857,86.53846153846153,78.57142857142857,0.0005626666167821532,0.589923620223999
647,0.7510277330875397,0.644472599029541,82.6923076923077,92.85714285714286,92.3076923076923,85.71428571428571,0.0005470541566592574,0.5930438041687012
648,0.9021218717098236,1.248491644859314,80.76923076923077,78.57142857142857,90.38461538461539,85.71428571428571,0.000531395259764658,0.5917673110961914
649,0.8059744536876678,0.8449002504348755,82.6923076923077,92.85714285714286,90.38461538461539,78.57142857142857,0.0005157053795390645,0.5949912071228027
650,0.8392271399497986,0.8353027105331421,76.92307692307692,92.85714285714286,88.46153846153847,78.57142857142857,0.0005000000000000014,0.5905694961547852
651,0.7739923298358917,1.1282646656036377,86.53846153846153,85.71428571428571,86.53846153846153,78.57142857142857,0.00048429462046093645,0.5922119617462158
652,0.8733526468276978,0.9284173250198364,78.84615384615384,71.42857142857143,94.23076923076923,85.71428571428571,0.0004686047402353448,0.5933988094329834
653,0.8714700937271118,0.6618238091468811,84.61538461538461,92.85714285714286,90.38461538461539,85.71428571428571,0.00045294584334074176,0.5869181156158447
654,0.7137972116470337,0.7133466005325317,86.53846153846153,92.85714285714286,96.15384615384616,85.71428571428571,0.0004373333832178478,0.5859739780426025
655,0.7141987979412079,0.7680553197860718,88.46153846153847,85.71428571428571,94.23076923076923,92.85714285714286,0.00042178276747988547,0.58443284034729
656,0.6354476809501648,0.7900969982147217,94.23076923076923,92.85714285714286,94.23076923076923,92.85714285714286,0.0004063093427071395,0.5912885665893555
657,0.7144943475723267,1.0474152565002441,88.46153846153847,78.57142857142857,90.38461538461539,92.85714285714286,0.000390928379301728,0.5835971832275391
658,0.7350959479808807,1.0346726179122925,88.46153846153847,71.42857142857143,92.3076923076923,78.57142857142857,0.00037565505641757284,0.5941591262817383
659,0.7144841253757477,1.1851811408996582,88.46153846153847,78.57142857142857,94.23076923076923,85.71428571428571,0.00036050444698038656,0.5891008377075195
660,0.823800802230835,1.3179181814193726,86.53846153846153,78.57142857142857,96.15384615384616,85.71428571428571,0.0003454915028125284,0.5845606327056885
661,0.9917522966861725,1.1911213397979736,73.07692307692308,64.28571428571429,90.38461538461539,92.85714285714286,0.00033063103987735393,0.5941343307495117
662,0.8102832436561584,0.5994441509246826,84.61538461538461,92.85714285714286,90.38461538461539,92.85714285714286,0.0003159377236576616,0.5896427631378174
663,0.7859377861022949,1.4159432649612427,82.6923076923077,64.28571428571429,86.53846153846153,92.85714285714286,0.0003014260546826111,0.595362663269043
664,0.975551426410675,0.7575660943984985,82.6923076923077,85.71428571428571,86.53846153846153,78.57142857142857,0.00028711035421746274,0.5953328609466553
665,0.8700374364852905,0.7244710922241211,80.76923076923077,85.71428571428571,82.6923076923077,78.57142857142857,0.0002730047501302265,0.5910978317260742
666,0.8617567121982574,0.9149629473686218,78.84615384615384,85.71428571428571,86.53846153846153,78.57142857142857,0.0002591231629491431,0.5911595821380615
667,0.956739068031311,0.6798676252365112,78.84615384615384,92.85714285714286,92.3076923076923,85.71428571428571,0.0002454792921248159,0.5933306217193604
668,0.6673323810100555,0.7446465492248535,88.46153846153847,85.71428571428571,92.3076923076923,92.85714285714286,0.00023208660251050105,0.5972063541412354
669,0.7680526673793793,0.829832911491394,78.84615384615384,85.71428571428571,94.23076923076923,64.28571428571429,0.00021895831107393492,0.5891745090484619
670,0.9680386781692505,0.8490571975708008,84.61538461538461,85.71428571428571,84.61538461538461,85.71428571428571,0.00020610737385376443,0.5913724899291992
671,0.8523848056793213,0.7385314702987671,82.6923076923077,92.85714285714286,94.23076923076923,78.57142857142857,0.00019354647317351348,0.5865483283996582
672,0.7961165308952332,0.8871642351150513,80.76923076923077,78.57142857142857,94.23076923076923,85.71428571428571,0.00018128800512565485,0.5857894420623779
673,0.6259127855300903,0.7339072227478027,88.46153846153847,85.71428571428571,94.23076923076923,78.57142857142857,0.00016934406733817454,0.5912721157073975
674,0.7891667485237122,1.039107322692871,84.61538461538461,71.42857142857143,86.53846153846153,85.71428571428571,0.00015772644703565682,0.6020462512969971
675,0.7419281899929047,1.2259716987609863,86.53846153846153,64.28571428571429,92.3076923076923,85.71428571428571,0.00014644660940672558,0.588383674621582
676,0.7853870391845703,1.4746198654174805,82.6923076923077,57.142857142857146,94.23076923076923,78.57142857142857,0.00013551568628929425,0.5913259983062744
677,0.8133156299591064,0.9856851696968079,84.61538461538461,78.57142857142857,92.3076923076923,85.71428571428571,0.0001249444651847709,0.5916516780853271
678,0.7677015066146851,0.9418661594390869,90.38461538461539,78.57142857142857,90.38461538461539,64.28571428571429,0.00011474337861210663,0.5932223796844482
679,0.7694873213768005,0.9503555297851562,82.6923076923077,78.57142857142857,96.15384615384616,92.85714285714286,0.00010492249381215444,0.5897526741027832
680,0.9554475545883179,0.6482069492340088,76.92307692307692,85.71428571428571,88.46153846153847,100.0,9.549150281252653e-05,0.5943574905395508
681,0.8778417110443115,0.9453476667404175,84.61538461538461,85.71428571428571,94.23076923076923,78.57142857142857,8.645971286271984e-05,0.5918734073638916
682,0.6841377317905426,0.9304076433181763,92.3076923076923,71.42857142857143,86.53846153846153,85.71428571428571,7.783603724899372e-05,0.5947961807250977
683,0.8292512893676758,0.5586146116256714,80.76923076923077,100.0,88.46153846153847,100.0,6.962898649802805e-05,0.5892291069030762
684,0.6037773489952087,0.7480652332305908,92.3076923076923,92.85714285714286,96.15384615384616,71.42857142857143,6.184665997806858e-05,0.5910522937774658
685,0.6889185905456543,0.6651120185852051,88.46153846153847,85.71428571428571,94.23076923076923,92.85714285714286,5.449673790581686e-05,0.5935459136962891
686,0.7523453533649445,0.71888667345047,84.61538461538461,85.71428571428571,92.3076923076923,78.57142857142857,4.758647376698986e-05,0.5984430313110352
687,0.7727246582508087,0.6128593683242798,86.53846153846153,85.71428571428571,88.46153846153847,92.85714285714286,4.112268715800947e-05,0.5915515422821045
688,0.7070120275020599,0.8612298965454102,90.38461538461539,85.71428571428571,90.38461538461539,78.57142857142857,3.5111757055874705e-05,0.5889730453491211
689,0.7302337288856506,0.6512328386306763,86.53846153846153,85.71428571428571,90.38461538461539,85.71428571428571,2.9559615522887985e-05,0.5982077121734619
690,0.6607508063316345,0.8009483814239502,90.38461538461539,92.85714285714286,88.46153846153847,78.57142857142857,2.4471741852423062e-05,0.5949873924255371
691,0.7582292258739471,0.7990075349807739,82.6923076923077,92.85714285714286,94.23076923076923,71.42857142857143,1.9853157161528628e-05,0.5907185077667236
692,0.7160332202911377,0.6742702722549438,90.38461538461539,85.71428571428571,92.3076923076923,85.71428571428571,1.5708419435684792e-05,0.5941910743713379
693,0.6798396706581116,0.7607964277267456,90.38461538461539,85.71428571428571,88.46153846153847,85.71428571428571,1.2041619030626447e-05,0.5938200950622559
694,0.6456430852413177,0.7694526314735413,86.53846153846153,92.85714285714286,92.3076923076923,85.71428571428571,8.856374635655637e-06,0.5956380367279053
695,0.680972695350647,1.13041353225708,88.46153846153847,71.42857142857143,90.38461538461539,78.57142857142857,6.15582970243128e-06,0.5950782299041748
696,0.6532790660858154,0.584986686706543,86.53846153846153,100.0,94.23076923076923,85.71428571428571,3.942649342761339e-06,0.5872752666473389
697,0.7658652067184448,0.5312613248825073,86.53846153846153,100.0,92.3076923076923,100.0,2.2190176984599464e-06,0.5894443988800049
698,0.7312258183956146,0.8681912422180176,90.38461538461539,92.85714285714286,96.15384615384616,85.71428571428571,9.866357858642204e-07,0.5890107154846191
699,0.6863919496536255,0.639241099357605,86.53846153846153,100.0,96.15384615384616,85.71428571428571,2.4671981713425546e-07,0.5998618602752686
700,0.8490051031112671,0.7532404661178589,82.6923076923077,85.71428571428571,90.38461538461539,78.57142857142857,0.0,0.5925486087799072
701,0.6944841742515564,1.6387224197387695,88.46153846153847,71.42857142857143,92.3076923076923,85.71428571428571,2.467198171342e-07,0.5896472930908203
702,0.6783852577209473,0.7460801601409912,84.61538461538461,100.0,92.3076923076923,71.42857142857143,9.86635785863943e-07,0.5942168235778809
703,0.6601774096488953,0.6638292074203491,86.53846153846153,85.71428571428571,94.23076923076923,92.85714285714286,2.219017698459336e-06,0.5889215469360352
704,0.7013466358184814,0.8732506036758423,90.38461538461539,85.71428571428571,92.3076923076923,78.57142857142857,3.9426493427601195e-06,0.5936388969421387
705,0.6992819309234619,0.7709819078445435,94.23076923076923,85.71428571428571,90.38461538461539,85.71428571428571,6.15582970242973e-06,0.5875270366668701
706,0.7400798797607422,1.0779414176940918,88.46153846153847,78.57142857142857,90.38461538461539,92.85714285714286,8.856374635653481e-06,0.5890498161315918
707,0.8579277694225311,0.7929749488830566,82.6923076923077,92.85714285714286,92.3076923076923,71.42857142857143,1.2041619030623184e-05,0.5864825248718262
708,0.7384932339191437,0.8221467733383179,86.53846153846153,92.85714285714286,90.38461538461539,78.57142857142857,1.5708419435681038e-05,0.5876777172088623
709,0.7563283443450928,1.2713490724563599,80.76923076923077,71.42857142857143,92.3076923076923,85.71428571428571,1.9853157161523888e-05,0.5937931537628174
710,0.746750682592392,0.9103251695632935,86.53846153846153,85.71428571428571,88.46153846153847,92.85714285714286,2.4471741852417285e-05,0.5921773910522461
711,0.6653066873550415,0.827181875705719,90.38461538461539,85.71428571428571,94.23076923076923,78.57142857142857,2.9559615522880457e-05,0.5960171222686768
712,0.7615253925323486,0.9803898334503174,82.6923076923077,85.71428571428571,90.38461538461539,78.57142857142857,3.5111757055866485e-05,0.5920188426971436
713,0.7049913108348846,0.6667360067367554,90.38461538461539,92.85714285714286,94.23076923076923,85.71428571428571,4.1122687157999905e-05,0.5927944183349609
714,0.7784425020217896,0.8176546096801758,86.53846153846153,92.85714285714286,94.23076923076923,85.71428571428571,4.758647376697884e-05,0.5935564041137695
715,0.6506662964820862,0.8459038734436035,90.38461538461539,92.85714285714286,90.38461538461539,64.28571428571429,5.449673790580424e-05,0.5850954055786133
716,0.731548935174942,0.9050339460372925,88.46153846153847,100.0,88.46153846153847,64.28571428571429,6.184665997805424e-05,0.5923902988433838
717,0.6696157455444336,0.8994357585906982,90.38461538461539,85.71428571428571,92.3076923076923,71.42857142857143,6.962898649801196e-05,0.5866315364837646
718,0.6997164487838745,0.9988235831260681,88.46153846153847,85.71428571428571,94.23076923076923,85.71428571428571,7.783603724897385e-05,0.5955536365509033
719,0.6507138013839722,0.717901349067688,86.53846153846153,85.71428571428571,96.15384615384616,85.71428571428571,8.645971286269991e-05,0.5920393466949463
720,0.7299892902374268,0.5769277215003967,88.46153846153847,100.0,92.3076923076923,85.71428571428571,9.549150281250456e-05,0.5934031009674072
721,0.7728313505649567,0.6628059148788452,84.61538461538461,100.0,88.46153846153847,71.42857142857143,0.00010492249381213034,0.592456579208374
722,0.7212660908699036,0.9120683670043945,90.38461538461539,85.71428571428571,92.3076923076923,85.71428571428571,0.00011474337861207917,0.5870842933654785
723,0.6481039524078369,0.937873125076294,88.46153846153847,92.85714285714286,92.3076923076923,78.57142857142857,0.00012494446518474225,0.5925283432006836
724,0.7229755222797394,0.899234414100647,86.53846153846153,92.85714285714286,90.38461538461539,71.42857142857143,0.00013551568628926316,0.5898008346557617
725,0.878322035074234,0.7013670206069946,86.53846153846153,92.85714285714286,86.53846153846153,85.71428571428571,0.00014644660940669202,0.607421875
726,0.719770073890686,0.8683803081512451,86.53846153846153,92.85714285714286,86.53846153846153,78.57142857142857,0.00015772644703562072,0.5918936729431152
727,0.6314489245414734,0.5708563923835754,86.53846153846153,100.0,92.3076923076923,85.71428571428571,0.00016934406733813578,0.5965805053710938
728,0.8340404629707336,0.9123479127883911,80.76923076923077,85.71428571428571,92.3076923076923,85.71428571428571,0.0001812880051256134,0.5908248424530029
729,0.7350024282932281,0.9648783206939697,86.53846153846153,78.57142857142857,90.38461538461539,78.57142857142857,0.0001935464731734679,0.5940735340118408
730,0.6270728707313538,0.7659876942634583,88.46153846153847,85.71428571428571,96.15384615384616,85.71428571428571,0.00020610737385371735,0.5945603847503662
731,0.7616743743419647,0.8560129404067993,84.61538461538461,92.85714285714286,88.46153846153847,85.71428571428571,0.00021895831107388497,0.5915050506591797
732,0.769316554069519,0.6877796053886414,80.76923076923077,100.0,90.38461538461539,71.42857142857143,0.00023208660251044814,0.5856914520263672
733,0.7421108484268188,0.9353491067886353,88.46153846153847,92.85714285714286,90.38461538461539,71.42857142857143,0.00024547929212475846,0.59090256690979
734,0.6778072118759155,0.6689066886901855,90.38461538461539,85.71428571428571,94.23076923076923,85.71428571428571,0.0002591231629490841,0.5922925472259521
735,0.7859522104263306,1.046138048171997,82.6923076923077,85.71428571428571,92.3076923076923,71.42857142857143,0.00027300475013016434,0.59378981590271
736,0.7230337858200073,0.8976140022277832,86.53846153846153,85.71428571428571,82.6923076923077,78.57142857142857,0.00028711035421739736,0.5910360813140869
737,0.8027787506580353,0.8880127668380737,84.61538461538461,78.57142857142857,90.38461538461539,85.71428571428571,0.0003014260546825424,0.589226245880127
738,0.6947312355041504,0.7156587839126587,84.61538461538461,92.85714285714286,94.23076923076923,85.71428571428571,0.00031593772365758955,0.5910780429840088
739,0.7648518085479736,1.117807388305664,86.53846153846153,78.57142857142857,92.3076923076923,71.42857142857143,0.0003306310398772786,0.5885615348815918
740,0.7190721035003662,1.0369398593902588,92.3076923076923,78.57142857142857,86.53846153846153,78.57142857142857,0.00034549150281244794,0.5917925834655762
741,0.7590712308883667,0.9680426120758057,84.61538461538461,78.57142857142857,90.38461538461539,78.57142857142857,0.0003605044469803044,0.5936374664306641
742,0.6810368597507477,0.8936645984649658,96.15384615384616,78.57142857142857,88.46153846153847,78.57142857142857,0.00037565505641748724,0.5878505706787109
743,0.6014346331357956,0.9474923610687256,86.53846153846153,78.57142857142857,98.07692307692308,78.57142857142857,0.00039092837930163895,0.5937871932983398
744,0.7329476177692413,0.9501497149467468,82.6923076923077,78.57142857142857,96.15384615384616,78.57142857142857,0.00040630934270704524,0.5920112133026123
745,0.5994715094566345,0.9061789512634277,96.15384615384616,85.71428571428571,94.23076923076923,85.71428571428571,0.00042178276747978935,0.5909976959228516
746,0.6905825436115265,1.021255373954773,84.61538461538461,71.42857142857143,92.3076923076923,78.57142857142857,0.0004373333832177482,0.5853664875030518
747,0.7092611789703369,0.75633704662323,88.46153846153847,100.0,92.3076923076923,71.42857142857143,0.00045294584334064055,0.5910370349884033
748,0.60291787981987,0.9623841047286987,92.3076923076923,92.85714285714286,94.23076923076923,85.71428571428571,0.00046860474023523825,0.5867655277252197
749,0.5573762059211731,0.5180201530456543,92.3076923076923,100.0,92.3076923076923,85.71428571428571,0.00048429462046082624,0.5898773670196533
750,0.6389626860618591,1.1206247806549072,92.3076923076923,78.57142857142857,90.38461538461539,71.42857142857143,0.0004999999999998858,0.5922956466674805
751,0.7494781315326691,0.5403515696525574,80.76923076923077,100.0,88.46153846153847,85.71428571428571,0.0005157053795389471,0.587777853012085
752,0.6243377327919006,0.8727419376373291,90.38461538461539,92.85714285714286,94.23076923076923,78.57142857142857,0.000531395259764537,0.5915753841400146
753,0.7112749963998795,0.999325156211853,86.53846153846153,78.57142857142857,92.3076923076923,85.71428571428571,0.0005470541566591329,0.5869135856628418
754,0.618748664855957,0.9305065870285034,88.46153846153847,85.71428571428571,92.3076923076923,92.85714285714286,0.0005626666167820234,0.5909228324890137
755,0.5392815172672272,0.7243263721466064,94.23076923076923,85.71428571428571,92.3076923076923,85.71428571428571,0.000578217232519984,0.5899085998535156
756,0.9232340455055237,1.5813863277435303,80.76923076923077,64.28571428571429,84.61538461538461,85.71428571428571,0.0005936906572927282,0.5860395431518555
757,0.6373402178287506,0.5468762516975403,84.61538461538461,100.0,96.15384615384616,85.71428571428571,0.0006090716206981328,0.5897948741912842
758,0.6507729589939117,0.7652115225791931,80.76923076923077,78.57142857142857,90.38461538461539,85.71428571428571,0.0006243449435822862,0.5861473083496094
759,0.6579769551753998,1.7075011730194092,90.38461538461539,64.28571428571429,92.3076923076923,71.42857142857143,0.0006394955530194708,0.5913228988647461
760,0.7774663418531418,0.7031960487365723,84.61538461538461,92.85714285714286,86.53846153846153,78.57142857142857,0.0006545084971873256,0.5843846797943115
761,0.6465445756912231,1.5340158939361572,84.61538461538461,71.42857142857143,90.38461538461539,85.71428571428571,0.0006693689601224933,0.5909073352813721
762,0.7348220646381378,0.9874848127365112,84.61538461538461,92.85714285714286,92.3076923076923,71.42857142857143,0.000684062276342184,0.5880651473999023
763,0.6626741886138916,0.8738807439804077,90.38461538461539,92.85714285714286,94.23076923076923,78.57142857142857,0.0006985739453172327,0.5877950191497803
764,0.7926804423332214,0.9106894731521606,86.53846153846153,78.57142857142857,90.38461538461539,92.85714285714286,0.0007128896457823746,0.5922493934631348
765,0.8114556968212128,0.7261807918548584,84.61538461538461,85.71428571428571,88.46153846153847,92.85714285714286,0.0007269952498696092,0.5896756649017334
766,0.7927716076374054,1.4560405015945435,78.84615384615384,71.42857142857143,88.46153846153847,85.71428571428571,0.0007408768370506894,0.5910007953643799
767,0.8396006226539612,0.9037421941757202,84.61538461538461,85.71428571428571,90.38461538461539,64.28571428571429,0.000754520707875015,0.5910825729370117
768,1.1739996075630188,0.8742996454238892,73.07692307692308,78.57142857142857,92.3076923076923,78.57142857142857,0.000767913397489324,0.5903687477111816
769,0.8825225234031677,0.9729143977165222,80.76923076923077,71.42857142857143,90.38461538461539,92.85714285714286,0.0007810416889258886,0.5918593406677246
770,0.7986302077770233,0.9186497926712036,84.61538461538461,85.71428571428571,88.46153846153847,71.42857142857143,0.0007938926261460577,0.5877335071563721
771,0.800347775220871,1.211146593093872,84.61538461538461,85.71428571428571,86.53846153846153,85.71428571428571,0.0008064535268263057,0.5911939144134521
772,0.8451418578624725,1.1974488496780396,84.61538461538461,78.57142857142857,92.3076923076923,78.57142857142857,0.0008187119948741587,0.5864310264587402
773,1.0717029571533203,0.726083517074585,71.15384615384616,92.85714285714286,92.3076923076923,78.57142857142857,0.0008306559326616377,0.5876152515411377
774,0.9336356520652771,0.799669623374939,82.6923076923077,78.57142857142857,90.38461538461539,71.42857142857143,0.0008422735529641542,0.58329176902771
775,0.9152599275112152,0.7809973955154419,86.53846153846153,100.0,90.38461538461539,64.28571428571429,0.0008535533905930803,0.5942230224609375
776,1.0466569662094116,1.1592607498168945,73.07692307692308,78.57142857142857,90.38461538461539,85.71428571428571,0.0008644843137105105,0.5922188758850098
777,0.9474015235900879,0.7069888710975647,80.76923076923077,92.85714285714286,86.53846153846153,85.71428571428571,0.0008750555348150315,0.587228536605835
778,0.9386073350906372,1.1225459575653076,82.6923076923077,71.42857142857143,82.6923076923077,85.71428571428571,0.0008852566213876945,0.5951831340789795
779,0.680934488773346,1.1930452585220337,92.3076923076923,64.28571428571429,88.46153846153847,92.85714285714286,0.0008950775061876422,0.5876064300537109
780,0.985040932893753,0.8385885953903198,76.92307692307692,78.57142857142857,88.46153846153847,78.57142857142857,0.0009045084971872693,0.5894639492034912
781,0.8824800550937653,0.8128468990325928,73.07692307692308,78.57142857142857,92.3076923076923,71.42857142857143,0.0009135402871370748,0.5820755958557129
782,0.8599503040313721,0.7156217694282532,76.92307692307692,85.71428571428571,88.46153846153847,78.57142857142857,0.0009221639627507988,0.5847725868225098
783,1.0796064138412476,0.713154137134552,76.92307692307692,100.0,84.61538461538461,71.42857142857143,0.0009303710135017616,0.5892622470855713
784,0.9341697096824646,0.8624087572097778,73.07692307692308,71.42857142857143,90.38461538461539,92.85714285714286,0.0009381533400217194,0.6049578189849854
785,0.8076198101043701,1.1264760494232178,86.53846153846153,78.57142857142857,86.53846153846153,85.71428571428571,0.0009455032620939703,0.5901491641998291
