epoch,train_loss,val_loss,train_acc_action,train_acc_status,val_acc_action,val_acc_status,learning_rate
1,1.7799954414367676,1.7583286762237549,0.3269230769230769,0.8269230769230769,0.35714285714285715,0.8571428571428571,0.0004
2,1.7767741680145264,1.7538647651672363,0.3269230769230769,0.8076923076923077,0.35714285714285715,0.8571428571428571,0.0004
3,1.7692276239395142,1.749401569366455,0.3269230769230769,0.8076923076923077,0.35714285714285715,0.8571428571428571,0.0004
4,1.7682480812072754,1.7471433877944946,0.3269230769230769,0.8269230769230769,0.35714285714285715,0.8571428571428571,0.0004
5,1.7656105756759644,1.744938611984253,0.3269230769230769,0.8269230769230769,0.35714285714285715,0.8571428571428571,0.0004
6,1.7595471739768982,1.7420713901519775,0.3269230769230769,0.8269230769230769,0.35714285714285715,0.8571428571428571,0.0004
7,1.7570226788520813,1.7384741306304932,0.3269230769230769,0.8269230769230769,0.35714285714285715,0.8571428571428571,0.0004
8,1.7543107271194458,1.7324235439300537,0.3269230769230769,0.8269230769230769,0.35714285714285715,0.8571428571428571,0.0004
9,1.7535700798034668,1.7321410179138184,0.3269230769230769,0.8269230769230769,0.35714285714285715,0.8571428571428571,0.0004
10,1.7436902523040771,1.7291010618209839,0.3269230769230769,0.8269230769230769,0.35714285714285715,0.8571428571428571,0.0004
11,1.7416803240776062,1.7264931201934814,0.3269230769230769,0.8269230769230769,0.35714285714285715,0.8571428571428571,0.0004
12,1.742189109325409,1.7194032669067383,0.3269230769230769,0.8269230769230769,0.35714285714285715,0.8571428571428571,0.0004
13,1.7411401867866516,1.7139644622802734,0.3269230769230769,0.8269230769230769,0.35714285714285715,0.8571428571428571,0.0004
14,1.7273168563842773,1.7071378231048584,0.3269230769230769,0.8269230769230769,0.35714285714285715,0.8571428571428571,0.0004
15,1.7277700901031494,1.7021677494049072,0.28846153846153844,0.8269230769230769,0.35714285714285715,0.8571428571428571,0.0004
16,1.715101718902588,1.6920356750488281,0.34615384615384615,0.8269230769230769,0.35714285714285715,0.8571428571428571,0.0004
17,1.705902338027954,1.6780014038085938,0.36538461538461536,0.8269230769230769,0.35714285714285715,0.8571428571428571,0.0004
18,1.7046843767166138,1.6639256477355957,0.34615384615384615,0.8269230769230769,0.35714285714285715,0.8571428571428571,0.0004
19,1.6760545372962952,1.639066219329834,0.34615384615384615,0.8269230769230769,0.35714285714285715,0.8571428571428571,0.0004
20,1.6492630243301392,1.6074250936508179,0.3269230769230769,0.8269230769230769,0.35714285714285715,0.8571428571428571,0.0004
21,1.621211290359497,1.5784865617752075,0.34615384615384615,0.8269230769230769,0.35714285714285715,0.8571428571428571,0.0004
22,1.6607627868652344,1.573060154914856,0.28846153846153844,0.8269230769230769,0.35714285714285715,0.8571428571428571,0.0004
23,1.6653971076011658,1.570077896118164,0.2692307692307692,0.8269230769230769,0.35714285714285715,0.8571428571428571,0.0004
24,1.6288292407989502,1.5637052059173584,0.3076923076923077,0.8269230769230769,0.2857142857142857,0.8571428571428571,0.0004
25,1.6437041759490967,1.5569219589233398,0.4230769230769231,0.8269230769230769,0.21428571428571427,0.8571428571428571,0.0004
26,1.6574583649635315,1.5577797889709473,0.34615384615384615,0.8269230769230769,0.21428571428571427,0.8571428571428571,0.0004
27,1.6359115839004517,1.5603537559509277,0.28846153846153844,0.8269230769230769,0.21428571428571427,0.8571428571428571,0.0004
28,1.5802228450775146,1.5608882904052734,0.36538461538461536,0.8269230769230769,0.21428571428571427,0.8571428571428571,0.0004
29,1.6157078742980957,1.565596103668213,0.38461538461538464,0.8269230769230769,0.21428571428571427,0.8571428571428571,0.0004
30,1.630357265472412,1.557159185409546,0.28846153846153844,0.8269230769230769,0.21428571428571427,0.8571428571428571,0.0004
31,1.563754677772522,1.5701496601104736,0.3076923076923077,0.8269230769230769,0.21428571428571427,0.8571428571428571,0.0004
32,1.5639077425003052,1.5695399045944214,0.34615384615384615,0.8269230769230769,0.21428571428571427,0.8571428571428571,0.0004
33,1.6649628281593323,1.5712473392486572,0.21153846153846154,0.8269230769230769,0.21428571428571427,0.8571428571428571,0.0004
34,1.6588770151138306,1.5713999271392822,0.34615384615384615,0.8269230769230769,0.21428571428571427,0.8571428571428571,0.0004
35,1.6010801196098328,1.5642050504684448,0.3269230769230769,0.8269230769230769,0.21428571428571427,0.8571428571428571,0.0004
36,1.6195358037948608,1.5584728717803955,0.3269230769230769,0.8269230769230769,0.21428571428571427,0.8571428571428571,0.0004
37,1.6105468273162842,1.561807632446289,0.38461538461538464,0.8269230769230769,0.21428571428571427,0.8571428571428571,0.0004
38,1.5620009303092957,1.5580589771270752,0.4230769230769231,0.8269230769230769,0.21428571428571427,0.8571428571428571,0.0004
39,1.5211785435676575,1.5500577688217163,0.36538461538461536,0.8269230769230769,0.21428571428571427,0.8571428571428571,0.0004
40,1.5604812502861023,1.5409784317016602,0.40384615384615385,0.8269230769230769,0.21428571428571427,0.8571428571428571,0.0004
41,1.494814693927765,1.542876958847046,0.28846153846153844,0.8269230769230769,0.21428571428571427,0.8571428571428571,0.0004
42,1.5418677926063538,1.5262730121612549,0.34615384615384615,0.8269230769230769,0.21428571428571427,0.8571428571428571,0.0004
43,1.5563462972640991,1.5284305810928345,0.3269230769230769,0.8269230769230769,0.35714285714285715,0.8571428571428571,0.0004
44,1.5757631063461304,1.5199180841445923,0.36538461538461536,0.8269230769230769,0.2857142857142857,0.8571428571428571,0.0004
45,1.6302558183670044,1.5251829624176025,0.28846153846153844,0.8269230769230769,0.42857142857142855,0.8571428571428571,0.0004
46,1.5588684678077698,1.523726224899292,0.28846153846153844,0.8269230769230769,0.35714285714285715,0.8571428571428571,0.0004
47,1.6223642230033875,1.5315110683441162,0.3076923076923077,0.8269230769230769,0.2857142857142857,0.8571428571428571,0.0004
48,1.5378226041793823,1.5216600894927979,0.40384615384615385,0.8269230769230769,0.42857142857142855,0.8571428571428571,0.0004
49,1.6584712862968445,1.5208755731582642,0.2692307692307692,0.8269230769230769,0.2857142857142857,0.8571428571428571,0.0004
50,1.531187891960144,1.5217435359954834,0.36538461538461536,0.8269230769230769,0.21428571428571427,0.8571428571428571,0.0004
51,1.6103719472885132,1.5285825729370117,0.3269230769230769,0.8269230769230769,0.21428571428571427,0.8571428571428571,0.0004
52,1.532203495502472,1.5250498056411743,0.38461538461538464,0.8269230769230769,0.35714285714285715,0.8571428571428571,0.0004
53,1.596784234046936,1.5066959857940674,0.36538461538461536,0.8269230769230769,0.35714285714285715,0.8571428571428571,0.0004
54,1.5614902973175049,1.5281071662902832,0.4230769230769231,0.8269230769230769,0.35714285714285715,0.8571428571428571,0.0004
55,1.5769063234329224,1.5190119743347168,0.3076923076923077,0.8269230769230769,0.42857142857142855,0.8571428571428571,0.0004
56,1.5767017602920532,1.5361051559448242,0.34615384615384615,0.8269230769230769,0.2857142857142857,0.8571428571428571,0.0004
57,1.6045106649398804,1.5522552728652954,0.34615384615384615,0.8269230769230769,0.21428571428571427,0.8571428571428571,0.0004
58,1.5863478779792786,1.5368740558624268,0.25,0.8269230769230769,0.35714285714285715,0.8571428571428571,0.0004
59,1.5840080976486206,1.539339542388916,0.3076923076923077,0.8269230769230769,0.35714285714285715,0.8571428571428571,0.0004
60,1.5554400086402893,1.547802209854126,0.4230769230769231,0.8269230769230769,0.2857142857142857,0.8571428571428571,0.0004
61,1.5411453247070312,1.5502326488494873,0.38461538461538464,0.8269230769230769,0.21428571428571427,0.8571428571428571,0.0004
62,1.568498969078064,1.5446453094482422,0.36538461538461536,0.8269230769230769,0.2857142857142857,0.8571428571428571,0.0004
63,1.537096619606018,1.5348460674285889,0.40384615384615385,0.8269230769230769,0.2857142857142857,0.8571428571428571,0.0004
64,1.5487909317016602,1.527733325958252,0.36538461538461536,0.8269230769230769,0.35714285714285715,0.8571428571428571,0.0004
65,1.503859519958496,1.5222978591918945,0.34615384615384615,0.8269230769230769,0.35714285714285715,0.8571428571428571,0.0004
66,1.5727856159210205,1.5528017282485962,0.40384615384615385,0.8269230769230769,0.2857142857142857,0.8571428571428571,0.0004
67,1.5486640334129333,1.567915678024292,0.40384615384615385,0.8269230769230769,0.21428571428571427,0.8571428571428571,0.0004
68,1.5439602732658386,1.4978606700897217,0.38461538461538464,0.8269230769230769,0.42857142857142855,0.8571428571428571,0.0004
69,1.5492124557495117,1.538874864578247,0.5,0.8269230769230769,0.2857142857142857,0.8571428571428571,0.0004
70,1.5867186188697815,1.5099364519119263,0.38461538461538464,0.8269230769230769,0.35714285714285715,0.8571428571428571,0.0004
71,1.5512427687644958,1.5649930238723755,0.46153846153846156,0.8269230769230769,0.21428571428571427,0.8571428571428571,0.0004
72,1.6236351132392883,1.5880131721496582,0.36538461538461536,0.8269230769230769,0.21428571428571427,0.8571428571428571,0.0004
73,1.5252493023872375,1.530463457107544,0.40384615384615385,0.8269230769230769,0.2857142857142857,0.8571428571428571,0.0004
74,1.5891407132148743,1.508702039718628,0.4423076923076923,0.8269230769230769,0.35714285714285715,0.8571428571428571,0.0004
75,1.61090487241745,1.4801543951034546,0.34615384615384615,0.8269230769230769,0.35714285714285715,0.8571428571428571,0.0004
76,1.6478723287582397,1.5678735971450806,0.36538461538461536,0.8269230769230769,0.21428571428571427,0.8571428571428571,0.0004
77,1.5534164905548096,1.4909348487854004,0.4230769230769231,0.8269230769230769,0.42857142857142855,0.8571428571428571,0.0004
78,1.5585457682609558,1.5219991207122803,0.34615384615384615,0.8269230769230769,0.2857142857142857,0.8571428571428571,0.0004
79,1.5524855256080627,1.5203845500946045,0.46153846153846156,0.8269230769230769,0.35714285714285715,0.8571428571428571,0.0004
80,1.4794813990592957,1.5394567251205444,0.46153846153846156,0.8269230769230769,0.2857142857142857,0.8571428571428571,0.0004
81,1.5363930463790894,1.5590535402297974,0.4230769230769231,0.8269230769230769,0.21428571428571427,0.8571428571428571,0.0004
82,1.527185082435608,1.520523190498352,0.38461538461538464,0.8269230769230769,0.42857142857142855,0.8571428571428571,0.0004
83,1.5030134916305542,1.5336931943893433,0.4230769230769231,0.8269230769230769,0.2857142857142857,0.8571428571428571,0.0004
84,1.5668244361877441,1.5043895244598389,0.40384615384615385,0.8269230769230769,0.35714285714285715,0.8571428571428571,0.0004
85,1.5258037447929382,1.4706463813781738,0.5192307692307693,0.8269230769230769,0.35714285714285715,0.8571428571428571,0.0004
86,1.5799480676651,1.5366501808166504,0.36538461538461536,0.8269230769230769,0.35714285714285715,0.8571428571428571,0.0004
87,1.4422839283943176,1.5798962116241455,0.4423076923076923,0.8269230769230769,0.21428571428571427,0.8571428571428571,0.0004
88,1.499657392501831,1.5242421627044678,0.46153846153846156,0.8269230769230769,0.2857142857142857,0.8571428571428571,0.0004
89,1.5428580045700073,1.476812720298767,0.46153846153846156,0.8269230769230769,0.35714285714285715,0.8571428571428571,0.0004
90,1.5488411784172058,1.5953623056411743,0.4230769230769231,0.8269230769230769,0.21428571428571427,0.8571428571428571,0.0004
91,1.5202065706253052,1.5543352365493774,0.4230769230769231,0.8269230769230769,0.21428571428571427,0.8571428571428571,0.0004
92,1.539292573928833,1.4308212995529175,0.4423076923076923,0.8269230769230769,0.42857142857142855,0.8571428571428571,0.0004
93,1.464185118675232,1.45570969581604,0.46153846153846156,0.8269230769230769,0.35714285714285715,0.8571428571428571,0.0004
94,1.5845803022384644,1.4855488538742065,0.34615384615384615,0.8269230769230769,0.35714285714285715,0.8571428571428571,0.0004
95,1.478170394897461,1.5368565320968628,0.34615384615384615,0.8269230769230769,0.2857142857142857,0.8571428571428571,0.0004
96,1.4473347067832947,1.6059637069702148,0.40384615384615385,0.8269230769230769,0.21428571428571427,0.8571428571428571,0.0004
97,1.5009044408798218,1.6066395044326782,0.4807692307692308,0.8269230769230769,0.21428571428571427,0.8571428571428571,0.0004
98,1.5063756108283997,1.486234188079834,0.5192307692307693,0.8269230769230769,0.35714285714285715,0.8571428571428571,0.0004
99,1.4919907450675964,1.5475176572799683,0.46153846153846156,0.8269230769230769,0.2857142857142857,0.8571428571428571,0.0004
100,1.4814226627349854,1.5629281997680664,0.46153846153846156,0.8269230769230769,0.2857142857142857,0.8571428571428571,0.0004
101,1.4952633380889893,1.6641041040420532,0.5,0.8269230769230769,0.21428571428571427,0.8571428571428571,0.0004
102,1.497300386428833,1.5398502349853516,0.4230769230769231,0.8269230769230769,0.2857142857142857,0.8571428571428571,0.0004
103,1.5153205394744873,1.6467243432998657,0.4423076923076923,0.8269230769230769,0.21428571428571427,0.8571428571428571,0.0004
104,1.4903767108917236,1.6176425218582153,0.4230769230769231,0.8269230769230769,0.21428571428571427,0.8571428571428571,0.0004
105,1.514179766178131,1.597690224647522,0.5,0.8269230769230769,0.21428571428571427,0.8571428571428571,0.0004
106,1.462846279144287,1.5527949333190918,0.5192307692307693,0.8269230769230769,0.35714285714285715,0.8571428571428571,0.0004
107,1.420801043510437,1.427889347076416,0.4807692307692308,0.8269230769230769,0.35714285714285715,0.8571428571428571,0.0004
108,1.5379506945610046,1.5747153759002686,0.46153846153846156,0.8269230769230769,0.2857142857142857,0.8571428571428571,0.0004
109,1.5431342720985413,1.6151567697525024,0.40384615384615385,0.8269230769230769,0.2857142857142857,0.8571428571428571,0.0004
110,1.5720270872116089,1.487859845161438,0.34615384615384615,0.8269230769230769,0.42857142857142855,0.8571428571428571,0.0004
111,1.4854930639266968,1.5647861957550049,0.4807692307692308,0.8269230769230769,0.2857142857142857,0.8571428571428571,0.0004
112,1.4335477948188782,1.5578583478927612,0.5192307692307693,0.8269230769230769,0.2857142857142857,0.8571428571428571,0.0004
113,1.5196084380149841,1.5157041549682617,0.40384615384615385,0.8269230769230769,0.35714285714285715,0.8571428571428571,0.0004
114,1.5006329417228699,1.5885522365570068,0.46153846153846156,0.8269230769230769,0.21428571428571427,0.8571428571428571,0.0004
115,1.517801582813263,1.5087921619415283,0.46153846153846156,0.8269230769230769,0.42857142857142855,0.8571428571428571,0.0004
116,1.4964029788970947,1.5231304168701172,0.4807692307692308,0.8269230769230769,0.42857142857142855,0.8571428571428571,0.0004
117,1.4067453145980835,1.5918666124343872,0.6153846153846154,0.8269230769230769,0.42857142857142855,0.8571428571428571,0.0004
118,1.4936058521270752,1.532959222793579,0.4423076923076923,0.8269230769230769,0.5,0.8571428571428571,0.0004
119,1.4431785345077515,1.6029338836669922,0.4230769230769231,0.8269230769230769,0.35714285714285715,0.8571428571428571,0.0004
120,1.4859607219696045,1.6688356399536133,0.5,0.8269230769230769,0.35714285714285715,0.8571428571428571,0.0004
121,1.4906284809112549,1.5669102668762207,0.5,0.8269230769230769,0.2857142857142857,0.8571428571428571,0.0004
122,1.5021243691444397,1.5108673572540283,0.46153846153846156,0.8269230769230769,0.35714285714285715,0.8571428571428571,0.0004
123,1.4580575227737427,1.612684726715088,0.5769230769230769,0.8269230769230769,0.21428571428571427,0.8571428571428571,0.0004
124,1.5345369577407837,1.8304003477096558,0.46153846153846156,0.8269230769230769,0.21428571428571427,0.8571428571428571,0.0004
125,1.5145531296730042,1.4740993976593018,0.46153846153846156,0.8076923076923077,0.42857142857142855,0.8571428571428571,0.0004
126,1.4457688331604004,1.5374221801757812,0.5,0.8269230769230769,0.2857142857142857,0.8571428571428571,0.0004
127,1.4077784419059753,1.5438117980957031,0.46153846153846156,0.8076923076923077,0.2857142857142857,0.8571428571428571,0.0004
128,1.4069090485572815,1.5789296627044678,0.5192307692307693,0.8269230769230769,0.5,0.8571428571428571,0.0004
129,1.3881027698516846,1.6612403392791748,0.4423076923076923,0.8269230769230769,0.21428571428571427,0.8571428571428571,0.0004
130,1.46970796585083,1.5504863262176514,0.5192307692307693,0.8269230769230769,0.5714285714285714,0.8571428571428571,0.0004
131,1.4115843176841736,1.7874860763549805,0.5,0.8269230769230769,0.2857142857142857,0.8571428571428571,0.0004
132,1.3978768587112427,1.6414896249771118,0.5192307692307693,0.8269230769230769,0.2857142857142857,0.8571428571428571,0.0004
133,1.6042594909667969,1.3640347719192505,0.38461538461538464,0.8269230769230769,0.5714285714285714,0.8571428571428571,0.0004
134,1.5496399402618408,1.4670461416244507,0.40384615384615385,0.8269230769230769,0.5,0.8571428571428571,0.0004
135,1.5358178615570068,1.5445963144302368,0.2692307692307692,0.8269230769230769,0.2857142857142857,0.8571428571428571,0.0004
136,1.612144112586975,1.4863204956054688,0.34615384615384615,0.8269230769230769,0.42857142857142855,0.8571428571428571,0.0004
137,1.5861772894859314,1.5281028747558594,0.40384615384615385,0.8269230769230769,0.35714285714285715,0.8571428571428571,0.0004
138,1.5212510824203491,1.5607855319976807,0.40384615384615385,0.8269230769230769,0.42857142857142855,0.8571428571428571,0.0004
139,1.554093599319458,1.5644199848175049,0.4807692307692308,0.8269230769230769,0.42857142857142855,0.8571428571428571,0.0004
140,1.540418028831482,1.602737307548523,0.4807692307692308,0.8269230769230769,0.42857142857142855,0.8571428571428571,0.0004
141,1.534799575805664,1.6127266883850098,0.46153846153846156,0.8269230769230769,0.21428571428571427,0.8571428571428571,0.0004
142,1.5028802752494812,1.579522728919983,0.5384615384615384,0.8269230769230769,0.2857142857142857,0.8571428571428571,0.0004
143,1.5138866901397705,1.6110588312149048,0.4230769230769231,0.8076923076923077,0.21428571428571427,0.8571428571428571,0.0004
144,1.547218143939972,1.5803331136703491,0.4807692307692308,0.8269230769230769,0.21428571428571427,0.8571428571428571,0.0004
145,1.4953486323356628,1.6004306077957153,0.34615384615384615,0.8269230769230769,0.35714285714285715,0.8571428571428571,0.0004
146,1.4190531969070435,1.5705854892730713,0.5,0.8269230769230769,0.2857142857142857,0.8571428571428571,0.0004
147,1.4585323333740234,1.6121022701263428,0.5,0.8269230769230769,0.2857142857142857,0.8571428571428571,0.0004
148,1.407093346118927,1.5704476833343506,0.5192307692307693,0.8269230769230769,0.5,0.8571428571428571,0.0004
149,1.5022470951080322,1.5738805532455444,0.5192307692307693,0.8269230769230769,0.42857142857142855,0.8571428571428571,0.0004
150,1.4536646604537964,1.552849531173706,0.4230769230769231,0.8269230769230769,0.42857142857142855,0.8571428571428571,0.0004
151,1.5201311111450195,1.5119539499282837,0.38461538461538464,0.8269230769230769,0.5714285714285714,0.8571428571428571,0.0004
152,1.4531806111335754,1.5610086917877197,0.46153846153846156,0.8269230769230769,0.5,0.8571428571428571,0.0004
153,1.471442699432373,1.5123097896575928,0.40384615384615385,0.8269230769230769,0.5,0.8571428571428571,0.0004
154,1.426650047302246,1.525192379951477,0.5769230769230769,0.8269230769230769,0.35714285714285715,0.8571428571428571,0.0004
155,1.486193299293518,1.5560647249221802,0.46153846153846156,0.8076923076923077,0.5714285714285714,0.8571428571428571,0.0004
156,1.4039711356163025,1.583094835281372,0.46153846153846156,0.8461538461538461,0.2857142857142857,0.8571428571428571,0.0004
157,1.4472965002059937,1.4996984004974365,0.5,0.8653846153846154,0.5,0.8571428571428571,0.0004
158,1.4631280303001404,1.5692780017852783,0.46153846153846156,0.8269230769230769,0.35714285714285715,0.8571428571428571,0.0004
159,1.3688791394233704,1.4537054300308228,0.5576923076923077,0.8076923076923077,0.5,0.8571428571428571,0.0004
160,1.4512022137641907,1.4972881078720093,0.46153846153846156,0.8269230769230769,0.5,0.8571428571428571,0.0004
161,1.459691047668457,1.446822166442871,0.4423076923076923,0.8461538461538461,0.5714285714285714,0.8571428571428571,0.0004
162,1.4194368720054626,1.5770761966705322,0.6346153846153846,0.8076923076923077,0.42857142857142855,0.8571428571428571,0.0004
163,1.5020840764045715,1.588657021522522,0.4230769230769231,0.8269230769230769,0.5,0.8571428571428571,0.0004
164,1.5371071100234985,1.557798147201538,0.4807692307692308,0.8461538461538461,0.42857142857142855,0.8571428571428571,0.0004
165,1.4433833956718445,1.5159062147140503,0.5192307692307693,0.8269230769230769,0.35714285714285715,0.8571428571428571,0.0004
166,1.5514091849327087,1.3584165573120117,0.38461538461538464,0.8269230769230769,0.6428571428571429,0.8571428571428571,0.0004
167,1.4332775473594666,1.4622290134429932,0.46153846153846156,0.8269230769230769,0.5714285714285714,0.8571428571428571,0.0004
168,1.4305658340454102,1.4366878271102905,0.46153846153846156,0.8269230769230769,0.5,0.8571428571428571,0.0004
169,1.4887226223945618,1.5583958625793457,0.4230769230769231,0.8076923076923077,0.2857142857142857,0.8571428571428571,0.0004
170,1.439285933971405,1.5028690099716187,0.4807692307692308,0.8076923076923077,0.5714285714285714,0.8571428571428571,0.0004
171,1.5093480348587036,1.5049409866333008,0.40384615384615385,0.8461538461538461,0.5,0.8571428571428571,0.0004
172,1.3822109699249268,1.6375362873077393,0.5,0.8269230769230769,0.42857142857142855,0.8571428571428571,0.0004
173,1.4601343274116516,1.5687228441238403,0.5,0.8269230769230769,0.5,0.8571428571428571,0.0004
174,1.6484241485595703,1.548450231552124,0.3269230769230769,0.8269230769230769,0.5,0.8571428571428571,0.0004
175,1.4109697341918945,1.5491321086883545,0.4423076923076923,0.8076923076923077,0.42857142857142855,0.8571428571428571,0.0004
176,1.3639649152755737,1.722717523574829,0.5192307692307693,0.8269230769230769,0.21428571428571427,0.8571428571428571,0.0004
177,1.4967893958091736,1.5818418264389038,0.46153846153846156,0.8076923076923077,0.35714285714285715,0.8571428571428571,0.0004
178,1.4690313935279846,1.5696375370025635,0.4423076923076923,0.8269230769230769,0.35714285714285715,0.8571428571428571,0.0004
179,1.40323805809021,1.6447422504425049,0.4807692307692308,0.8461538461538461,0.2857142857142857,0.8571428571428571,0.0004
180,1.4773771166801453,1.403428077697754,0.46153846153846156,0.8269230769230769,0.42857142857142855,0.8571428571428571,0.0004
181,1.2734498977661133,1.5185954570770264,0.5,0.8653846153846154,0.35714285714285715,0.8571428571428571,0.0004
182,1.3742772936820984,1.5752726793289185,0.4807692307692308,0.8269230769230769,0.21428571428571427,0.8571428571428571,0.0004
183,1.4103325009346008,1.4788011312484741,0.46153846153846156,0.8461538461538461,0.42857142857142855,0.8571428571428571,0.0004
184,1.3503979444503784,1.5210211277008057,0.5192307692307693,0.8269230769230769,0.35714285714285715,0.8571428571428571,0.0004
185,1.501415729522705,1.5303739309310913,0.4230769230769231,0.8269230769230769,0.42857142857142855,0.8571428571428571,0.0004
186,1.4242597222328186,1.4758613109588623,0.5576923076923077,0.8269230769230769,0.42857142857142855,0.8571428571428571,0.0004
187,1.388062596321106,1.5802947282791138,0.5384615384615384,0.8269230769230769,0.42857142857142855,0.8571428571428571,0.0004
188,1.3266030550003052,1.6246837377548218,0.5192307692307693,0.8269230769230769,0.2857142857142857,0.8571428571428571,0.0004
189,1.4140432476997375,1.5580041408538818,0.4423076923076923,0.8269230769230769,0.35714285714285715,0.8571428571428571,0.0004
190,1.4985947012901306,1.5228445529937744,0.5,0.8269230769230769,0.35714285714285715,0.8571428571428571,0.0004
191,1.4963342547416687,1.5429372787475586,0.4807692307692308,0.8076923076923077,0.42857142857142855,0.8571428571428571,0.0004
192,1.4254525899887085,1.4793297052383423,0.5,0.8076923076923077,0.35714285714285715,0.8571428571428571,0.0004
193,1.3685384392738342,1.586583137512207,0.5384615384615384,0.8461538461538461,0.2857142857142857,0.8571428571428571,0.0004
194,1.3380345702171326,1.476348876953125,0.5961538461538461,0.7692307692307693,0.5,0.8571428571428571,0.0004
195,1.5009767413139343,1.6393752098083496,0.4807692307692308,0.8269230769230769,0.21428571428571427,0.8571428571428571,0.0004
196,1.4776966571807861,1.5549736022949219,0.5,0.8461538461538461,0.42857142857142855,0.8571428571428571,0.0004
197,1.395585536956787,1.4127267599105835,0.4807692307692308,0.8076923076923077,0.5,0.8571428571428571,0.0004
198,1.315041720867157,1.5362828969955444,0.5384615384615384,0.8076923076923077,0.35714285714285715,0.8571428571428571,0.0004
199,1.4208987951278687,1.3437976837158203,0.4807692307692308,0.8269230769230769,0.5,0.8571428571428571,0.0004
200,1.4150050282478333,1.454474925994873,0.4807692307692308,0.8269230769230769,0.42857142857142855,0.8571428571428571,0.0004
201,1.4219003319740295,1.4845209121704102,0.5192307692307693,0.8076923076923077,0.35714285714285715,0.8571428571428571,0.0004
202,1.4296135902404785,1.6282703876495361,0.5,0.8076923076923077,0.42857142857142855,0.8571428571428571,0.0004
203,1.287552297115326,1.5324041843414307,0.5384615384615384,0.8461538461538461,0.5,0.8571428571428571,0.0004
204,1.4839641451835632,1.4836843013763428,0.4807692307692308,0.7884615384615384,0.5,0.8571428571428571,0.0004
205,1.3680396676063538,1.457195520401001,0.5384615384615384,0.8269230769230769,0.6428571428571429,0.8571428571428571,0.0004
206,1.4092430472373962,1.410879373550415,0.46153846153846156,0.8461538461538461,0.5,0.8571428571428571,0.0004
207,1.3331564664840698,1.5761022567749023,0.5,0.8269230769230769,0.42857142857142855,0.8571428571428571,0.0004
208,1.5079290270805359,1.5238237380981445,0.5384615384615384,0.8461538461538461,0.42857142857142855,0.8571428571428571,0.0004
209,1.383015215396881,1.5682178735733032,0.5576923076923077,0.8269230769230769,0.35714285714285715,0.8571428571428571,0.0004
210,1.4825151562690735,1.639026165008545,0.5192307692307693,0.7884615384615384,0.35714285714285715,0.8571428571428571,0.0004
211,1.4423094987869263,1.4832512140274048,0.5576923076923077,0.8269230769230769,0.42857142857142855,0.8571428571428571,0.0004
212,1.3927448987960815,1.5462112426757812,0.5576923076923077,0.8269230769230769,0.35714285714285715,0.8571428571428571,0.0004
213,1.348487675189972,1.4365113973617554,0.5769230769230769,0.8653846153846154,0.42857142857142855,0.8571428571428571,0.0004
214,1.4694570302963257,1.46671724319458,0.4423076923076923,0.8076923076923077,0.5,0.8571428571428571,0.0004
215,1.3605421781539917,1.26078200340271,0.4423076923076923,0.8269230769230769,0.5714285714285714,0.8571428571428571,0.0004
216,1.601368248462677,1.574566125869751,0.46153846153846156,0.8076923076923077,0.35714285714285715,0.8571428571428571,0.0004
217,1.4722133874893188,1.4578876495361328,0.4807692307692308,0.8076923076923077,0.5,0.8571428571428571,0.0004
218,1.3781709671020508,1.5420799255371094,0.5769230769230769,0.8653846153846154,0.42857142857142855,0.8571428571428571,0.0004
219,1.50271475315094,1.3753106594085693,0.4423076923076923,0.8269230769230769,0.5,0.8571428571428571,0.0004
220,1.4738540053367615,1.4005539417266846,0.46153846153846156,0.8269230769230769,0.5,0.8571428571428571,0.0004
221,1.3976035714149475,1.382429838180542,0.4423076923076923,0.8461538461538461,0.5,0.8571428571428571,0.0004
222,1.4469600915908813,1.543190360069275,0.5576923076923077,0.8269230769230769,0.42857142857142855,0.8571428571428571,0.0004
223,1.4419355392456055,1.4906316995620728,0.5384615384615384,0.8076923076923077,0.42857142857142855,0.8571428571428571,0.0004
224,1.3835631012916565,1.4616773128509521,0.5384615384615384,0.8461538461538461,0.42857142857142855,0.8571428571428571,0.0004
225,1.4371240735054016,1.5186306238174438,0.4807692307692308,0.8076923076923077,0.42857142857142855,0.8571428571428571,0.0004
226,1.4572170972824097,1.4581102132797241,0.40384615384615385,0.8653846153846154,0.42857142857142855,0.8571428571428571,0.0004
227,1.5213321447372437,1.4929821491241455,0.4230769230769231,0.8269230769230769,0.5,0.8571428571428571,0.0004
228,1.4336604475975037,1.5611608028411865,0.5192307692307693,0.8269230769230769,0.42857142857142855,0.8571428571428571,0.0004
229,1.439777433872223,1.43240225315094,0.5384615384615384,0.8269230769230769,0.35714285714285715,0.8571428571428571,0.0004
230,1.5410669445991516,1.427170753479004,0.4230769230769231,0.8269230769230769,0.5,0.8571428571428571,0.0004
231,1.4033990502357483,1.5949350595474243,0.5576923076923077,0.8269230769230769,0.42857142857142855,0.8571428571428571,0.0004
232,1.4622724652290344,1.5187404155731201,0.4230769230769231,0.8461538461538461,0.42857142857142855,0.8571428571428571,0.0004
233,1.5541102290153503,1.4778833389282227,0.40384615384615385,0.8076923076923077,0.5,0.8571428571428571,0.0004
234,1.4338261485099792,1.5542786121368408,0.46153846153846156,0.8269230769230769,0.35714285714285715,0.8571428571428571,0.0004
235,1.3919636607170105,1.4612692594528198,0.5,0.8269230769230769,0.42857142857142855,0.8571428571428571,0.0004
236,1.457594096660614,1.572900414466858,0.5384615384615384,0.8269230769230769,0.35714285714285715,0.8571428571428571,0.0004
237,1.4687710404396057,1.597348690032959,0.4807692307692308,0.8269230769230769,0.21428571428571427,0.8571428571428571,0.0004
238,1.528248131275177,1.6091573238372803,0.40384615384615385,0.8269230769230769,0.21428571428571427,0.8571428571428571,0.0004
239,1.4225924015045166,1.5167405605316162,0.5576923076923077,0.8076923076923077,0.42857142857142855,0.8571428571428571,0.0004
240,1.3670589327812195,1.6143643856048584,0.5961538461538461,0.8269230769230769,0.2857142857142857,0.8571428571428571,0.0004
241,1.4973739981651306,1.4692206382751465,0.5384615384615384,0.8269230769230769,0.5,0.8571428571428571,0.0004
242,1.3545228242874146,1.5727035999298096,0.5576923076923077,0.8269230769230769,0.2857142857142857,0.8571428571428571,0.0004
243,1.4864805936813354,1.3998993635177612,0.5576923076923077,0.8269230769230769,0.6428571428571429,0.8571428571428571,0.0004
244,1.2723845839500427,1.5324711799621582,0.5961538461538461,0.8269230769230769,0.5,0.8571428571428571,0.0004
245,1.3808448314666748,1.5004016160964966,0.5192307692307693,0.8269230769230769,0.35714285714285715,0.8571428571428571,0.0004
246,1.3572952151298523,1.6702467203140259,0.5769230769230769,0.8269230769230769,0.21428571428571427,0.8571428571428571,0.0004
247,1.382933795452118,1.5725034475326538,0.4807692307692308,0.8076923076923077,0.35714285714285715,0.8571428571428571,0.0004
248,1.4009692072868347,1.5915403366088867,0.46153846153846156,0.8269230769230769,0.35714285714285715,0.8571428571428571,0.0004
249,1.439525842666626,1.5528777837753296,0.4423076923076923,0.8269230769230769,0.2857142857142857,0.8571428571428571,0.0004
250,1.4715981483459473,1.567403793334961,0.4807692307692308,0.8269230769230769,0.35714285714285715,0.8571428571428571,0.0004
251,1.4175022840499878,1.4200692176818848,0.46153846153846156,0.8269230769230769,0.5714285714285714,0.8571428571428571,0.0004
252,1.2423091530799866,1.4905846118927002,0.5576923076923077,0.8461538461538461,0.35714285714285715,0.8571428571428571,0.0004
253,1.3487840294837952,1.2884031534194946,0.5576923076923077,0.8076923076923077,0.5714285714285714,0.8571428571428571,0.0004
254,1.2703115940093994,1.4070016145706177,0.6346153846153846,0.8076923076923077,0.5,0.8571428571428571,0.0004
255,1.3883607983589172,1.6125985383987427,0.4807692307692308,0.8076923076923077,0.42857142857142855,0.8571428571428571,0.0004
256,1.333437204360962,1.6444087028503418,0.6153846153846154,0.8269230769230769,0.5,0.8571428571428571,0.0004
257,1.445573329925537,1.5431660413742065,0.46153846153846156,0.8461538461538461,0.42857142857142855,0.8571428571428571,0.0004
258,1.4645544290542603,1.375489354133606,0.5384615384615384,0.8076923076923077,0.5714285714285714,0.8571428571428571,0.0004
259,1.2851764559745789,1.5318915843963623,0.6346153846153846,0.8269230769230769,0.35714285714285715,0.8571428571428571,0.0004
260,1.3892987966537476,1.3579840660095215,0.5769230769230769,0.8461538461538461,0.6428571428571429,0.8571428571428571,0.0004
261,1.232250154018402,1.3355242013931274,0.6346153846153846,0.8076923076923077,0.6428571428571429,0.8571428571428571,0.0004
262,1.2587260007858276,1.5415072441101074,0.5384615384615384,0.8461538461538461,0.5,0.8571428571428571,0.0004
263,1.4408757090568542,1.4560729265213013,0.4807692307692308,0.8269230769230769,0.5,0.8571428571428571,0.0004
264,1.3468846678733826,1.346153974533081,0.5576923076923077,0.8269230769230769,0.6428571428571429,0.8571428571428571,0.0004
265,1.215076208114624,1.423262119293213,0.6153846153846154,0.8269230769230769,0.5,0.8571428571428571,0.0004
266,1.3583252429962158,1.7530585527420044,0.5,0.8269230769230769,0.21428571428571427,0.8571428571428571,0.0004
267,1.4128236770629883,1.3800203800201416,0.5,0.8269230769230769,0.42857142857142855,0.8571428571428571,0.0004
268,1.3119558095932007,1.3291146755218506,0.5769230769230769,0.8461538461538461,0.7142857142857143,0.8571428571428571,0.0004
269,1.3070278763771057,1.4155147075653076,0.5769230769230769,0.8269230769230769,0.42857142857142855,0.8571428571428571,0.0004
270,1.3111443519592285,1.4243073463439941,0.5961538461538461,0.8076923076923077,0.5714285714285714,0.8571428571428571,0.0004
271,1.4211995601654053,1.8324826955795288,0.4807692307692308,0.8269230769230769,0.21428571428571427,0.8571428571428571,0.0004
272,1.4252872467041016,1.3074591159820557,0.5,0.8076923076923077,0.5,0.8571428571428571,0.0004
273,1.3195615410804749,1.5732338428497314,0.5384615384615384,0.8269230769230769,0.35714285714285715,0.8571428571428571,0.0004
274,1.4208675622940063,1.5797734260559082,0.4807692307692308,0.8461538461538461,0.2857142857142857,0.8571428571428571,0.0004
275,1.4272576570510864,1.6707968711853027,0.4230769230769231,0.8076923076923077,0.35714285714285715,0.8571428571428571,0.0004
276,1.4000057578086853,1.5256459712982178,0.5576923076923077,0.8269230769230769,0.42857142857142855,0.8571428571428571,0.0004
277,1.4030340313911438,1.3222163915634155,0.5192307692307693,0.8076923076923077,0.5,0.8571428571428571,0.0004
278,1.423531174659729,1.3025456666946411,0.4807692307692308,0.8269230769230769,0.5,0.8571428571428571,0.0004
279,1.4719029664993286,1.549040675163269,0.4423076923076923,0.8269230769230769,0.2857142857142857,0.8571428571428571,0.0004
280,1.4168345928192139,1.4895273447036743,0.4423076923076923,0.8461538461538461,0.42857142857142855,0.8571428571428571,0.0004
281,1.4201953411102295,1.433009386062622,0.4230769230769231,0.8269230769230769,0.42857142857142855,0.8571428571428571,0.0004
282,1.414418339729309,1.4425197839736938,0.4423076923076923,0.8269230769230769,0.2857142857142857,0.8571428571428571,0.0004
283,1.3422045707702637,1.3987575769424438,0.5,0.8269230769230769,0.5,0.8571428571428571,0.0004
284,1.4726019501686096,1.4949593544006348,0.4230769230769231,0.8269230769230769,0.35714285714285715,0.8571428571428571,0.0004
285,1.3988078236579895,1.4927618503570557,0.4807692307692308,0.8269230769230769,0.42857142857142855,0.8571428571428571,0.0004
286,1.3737661242485046,1.484431266784668,0.5192307692307693,0.8076923076923077,0.2857142857142857,0.8571428571428571,0.0004
287,1.342114508152008,1.4968278408050537,0.5576923076923077,0.8653846153846154,0.35714285714285715,0.8571428571428571,0.0004
288,1.308139681816101,1.5282196998596191,0.4807692307692308,0.8269230769230769,0.35714285714285715,0.8571428571428571,0.0004
289,1.3908774256706238,1.4911086559295654,0.4423076923076923,0.8076923076923077,0.42857142857142855,0.8571428571428571,0.0004
290,1.3637170791625977,1.261507511138916,0.5192307692307693,0.8269230769230769,0.6428571428571429,0.8571428571428571,0.0004
291,1.2969907522201538,1.6142258644104004,0.5384615384615384,0.8076923076923077,0.35714285714285715,0.8571428571428571,0.0004
292,1.642625868320465,1.6399333477020264,0.5,0.8461538461538461,0.42857142857142855,0.8571428571428571,0.0004
293,1.4531992673873901,1.3046261072158813,0.4807692307692308,0.8076923076923077,0.6428571428571429,0.8571428571428571,0.0004
294,1.5244502425193787,1.2778337001800537,0.5576923076923077,0.8269230769230769,0.6428571428571429,0.8571428571428571,0.0004
295,1.4176672101020813,1.4490175247192383,0.5384615384615384,0.8269230769230769,0.5,0.8571428571428571,0.0004
296,1.4125432968139648,1.5059359073638916,0.5,0.8269230769230769,0.42857142857142855,0.8571428571428571,0.0004
297,1.3114870190620422,1.4989955425262451,0.5769230769230769,0.8461538461538461,0.2857142857142857,0.8571428571428571,0.0004
298,1.3971515893936157,1.4401507377624512,0.4423076923076923,0.8269230769230769,0.35714285714285715,0.8571428571428571,0.0004
299,1.4245209693908691,1.463602900505066,0.4807692307692308,0.8269230769230769,0.42857142857142855,0.8571428571428571,0.0004
300,1.481716513633728,1.5585839748382568,0.4807692307692308,0.8269230769230769,0.21428571428571427,0.8571428571428571,0.0004
301,1.4407087564468384,1.456895351409912,0.46153846153846156,0.8269230769230769,0.5714285714285714,0.8571428571428571,0.0004
302,1.424414575099945,1.477826476097107,0.4423076923076923,0.8269230769230769,0.5,0.8571428571428571,0.0004
303,1.542895793914795,1.5122647285461426,0.5192307692307693,0.8269230769230769,0.42857142857142855,0.8571428571428571,0.0004
304,1.5716277360916138,1.4954659938812256,0.4807692307692308,0.8269230769230769,0.35714285714285715,0.8571428571428571,0.0004
305,1.558361828327179,1.378373622894287,0.5192307692307693,0.8269230769230769,0.5714285714285714,0.8571428571428571,0.0004
306,1.460599958896637,1.475374698638916,0.4807692307692308,0.8269230769230769,0.5,0.8571428571428571,0.0004
307,1.4311816692352295,1.4527891874313354,0.5576923076923077,0.8269230769230769,0.5,0.8571428571428571,0.0004
308,1.473757266998291,1.5392887592315674,0.4807692307692308,0.8269230769230769,0.21428571428571427,0.8571428571428571,0.0004
309,1.4734416604042053,1.5209214687347412,0.5576923076923077,0.8269230769230769,0.35714285714285715,0.8571428571428571,0.0004
310,1.4129140377044678,1.4657108783721924,0.5,0.8269230769230769,0.5,0.8571428571428571,0.0004
311,1.4830252528190613,1.6250438690185547,0.4807692307692308,0.8269230769230769,0.2857142857142857,0.8571428571428571,0.0004
312,1.5299794673919678,1.5294321775436401,0.40384615384615385,0.8269230769230769,0.35714285714285715,0.8571428571428571,0.0004
313,1.4306511282920837,1.5724518299102783,0.38461538461538464,0.8269230769230769,0.2857142857142857,0.8571428571428571,0.0004
314,1.5275590419769287,1.520999550819397,0.38461538461538464,0.8269230769230769,0.35714285714285715,0.8571428571428571,0.0004
315,1.3715895414352417,1.4476144313812256,0.5961538461538461,0.8269230769230769,0.42857142857142855,0.8571428571428571,0.0004
316,1.5289344787597656,1.4556941986083984,0.4230769230769231,0.8269230769230769,0.35714285714285715,0.8571428571428571,0.0004
317,1.4468651413917542,1.4642300605773926,0.5384615384615384,0.8269230769230769,0.35714285714285715,0.8571428571428571,0.0004
318,1.4046952724456787,1.4768381118774414,0.5192307692307693,0.8269230769230769,0.35714285714285715,0.8571428571428571,0.0004
319,1.5093277096748352,1.5161491632461548,0.36538461538461536,0.8269230769230769,0.42857142857142855,0.8571428571428571,0.0004
320,1.4664173126220703,1.5456095933914185,0.4423076923076923,0.8269230769230769,0.2857142857142857,0.8571428571428571,0.0004
321,1.370503842830658,1.620194911956787,0.6538461538461539,0.8269230769230769,0.21428571428571427,0.8571428571428571,0.0004
322,1.5688660144805908,1.4101057052612305,0.5769230769230769,0.8269230769230769,0.5714285714285714,0.8571428571428571,0.0004
323,1.4721114039421082,1.5551998615264893,0.46153846153846156,0.8269230769230769,0.21428571428571427,0.8571428571428571,0.0004
324,1.4983298778533936,1.49469792842865,0.46153846153846156,0.8269230769230769,0.35714285714285715,0.8571428571428571,0.0004
325,1.4069581031799316,1.4681482315063477,0.4807692307692308,0.8269230769230769,0.2857142857142857,0.8571428571428571,0.0004
326,1.3677998781204224,1.4322413206100464,0.5769230769230769,0.8269230769230769,0.42857142857142855,0.8571428571428571,0.0004
327,1.3939357995986938,1.5377154350280762,0.5,0.8269230769230769,0.42857142857142855,0.8571428571428571,0.0004
328,1.4307847023010254,1.4019497632980347,0.46153846153846156,0.8269230769230769,0.42857142857142855,0.8571428571428571,0.0004
329,1.4028772115707397,1.4537813663482666,0.5384615384615384,0.8269230769230769,0.42857142857142855,0.8571428571428571,0.0004
330,1.4030097723007202,1.5149272680282593,0.4807692307692308,0.8269230769230769,0.35714285714285715,0.8571428571428571,0.0004
331,1.4240447878837585,1.4528206586837769,0.46153846153846156,0.8269230769230769,0.42857142857142855,0.8571428571428571,0.0004
332,1.3286466598510742,1.409258246421814,0.5,0.8269230769230769,0.42857142857142855,0.8571428571428571,0.0004
333,1.3833799958229065,1.548126220703125,0.4807692307692308,0.8269230769230769,0.5,0.8571428571428571,0.0004
334,1.3527125120162964,1.3476135730743408,0.46153846153846156,0.8269230769230769,0.5,0.8571428571428571,0.0004
335,1.3949189186096191,1.665992259979248,0.5769230769230769,0.8269230769230769,0.2857142857142857,0.8571428571428571,0.0004
336,1.4128491878509521,1.633970022201538,0.4807692307692308,0.8269230769230769,0.2857142857142857,0.8571428571428571,0.0004
337,1.4369942545890808,1.4667237997055054,0.5,0.8269230769230769,0.42857142857142855,0.8571428571428571,0.0004
338,1.4142608642578125,1.379765510559082,0.46153846153846156,0.8269230769230769,0.6428571428571429,0.8571428571428571,0.0004
339,1.456756353378296,1.5562734603881836,0.4807692307692308,0.8269230769230769,0.35714285714285715,0.8571428571428571,0.0004
340,1.5724844336509705,1.356208324432373,0.3269230769230769,0.8269230769230769,0.6428571428571429,0.8571428571428571,0.0004
341,1.4098917245864868,1.3931148052215576,0.5192307692307693,0.8269230769230769,0.5714285714285714,0.8571428571428571,0.0004
342,1.4159266948699951,1.427237629890442,0.4807692307692308,0.8269230769230769,0.5,0.8571428571428571,0.0004
343,1.452550232410431,1.6164273023605347,0.5,0.8269230769230769,0.5,0.8571428571428571,0.0004
344,1.453769326210022,1.4913043975830078,0.5769230769230769,0.8269230769230769,0.5714285714285714,0.8571428571428571,0.0004
345,1.2972936034202576,1.4435923099517822,0.5192307692307693,0.8269230769230769,0.5,0.8571428571428571,0.0004
346,1.3175146579742432,1.5182985067367554,0.5961538461538461,0.8269230769230769,0.35714285714285715,0.8571428571428571,0.0004
347,1.3166384100914001,1.532277226448059,0.5576923076923077,0.8269230769230769,0.42857142857142855,0.8571428571428571,0.0004
348,1.4236512184143066,1.6785037517547607,0.4423076923076923,0.8269230769230769,0.2857142857142857,0.8571428571428571,0.0004
349,1.4663909673690796,1.4397159814834595,0.46153846153846156,0.8269230769230769,0.5,0.8571428571428571,0.0004
350,1.3792831301689148,1.5461804866790771,0.5769230769230769,0.8269230769230769,0.35714285714285715,0.8571428571428571,0.0004
351,1.4089009165763855,1.479615569114685,0.46153846153846156,0.8269230769230769,0.42857142857142855,0.8571428571428571,0.0004
352,1.4819995164871216,1.4318482875823975,0.4423076923076923,0.8269230769230769,0.5,0.8571428571428571,0.0004
353,1.3780072331428528,1.3523554801940918,0.5961538461538461,0.8269230769230769,0.6428571428571429,0.8571428571428571,0.0004
354,1.3790384531021118,1.3987021446228027,0.6346153846153846,0.8269230769230769,0.5,0.8571428571428571,0.0004
355,1.385102391242981,1.534632921218872,0.5576923076923077,0.8269230769230769,0.35714285714285715,0.8571428571428571,0.0004
356,1.3232043981552124,1.5377094745635986,0.6538461538461539,0.8269230769230769,0.2857142857142857,0.8571428571428571,0.0004
357,1.4195152521133423,1.405677080154419,0.5769230769230769,0.8269230769230769,0.42857142857142855,0.8571428571428571,0.0004
358,1.5278820395469666,1.6006858348846436,0.38461538461538464,0.8269230769230769,0.42857142857142855,0.8571428571428571,0.0004
359,1.3476682305335999,1.4484107494354248,0.5384615384615384,0.8269230769230769,0.5714285714285714,0.8571428571428571,0.0004
360,1.4958449006080627,1.4113892316818237,0.4423076923076923,0.8269230769230769,0.6428571428571429,0.8571428571428571,0.0004
361,1.4274859428405762,1.5646920204162598,0.4807692307692308,0.8269230769230769,0.42857142857142855,0.8571428571428571,0.0004
362,1.3547349572181702,1.5738288164138794,0.5384615384615384,0.8269230769230769,0.35714285714285715,0.8571428571428571,0.0004
363,1.4573174715042114,1.6269586086273193,0.40384615384615385,0.8269230769230769,0.35714285714285715,0.8571428571428571,0.0004
364,1.3910179734230042,1.4540600776672363,0.4230769230769231,0.8269230769230769,0.42857142857142855,0.8571428571428571,0.0004
365,1.3343127369880676,1.5048493146896362,0.5576923076923077,0.8269230769230769,0.42857142857142855,0.8571428571428571,0.0004
366,1.3624924421310425,1.4720330238342285,0.5769230769230769,0.8269230769230769,0.42857142857142855,0.8571428571428571,0.0004
367,1.442805290222168,1.4882142543792725,0.46153846153846156,0.8269230769230769,0.2857142857142857,0.8571428571428571,0.0004
368,1.590476930141449,1.5193185806274414,0.46153846153846156,0.8269230769230769,0.42857142857142855,0.8571428571428571,0.0004
369,1.5360087156295776,1.4938170909881592,0.5,0.8269230769230769,0.2857142857142857,0.8571428571428571,0.0004
370,1.4811937808990479,1.3948159217834473,0.38461538461538464,0.8269230769230769,0.5,0.8571428571428571,0.0004
371,1.3712410926818848,1.5183944702148438,0.5384615384615384,0.8269230769230769,0.5,0.8571428571428571,0.0004
372,1.4628040194511414,1.4806174039840698,0.46153846153846156,0.8269230769230769,0.42857142857142855,0.8571428571428571,0.0004
373,1.4462403655052185,1.555976152420044,0.4230769230769231,0.8269230769230769,0.42857142857142855,0.8571428571428571,0.0004
374,1.3697280287742615,1.5388556718826294,0.5769230769230769,0.8269230769230769,0.14285714285714285,0.8571428571428571,0.0004
375,1.4743051528930664,1.5562403202056885,0.4423076923076923,0.8269230769230769,0.35714285714285715,0.8571428571428571,0.0004
376,1.3189831972122192,1.425205945968628,0.5769230769230769,0.8269230769230769,0.5,0.8571428571428571,0.0004
377,1.4443273544311523,1.4223848581314087,0.5192307692307693,0.8269230769230769,0.5,0.8571428571428571,0.0004
378,1.394928753376007,1.5862505435943604,0.5192307692307693,0.8269230769230769,0.35714285714285715,0.8571428571428571,0.0004
379,1.4172821044921875,1.5582942962646484,0.4423076923076923,0.8269230769230769,0.21428571428571427,0.8571428571428571,0.0004
380,1.3865634202957153,1.4026427268981934,0.4423076923076923,0.8269230769230769,0.35714285714285715,0.8571428571428571,0.0004
381,1.3021948337554932,1.4646003246307373,0.6153846153846154,0.8269230769230769,0.5,0.8571428571428571,0.0004
382,1.3406093120574951,1.4684070348739624,0.5,0.8269230769230769,0.5,0.8571428571428571,0.0004
383,1.534785509109497,1.6116430759429932,0.5192307692307693,0.8269230769230769,0.5,0.8571428571428571,0.0004
384,1.4807192087173462,1.575319528579712,0.5,0.8269230769230769,0.2857142857142857,0.8571428571428571,0.0004
385,1.5274661183357239,1.7338192462921143,0.5,0.8269230769230769,0.35714285714285715,0.8571428571428571,0.0004
386,1.295254647731781,1.434246301651001,0.5576923076923077,0.8269230769230769,0.5,0.8571428571428571,0.0004
387,1.4188798069953918,1.505568504333496,0.5,0.8269230769230769,0.5,0.8571428571428571,0.0004
388,1.4468212127685547,1.4978139400482178,0.5961538461538461,0.8269230769230769,0.42857142857142855,0.8571428571428571,0.0004
389,1.5135422348976135,1.4986189603805542,0.5,0.8269230769230769,0.5,0.8571428571428571,0.0004
390,1.5095367431640625,1.5547077655792236,0.36538461538461536,0.8269230769230769,0.2857142857142857,0.8571428571428571,0.0004
391,1.5258469581604004,1.4472675323486328,0.40384615384615385,0.8269230769230769,0.5714285714285714,0.8571428571428571,0.0004
392,1.5370619297027588,1.4944405555725098,0.4807692307692308,0.8269230769230769,0.5714285714285714,0.8571428571428571,0.0004
393,1.5561994314193726,1.380173683166504,0.4423076923076923,0.8269230769230769,0.5714285714285714,0.8571428571428571,0.0004
394,1.4987378120422363,1.4862743616104126,0.36538461538461536,0.8269230769230769,0.42857142857142855,0.8571428571428571,0.0004
395,1.5700891017913818,1.4883840084075928,0.36538461538461536,0.8269230769230769,0.5714285714285714,0.8571428571428571,0.0004
396,1.562259018421173,1.5055214166641235,0.4423076923076923,0.8269230769230769,0.42857142857142855,0.8571428571428571,0.0004
397,1.524925410747528,1.4926162958145142,0.4230769230769231,0.8269230769230769,0.42857142857142855,0.8571428571428571,0.0004
398,1.5518776774406433,1.430485725402832,0.40384615384615385,0.8269230769230769,0.42857142857142855,0.8571428571428571,0.0004
399,1.5513026714324951,1.4142800569534302,0.34615384615384615,0.8269230769230769,0.35714285714285715,0.8571428571428571,0.0004
400,1.5008599758148193,1.4737374782562256,0.4230769230769231,0.8269230769230769,0.42857142857142855,0.8571428571428571,0.0004
401,1.678904116153717,1.426863193511963,0.40384615384615385,0.8269230769230769,0.5,0.8571428571428571,0.0004
402,1.5857062935829163,1.4771134853363037,0.38461538461538464,0.8269230769230769,0.35714285714285715,0.8571428571428571,0.0004
403,1.5401909351348877,1.5327448844909668,0.4230769230769231,0.8269230769230769,0.5,0.8571428571428571,0.0004
404,1.5786210894584656,1.5474214553833008,0.34615384615384615,0.8269230769230769,0.5,0.8571428571428571,0.0004
405,1.7106575965881348,1.4804120063781738,0.40384615384615385,0.8269230769230769,0.6428571428571429,0.8571428571428571,0.0004
406,1.5000625848770142,1.4778400659561157,0.38461538461538464,0.8269230769230769,0.42857142857142855,0.8571428571428571,0.0004
407,1.6110461354255676,1.6441289186477661,0.4423076923076923,0.8269230769230769,0.42857142857142855,0.8571428571428571,0.0004
408,1.6542084217071533,1.4883615970611572,0.3269230769230769,0.8269230769230769,0.5,0.8571428571428571,0.0004
409,1.5304436087608337,1.42441987991333,0.36538461538461536,0.8269230769230769,0.5,0.8571428571428571,0.0004
410,1.559343934059143,1.4537014961242676,0.40384615384615385,0.8269230769230769,0.42857142857142855,0.8571428571428571,0.0004
411,1.506452739238739,1.35775887966156,0.5,0.8269230769230769,0.5714285714285714,0.8571428571428571,0.0004
412,1.533142864704132,1.4811668395996094,0.38461538461538464,0.8269230769230769,0.42857142857142855,0.8571428571428571,0.0004
413,1.555806577205658,1.5116267204284668,0.34615384615384615,0.8269230769230769,0.21428571428571427,0.8571428571428571,0.0004
414,1.5022572875022888,1.4833471775054932,0.46153846153846156,0.8269230769230769,0.42857142857142855,0.8571428571428571,0.0004
415,1.507586419582367,1.5879271030426025,0.4230769230769231,0.8269230769230769,0.35714285714285715,0.8571428571428571,0.0004
416,1.4959558844566345,1.3729456663131714,0.40384615384615385,0.8269230769230769,0.6428571428571429,0.8571428571428571,0.0004
417,1.4820476174354553,1.4942289590835571,0.5384615384615384,0.8269230769230769,0.42857142857142855,0.8571428571428571,0.0004
418,1.5410913825035095,1.4406509399414062,0.4807692307692308,0.8269230769230769,0.42857142857142855,0.8571428571428571,0.0004
419,1.5479839444160461,1.5558185577392578,0.4423076923076923,0.8269230769230769,0.42857142857142855,0.8571428571428571,0.0004
420,1.5549750328063965,1.4971739053726196,0.5,0.8269230769230769,0.5,0.8571428571428571,0.0004
421,1.5216873288154602,1.5173856019973755,0.5769230769230769,0.8269230769230769,0.35714285714285715,0.8571428571428571,0.0004
422,1.4816301465034485,1.5891207456588745,0.5,0.8269230769230769,0.21428571428571427,0.8571428571428571,0.0004
423,1.5106228590011597,1.5160932540893555,0.4807692307692308,0.8269230769230769,0.35714285714285715,0.8571428571428571,0.0004
424,1.5401929020881653,1.5708885192871094,0.5,0.8269230769230769,0.35714285714285715,0.8571428571428571,0.0004
425,1.5310837030410767,1.5927402973175049,0.5,0.8269230769230769,0.35714285714285715,0.8571428571428571,0.0004
426,1.4932986497879028,1.565685749053955,0.4230769230769231,0.8269230769230769,0.2857142857142857,0.8571428571428571,0.0004
427,1.5184683203697205,1.5095338821411133,0.4230769230769231,0.8269230769230769,0.35714285714285715,0.8571428571428571,0.0004
428,1.524782121181488,1.5333300828933716,0.46153846153846156,0.8269230769230769,0.42857142857142855,0.8571428571428571,0.0004
429,1.4951438307762146,1.5356950759887695,0.38461538461538464,0.8269230769230769,0.5,0.8571428571428571,0.0004
430,1.4975454807281494,1.491824746131897,0.4230769230769231,0.8269230769230769,0.5714285714285714,0.8571428571428571,0.0004
431,1.4640766382217407,1.5636317729949951,0.4230769230769231,0.8269230769230769,0.2857142857142857,0.8571428571428571,0.0004
432,1.4709327816963196,1.5617727041244507,0.5,0.8269230769230769,0.35714285714285715,0.8571428571428571,0.0004
433,1.4489004611968994,1.4277291297912598,0.5192307692307693,0.8269230769230769,0.5714285714285714,0.8571428571428571,0.0004
434,1.439762830734253,1.4089434146881104,0.5961538461538461,0.8269230769230769,0.42857142857142855,0.8571428571428571,0.0004
435,1.5032286047935486,1.4168773889541626,0.4230769230769231,0.8269230769230769,0.5714285714285714,0.8571428571428571,0.0004
436,1.4565297961235046,1.5228545665740967,0.5192307692307693,0.8269230769230769,0.42857142857142855,0.8571428571428571,0.0004
437,1.534893810749054,1.4288506507873535,0.46153846153846156,0.8269230769230769,0.5714285714285714,0.8571428571428571,0.0004
438,1.4609993696212769,1.4579204320907593,0.5,0.8269230769230769,0.5714285714285714,0.8571428571428571,0.0004
439,1.5486459136009216,1.4921209812164307,0.4230769230769231,0.8269230769230769,0.42857142857142855,0.8571428571428571,0.0004
440,1.4947080612182617,1.4815624952316284,0.46153846153846156,0.8269230769230769,0.42857142857142855,0.8571428571428571,0.0004
441,1.4646143913269043,1.5099554061889648,0.46153846153846156,0.8269230769230769,0.2857142857142857,0.8571428571428571,0.0004
442,1.3964980840682983,1.2960939407348633,0.5384615384615384,0.8269230769230769,0.5,0.8571428571428571,0.0004
443,1.5453709959983826,1.409257173538208,0.40384615384615385,0.8269230769230769,0.5714285714285714,0.8571428571428571,0.0004
444,1.4116056561470032,1.5759934186935425,0.5192307692307693,0.8269230769230769,0.35714285714285715,0.8571428571428571,0.0004
445,1.405468761920929,1.5635194778442383,0.6346153846153846,0.8269230769230769,0.35714285714285715,0.8571428571428571,0.0004
446,1.4918144345283508,1.325634241104126,0.5192307692307693,0.8269230769230769,0.5714285714285714,0.8571428571428571,0.0004
447,1.367404043674469,1.432100534439087,0.4423076923076923,0.8269230769230769,0.5,0.8571428571428571,0.0004
448,1.4088990688323975,1.4948147535324097,0.5961538461538461,0.8269230769230769,0.35714285714285715,0.8571428571428571,0.0004
449,1.4386301636695862,1.5208964347839355,0.4807692307692308,0.8269230769230769,0.2857142857142857,0.8571428571428571,0.0004
450,1.4170112013816833,1.4339308738708496,0.5,0.8269230769230769,0.5714285714285714,0.8571428571428571,0.0004
451,1.4492337703704834,1.5674879550933838,0.46153846153846156,0.8269230769230769,0.21428571428571427,0.8571428571428571,0.0004
452,1.4273020029067993,1.431632161140442,0.5,0.8269230769230769,0.42857142857142855,0.8571428571428571,0.0004
453,1.443171501159668,1.3302415609359741,0.5192307692307693,0.8269230769230769,0.5714285714285714,0.8571428571428571,0.0004
454,1.4182724952697754,1.4598848819732666,0.5192307692307693,0.8269230769230769,0.35714285714285715,0.8571428571428571,0.0004
455,1.4301783442497253,1.2436941862106323,0.5,0.8269230769230769,0.5714285714285714,0.8571428571428571,0.0004
456,1.4301904439926147,1.3606605529785156,0.5192307692307693,0.8269230769230769,0.42857142857142855,0.8571428571428571,0.0004
457,1.5015817880630493,1.5133483409881592,0.4230769230769231,0.8269230769230769,0.42857142857142855,0.8571428571428571,0.0004
458,1.4265044927597046,1.5133380889892578,0.5769230769230769,0.8269230769230769,0.5,0.8571428571428571,0.0004
459,1.4296008944511414,1.5087621212005615,0.5192307692307693,0.8269230769230769,0.2857142857142857,0.8571428571428571,0.0004
460,1.4074259996414185,1.5558326244354248,0.5769230769230769,0.8269230769230769,0.35714285714285715,0.8571428571428571,0.0004
461,1.3839480876922607,1.3955386877059937,0.5192307692307693,0.8269230769230769,0.5714285714285714,0.8571428571428571,0.0004
462,1.4303333163261414,1.525685429573059,0.5192307692307693,0.8269230769230769,0.2857142857142857,0.8571428571428571,0.0004
463,1.4432685375213623,1.5014491081237793,0.4423076923076923,0.8269230769230769,0.42857142857142855,0.8571428571428571,0.0004
464,1.4773182272911072,1.5076379776000977,0.4230769230769231,0.8269230769230769,0.5,0.8571428571428571,0.0004
465,1.3944252729415894,1.3917570114135742,0.5576923076923077,0.8269230769230769,0.5,0.8571428571428571,0.0004
466,1.351437747478485,1.5154392719268799,0.5961538461538461,0.8269230769230769,0.35714285714285715,0.8571428571428571,0.0004
467,1.3982247114181519,1.2211709022521973,0.4807692307692308,0.8269230769230769,0.5714285714285714,0.8571428571428571,0.0004
468,1.3534293174743652,1.4931762218475342,0.5384615384615384,0.8269230769230769,0.42857142857142855,0.8571428571428571,0.0004
469,1.220786690711975,1.413466215133667,0.6538461538461539,0.8269230769230769,0.5,0.8571428571428571,0.0004
470,1.406971514225006,1.3899822235107422,0.5384615384615384,0.8269230769230769,0.5,0.8571428571428571,0.0004
471,1.3296308517456055,1.5855424404144287,0.5,0.8269230769230769,0.5,0.8571428571428571,0.0004
472,1.2905308604240417,1.3704360723495483,0.6153846153846154,0.8269230769230769,0.42857142857142855,0.8571428571428571,0.0004
473,1.3240373134613037,1.2539199590682983,0.5192307692307693,0.8269230769230769,0.5,0.8571428571428571,0.0004
474,1.3949555158615112,1.410338282585144,0.46153846153846156,0.8269230769230769,0.42857142857142855,0.8571428571428571,0.0004
475,1.348894476890564,1.4331984519958496,0.5192307692307693,0.8269230769230769,0.42857142857142855,0.8571428571428571,0.0004
476,1.3177557587623596,1.5405343770980835,0.5192307692307693,0.8269230769230769,0.5,0.8571428571428571,0.0004
477,1.4703445434570312,1.4538506269454956,0.4423076923076923,0.8269230769230769,0.2857142857142857,0.8571428571428571,0.0004
478,1.4878152012825012,1.4686158895492554,0.38461538461538464,0.8269230769230769,0.42857142857142855,0.8571428571428571,0.0004
479,1.2539629936218262,1.7509305477142334,0.6153846153846154,0.8269230769230769,0.35714285714285715,0.8571428571428571,0.0004
480,1.328548550605774,1.5488454103469849,0.5192307692307693,0.8269230769230769,0.42857142857142855,0.8571428571428571,0.0004
481,1.3929216265678406,1.9076290130615234,0.5384615384615384,0.8269230769230769,0.35714285714285715,0.8571428571428571,0.0004
482,1.42825585603714,2.0893795490264893,0.46153846153846156,0.8269230769230769,0.35714285714285715,0.8571428571428571,0.0004
483,1.5091065168380737,1.4632782936096191,0.4807692307692308,0.8269230769230769,0.42857142857142855,0.8571428571428571,0.0004
484,1.3757335543632507,2.066580295562744,0.5,0.8269230769230769,0.21428571428571427,0.8571428571428571,0.0004
485,1.4354826211929321,1.5067479610443115,0.4423076923076923,0.8269230769230769,0.35714285714285715,0.8571428571428571,0.0004
486,1.6779157519340515,1.7999464273452759,0.4807692307692308,0.8269230769230769,0.35714285714285715,0.8571428571428571,0.0004
487,2.0094525814056396,1.592254400253296,0.4423076923076923,0.8269230769230769,0.35714285714285715,0.8571428571428571,0.0004
488,1.495571792125702,1.8421483039855957,0.46153846153846156,0.8269230769230769,0.42857142857142855,0.8571428571428571,0.0004
489,1.496770203113556,1.623990774154663,0.4807692307692308,0.8269230769230769,0.2857142857142857,0.8571428571428571,0.0004
490,1.6950812339782715,1.8272268772125244,0.4230769230769231,0.8269230769230769,0.35714285714285715,0.8571428571428571,0.0004
491,1.5899388790130615,1.6714990139007568,0.4807692307692308,0.8269230769230769,0.35714285714285715,0.8571428571428571,0.0004
492,1.7706021070480347,1.8167424201965332,0.40384615384615385,0.8269230769230769,0.35714285714285715,0.8571428571428571,0.0004
493,1.4356026649475098,1.7378371953964233,0.5576923076923077,0.8269230769230769,0.35714285714285715,0.8571428571428571,0.0004
494,1.510979175567627,1.5722346305847168,0.4807692307692308,0.8269230769230769,0.5,0.8571428571428571,0.0004
495,1.4737504720687866,1.554908275604248,0.4807692307692308,0.8269230769230769,0.5714285714285714,0.8571428571428571,0.0004
496,1.7400173544883728,1.3837008476257324,0.40384615384615385,0.8269230769230769,0.5,0.8571428571428571,0.0004
497,1.5341054201126099,1.3348705768585205,0.5769230769230769,0.8269230769230769,0.5714285714285714,0.8571428571428571,0.0004
498,1.4850083589553833,1.6115843057632446,0.4807692307692308,0.8269230769230769,0.21428571428571427,0.8571428571428571,0.0004
499,1.519648790359497,1.444947361946106,0.4423076923076923,0.8269230769230769,0.5,0.8571428571428571,0.0004
500,1.4977811574935913,1.538336157798767,0.4423076923076923,0.8269230769230769,0.2857142857142857,0.8571428571428571,0.0004
501,1.4508692026138306,1.568922996520996,0.5,0.8269230769230769,0.42857142857142855,0.8571428571428571,0.0004
502,1.4229907989501953,1.4020824432373047,0.4423076923076923,0.8269230769230769,0.5714285714285714,0.8571428571428571,0.0004
503,1.4691840410232544,1.3734493255615234,0.4230769230769231,0.8269230769230769,0.5,0.8571428571428571,0.0004
504,1.4339560270309448,1.5604904890060425,0.5769230769230769,0.8269230769230769,0.42857142857142855,0.8571428571428571,0.0004
505,1.4002858400344849,1.498146414756775,0.5576923076923077,0.8269230769230769,0.35714285714285715,0.8571428571428571,0.0004
506,1.491305947303772,1.4524378776550293,0.4807692307692308,0.8269230769230769,0.42857142857142855,0.8571428571428571,0.0004
507,1.4243834018707275,1.3771908283233643,0.5192307692307693,0.8269230769230769,0.6428571428571429,0.8571428571428571,0.0004
508,1.3666386604309082,1.5239477157592773,0.5576923076923077,0.8269230769230769,0.2857142857142857,0.8571428571428571,0.0004
509,1.4003750085830688,1.4927208423614502,0.5192307692307693,0.8269230769230769,0.5714285714285714,0.8571428571428571,0.0004
510,1.3843774199485779,1.5090136528015137,0.5,0.8269230769230769,0.5714285714285714,0.8571428571428571,0.0004
511,1.4253041744232178,1.4319164752960205,0.5192307692307693,0.8269230769230769,0.5,0.8571428571428571,0.0004
512,1.4539135694503784,1.5892953872680664,0.5192307692307693,0.8269230769230769,0.2857142857142857,0.8571428571428571,0.0004
513,1.4320417046546936,1.4516918659210205,0.5961538461538461,0.8269230769230769,0.5,0.8571428571428571,0.0004
514,1.4608672261238098,1.4205844402313232,0.4423076923076923,0.8269230769230769,0.5714285714285714,0.8571428571428571,0.0004
515,1.435990810394287,1.5126488208770752,0.4807692307692308,0.8269230769230769,0.5,0.8571428571428571,0.0004
516,1.4348307847976685,1.3925000429153442,0.5576923076923077,0.8269230769230769,0.5714285714285714,0.8571428571428571,0.0004
517,1.3721569180488586,1.3976924419403076,0.5576923076923077,0.8269230769230769,0.6428571428571429,0.8571428571428571,0.0004
518,1.3855724930763245,1.696893334388733,0.5961538461538461,0.8269230769230769,0.35714285714285715,0.8571428571428571,0.0004
519,1.4077478051185608,1.4633336067199707,0.4423076923076923,0.8269230769230769,0.42857142857142855,0.8571428571428571,0.0004
520,1.4708762764930725,1.5674697160720825,0.5,0.8269230769230769,0.35714285714285715,0.8571428571428571,0.0004
521,1.3571909666061401,1.610863447189331,0.5192307692307693,0.8269230769230769,0.35714285714285715,0.8571428571428571,0.0004
522,1.369238793849945,1.5250442028045654,0.5769230769230769,0.8269230769230769,0.42857142857142855,0.8571428571428571,0.0004
523,1.4501474499702454,1.47747004032135,0.5576923076923077,0.8269230769230769,0.42857142857142855,0.8571428571428571,0.0004
524,1.472338616847992,1.4376461505889893,0.5384615384615384,0.8269230769230769,0.5,0.8571428571428571,0.0004
525,1.4084424376487732,1.5498712062835693,0.5576923076923077,0.8269230769230769,0.42857142857142855,0.8571428571428571,0.0004
526,1.381571888923645,1.5332164764404297,0.5384615384615384,0.8269230769230769,0.5,0.8571428571428571,0.0004
527,1.3153709769248962,1.370951533317566,0.5384615384615384,0.8269230769230769,0.42857142857142855,0.8571428571428571,0.0004
528,1.3048428297042847,1.3270697593688965,0.6346153846153846,0.8269230769230769,0.5714285714285714,0.8571428571428571,0.0004
529,1.4301629662513733,1.4237151145935059,0.5,0.8269230769230769,0.42857142857142855,0.8571428571428571,0.0004
530,1.322133481502533,1.4310908317565918,0.5,0.8269230769230769,0.5714285714285714,0.8571428571428571,0.0004
531,1.5533137917518616,1.3021326065063477,0.4807692307692308,0.8269230769230769,0.5714285714285714,0.8571428571428571,0.0004
532,1.4066104292869568,1.5995546579360962,0.5,0.8269230769230769,0.35714285714285715,0.8571428571428571,0.0004
533,1.3477839231491089,1.4244985580444336,0.5384615384615384,0.8269230769230769,0.42857142857142855,0.8571428571428571,0.0004
534,1.337110996246338,1.4670941829681396,0.5961538461538461,0.8269230769230769,0.5,0.8571428571428571,0.0004
535,1.460215151309967,1.607572317123413,0.4807692307692308,0.8269230769230769,0.42857142857142855,0.8571428571428571,0.0004
536,1.5199036598205566,1.5597871541976929,0.38461538461538464,0.8269230769230769,0.35714285714285715,0.8571428571428571,0.0004
537,1.455115556716919,1.5086451768875122,0.46153846153846156,0.8269230769230769,0.42857142857142855,0.8571428571428571,0.0004
538,1.3399834632873535,1.347092866897583,0.5192307692307693,0.8269230769230769,0.5,0.8571428571428571,0.0004
539,1.4764585494995117,1.5421428680419922,0.5576923076923077,0.8269230769230769,0.35714285714285715,0.8571428571428571,0.0004
540,1.428597331047058,1.4226434230804443,0.4423076923076923,0.8269230769230769,0.5,0.8571428571428571,0.0004
541,1.393921434879303,1.286474347114563,0.5769230769230769,0.8269230769230769,0.6428571428571429,0.8571428571428571,0.0004
542,1.4251734614372253,1.5600290298461914,0.5192307692307693,0.8269230769230769,0.42857142857142855,0.8571428571428571,0.0004
543,1.4372668862342834,1.452060580253601,0.4807692307692308,0.8269230769230769,0.42857142857142855,0.8571428571428571,0.0004
544,1.4235941767692566,1.4106178283691406,0.5192307692307693,0.8269230769230769,0.6428571428571429,0.8571428571428571,0.0004
545,1.4219661951065063,1.292899489402771,0.4807692307692308,0.8269230769230769,0.5714285714285714,0.8571428571428571,0.0004
546,1.2706934213638306,1.2190957069396973,0.5769230769230769,0.8269230769230769,0.6428571428571429,0.8571428571428571,0.0004
547,1.3795049786567688,1.5263686180114746,0.5576923076923077,0.8269230769230769,0.42857142857142855,0.8571428571428571,0.0004
548,1.4760681986808777,1.4833179712295532,0.6153846153846154,0.8269230769230769,0.42857142857142855,0.8571428571428571,0.0004
549,1.4261770844459534,1.4311188459396362,0.5,0.8269230769230769,0.35714285714285715,0.8571428571428571,0.0004
550,1.2300095558166504,1.3383084535598755,0.5769230769230769,0.8269230769230769,0.5,0.8571428571428571,0.0004
551,1.3449966311454773,1.4472956657409668,0.5,0.8269230769230769,0.5,0.8571428571428571,0.0004
552,1.338311493396759,1.3752442598342896,0.4807692307692308,0.8269230769230769,0.6428571428571429,0.8571428571428571,0.0004
553,1.3086267709732056,1.4435133934020996,0.5192307692307693,0.8269230769230769,0.5714285714285714,0.8571428571428571,0.0004
554,1.413074553012848,1.5311110019683838,0.36538461538461536,0.8269230769230769,0.42857142857142855,0.8571428571428571,0.0004
555,1.377138376235962,1.5189697742462158,0.5,0.8269230769230769,0.42857142857142855,0.8571428571428571,0.0004
556,1.4820802211761475,1.3735401630401611,0.4807692307692308,0.8269230769230769,0.5714285714285714,0.8571428571428571,0.0004
557,1.4048384428024292,1.534584879875183,0.5384615384615384,0.8269230769230769,0.42857142857142855,0.8571428571428571,0.0004
558,1.4158967733383179,1.4809372425079346,0.40384615384615385,0.8269230769230769,0.2857142857142857,0.8571428571428571,0.0004
559,1.4247515797615051,1.4576491117477417,0.5384615384615384,0.8269230769230769,0.5,0.8571428571428571,0.0004
560,1.4042763710021973,1.284444808959961,0.5,0.8269230769230769,0.7857142857142857,0.8571428571428571,0.0004
561,1.4525850415229797,1.7930729389190674,0.5769230769230769,0.8269230769230769,0.35714285714285715,0.8571428571428571,0.0004
562,1.4268724918365479,1.311885118484497,0.5576923076923077,0.8269230769230769,0.5714285714285714,0.8571428571428571,0.0004
563,1.3896042108535767,1.4767566919326782,0.6153846153846154,0.8269230769230769,0.5714285714285714,0.8571428571428571,0.0004
564,1.4609432816505432,1.4696629047393799,0.4807692307692308,0.8269230769230769,0.2857142857142857,0.8571428571428571,0.0004
565,1.3598989844322205,1.8873682022094727,0.5,0.8269230769230769,0.21428571428571427,0.8571428571428571,0.0004
566,1.4683474898338318,1.5312591791152954,0.5961538461538461,0.8269230769230769,0.21428571428571427,0.8571428571428571,0.0004
567,1.4517276883125305,1.3838279247283936,0.4807692307692308,0.8269230769230769,0.42857142857142855,0.8571428571428571,0.0004
568,1.4186818599700928,1.588655710220337,0.4807692307692308,0.8269230769230769,0.35714285714285715,0.8571428571428571,0.0004
569,1.3481373190879822,1.3326821327209473,0.4423076923076923,0.8269230769230769,0.5,0.8571428571428571,0.0004
570,1.5647428631782532,1.4062402248382568,0.40384615384615385,0.8269230769230769,0.2857142857142857,0.8571428571428571,0.0004
571,1.4156618118286133,1.4953778982162476,0.5384615384615384,0.8269230769230769,0.5,0.8571428571428571,0.0004
572,1.493719220161438,1.4409806728363037,0.4423076923076923,0.8269230769230769,0.42857142857142855,0.8571428571428571,0.0004
573,1.52064710855484,1.4832061529159546,0.40384615384615385,0.8269230769230769,0.35714285714285715,0.8571428571428571,0.0004
574,1.4644903540611267,1.3817871809005737,0.4423076923076923,0.8269230769230769,0.42857142857142855,0.8571428571428571,0.0004
575,1.4152489304542542,1.5820595026016235,0.4423076923076923,0.8269230769230769,0.42857142857142855,0.8571428571428571,0.0004
576,1.5287386775016785,1.331595778465271,0.5192307692307693,0.8269230769230769,0.5,0.8571428571428571,0.0004
577,1.4527559280395508,1.2053287029266357,0.38461538461538464,0.8269230769230769,0.5714285714285714,0.8571428571428571,0.0004
578,1.3717010617256165,1.5929182767868042,0.5384615384615384,0.8269230769230769,0.2857142857142857,0.8571428571428571,0.0004
579,1.3368467092514038,1.4013633728027344,0.46153846153846156,0.8269230769230769,0.5,0.8571428571428571,0.0004
580,1.3811979293823242,1.6229420900344849,0.4807692307692308,0.8269230769230769,0.42857142857142855,0.8571428571428571,0.0004
581,1.3940767049789429,1.6245489120483398,0.6538461538461539,0.8269230769230769,0.35714285714285715,0.8571428571428571,0.0004
582,1.3103485703468323,1.4778743982315063,0.6538461538461539,0.8269230769230769,0.35714285714285715,0.8571428571428571,0.0004
583,1.4024646282196045,1.464538335800171,0.5192307692307693,0.8269230769230769,0.2857142857142857,0.8571428571428571,0.0004
584,1.3869569897651672,1.4793376922607422,0.4807692307692308,0.8269230769230769,0.21428571428571427,0.8571428571428571,0.0004
585,1.3333308100700378,1.388903021812439,0.5769230769230769,0.8269230769230769,0.42857142857142855,0.8571428571428571,0.0004
586,1.2721895575523376,1.3998820781707764,0.5961538461538461,0.8269230769230769,0.42857142857142855,0.8571428571428571,0.0004
587,1.4308967590332031,1.6693578958511353,0.5576923076923077,0.8269230769230769,0.5,0.8571428571428571,0.0004
588,1.3547576069831848,1.4029455184936523,0.4807692307692308,0.8269230769230769,0.42857142857142855,0.8571428571428571,0.0004
589,1.3129295706748962,1.658031702041626,0.5384615384615384,0.8269230769230769,0.42857142857142855,0.8571428571428571,0.0004
590,1.3357560634613037,1.6109516620635986,0.5192307692307693,0.8269230769230769,0.5,0.8571428571428571,0.0004
591,1.3043423891067505,1.4364014863967896,0.5384615384615384,0.8269230769230769,0.35714285714285715,0.8571428571428571,0.0004
592,1.370080828666687,1.4988491535186768,0.4423076923076923,0.8269230769230769,0.35714285714285715,0.8571428571428571,0.0004
593,1.3611111044883728,1.4084088802337646,0.4423076923076923,0.8269230769230769,0.42857142857142855,0.8571428571428571,0.0004
594,1.3505749702453613,1.4316911697387695,0.46153846153846156,0.8269230769230769,0.42857142857142855,0.8571428571428571,0.0004
595,1.3032385110855103,1.3193244934082031,0.5384615384615384,0.8269230769230769,0.5,0.8571428571428571,0.0004
596,1.2451022267341614,1.403454303741455,0.5384615384615384,0.8269230769230769,0.6428571428571429,0.8571428571428571,0.0004
597,1.203694224357605,1.5656710863113403,0.5576923076923077,0.8269230769230769,0.35714285714285715,0.8571428571428571,0.0004
598,1.4914395809173584,1.618721842765808,0.4423076923076923,0.8269230769230769,0.42857142857142855,0.8571428571428571,0.0004
599,1.4252365231513977,1.6071258783340454,0.6346153846153846,0.8269230769230769,0.35714285714285715,0.8571428571428571,0.0004
600,1.1618053317070007,1.8622918128967285,0.6153846153846154,0.8269230769230769,0.42857142857142855,0.8571428571428571,0.0004
601,1.4134612679481506,1.901584506034851,0.5,0.8269230769230769,0.35714285714285715,0.8571428571428571,0.0004
602,1.4464346766471863,1.3919358253479004,0.5,0.8269230769230769,0.5,0.8571428571428571,0.0004
603,1.1951840817928314,1.561353325843811,0.5961538461538461,0.8269230769230769,0.2857142857142857,0.8571428571428571,0.0004
604,1.3052870631217957,1.751672387123108,0.5,0.8269230769230769,0.35714285714285715,0.8571428571428571,0.0004
605,1.317907691001892,1.6980243921279907,0.5192307692307693,0.8269230769230769,0.35714285714285715,0.8571428571428571,0.0004
606,1.4737533330917358,1.4153482913970947,0.4807692307692308,0.8269230769230769,0.35714285714285715,0.8571428571428571,0.0004
607,1.2402595281600952,1.2906928062438965,0.5384615384615384,0.8269230769230769,0.5714285714285714,0.8571428571428571,0.0004
608,1.4459357261657715,1.3381919860839844,0.5192307692307693,0.8269230769230769,0.5714285714285714,0.8571428571428571,0.0004
609,1.2352086305618286,1.3362603187561035,0.5384615384615384,0.8269230769230769,0.35714285714285715,0.8571428571428571,0.0004
610,1.287870705127716,1.414249062538147,0.5,0.8269230769230769,0.21428571428571427,0.8571428571428571,0.0004
611,1.2957186102867126,1.3403624296188354,0.5769230769230769,0.8269230769230769,0.5,0.8571428571428571,0.0004
612,1.3980856537818909,1.3542287349700928,0.5384615384615384,0.8269230769230769,0.35714285714285715,0.8571428571428571,0.0004
613,1.2820647954940796,1.4155975580215454,0.5576923076923077,0.8269230769230769,0.5714285714285714,0.8571428571428571,0.0004
614,1.3696627616882324,1.4608293771743774,0.4807692307692308,0.8269230769230769,0.35714285714285715,0.8571428571428571,0.0004
615,1.286759376525879,1.6932514905929565,0.4807692307692308,0.8269230769230769,0.2857142857142857,0.8571428571428571,0.0004
616,1.3202732801437378,1.6737196445465088,0.5961538461538461,0.8269230769230769,0.21428571428571427,0.8571428571428571,0.0004
617,1.4097111821174622,1.4291108846664429,0.4807692307692308,0.8269230769230769,0.5714285714285714,0.8571428571428571,0.0004
618,1.3208086490631104,1.263068437576294,0.5384615384615384,0.8269230769230769,0.6428571428571429,0.8571428571428571,0.0004
619,1.5323554277420044,1.6128360033035278,0.5576923076923077,0.8269230769230769,0.35714285714285715,0.8571428571428571,0.0004
620,1.324402391910553,1.331323266029358,0.4230769230769231,0.8269230769230769,0.42857142857142855,0.8571428571428571,0.0004
621,1.2431223392486572,1.3412128686904907,0.5961538461538461,0.8269230769230769,0.42857142857142855,0.8571428571428571,0.0004
622,1.2784258723258972,1.443479299545288,0.5576923076923077,0.8269230769230769,0.42857142857142855,0.8571428571428571,0.0004
623,1.3551138639450073,1.2282466888427734,0.5576923076923077,0.8269230769230769,0.5714285714285714,0.8571428571428571,0.0004
624,1.3996567726135254,1.4356300830841064,0.5,0.8269230769230769,0.35714285714285715,0.8571428571428571,0.0004
625,1.3726725578308105,1.4797786474227905,0.5576923076923077,0.8269230769230769,0.35714285714285715,0.8571428571428571,0.0004
626,1.681908369064331,1.4076189994812012,0.5192307692307693,0.8269230769230769,0.35714285714285715,0.8571428571428571,0.0004
627,1.6557186841964722,1.4888224601745605,0.4807692307692308,0.8269230769230769,0.2857142857142857,0.8571428571428571,0.0004
628,1.8783831000328064,1.4550546407699585,0.4423076923076923,0.8269230769230769,0.42857142857142855,0.8571428571428571,0.0004
629,1.862964689731598,2.06887149810791,0.3076923076923077,0.8269230769230769,0.2857142857142857,0.8571428571428571,0.0004
630,1.8774498105049133,1.4654991626739502,0.38461538461538464,0.8269230769230769,0.35714285714285715,0.8571428571428571,0.0004
631,1.8268150091171265,1.5017216205596924,0.36538461538461536,0.8269230769230769,0.5714285714285714,0.8571428571428571,0.0004
632,1.876648187637329,1.675402283668518,0.4423076923076923,0.8269230769230769,0.5,0.8571428571428571,0.0004
633,1.5809745788574219,1.2228797674179077,0.4423076923076923,0.8269230769230769,0.6428571428571429,0.8571428571428571,0.0004
634,1.582447588443756,1.5543605089187622,0.4807692307692308,0.8269230769230769,0.42857142857142855,0.8571428571428571,0.0004
635,1.4587188959121704,1.6197160482406616,0.46153846153846156,0.8269230769230769,0.42857142857142855,0.8571428571428571,0.0004
636,1.3124781847000122,1.2287336587905884,0.5384615384615384,0.8269230769230769,0.7142857142857143,0.8571428571428571,0.0004
637,1.2923479080200195,1.6935858726501465,0.5,0.8269230769230769,0.5,0.8571428571428571,0.0004
638,1.4089381694793701,1.881198525428772,0.5,0.8269230769230769,0.35714285714285715,0.8571428571428571,0.0004
639,1.391953945159912,1.8032584190368652,0.4230769230769231,0.8269230769230769,0.35714285714285715,0.8571428571428571,0.0004
640,1.4217708110809326,1.908900260925293,0.5,0.8269230769230769,0.2857142857142857,0.8571428571428571,0.0004
641,1.6264840364456177,1.9817266464233398,0.4423076923076923,0.8269230769230769,0.35714285714285715,0.8571428571428571,0.0004
642,1.7696945071220398,2.402057647705078,0.4230769230769231,0.8269230769230769,0.14285714285714285,0.8571428571428571,0.0004
643,1.9560304284095764,1.9418504238128662,0.4423076923076923,0.8269230769230769,0.35714285714285715,0.8571428571428571,0.0004
644,1.435296654701233,1.6422719955444336,0.46153846153846156,0.8269230769230769,0.42857142857142855,0.8571428571428571,0.0004
645,1.536938488483429,2.0297746658325195,0.5,0.8269230769230769,0.35714285714285715,0.8571428571428571,0.0004
646,1.7475792169570923,1.7848377227783203,0.4230769230769231,0.8269230769230769,0.14285714285714285,0.8571428571428571,0.0004
647,1.5479962825775146,1.66890549659729,0.4807692307692308,0.8269230769230769,0.42857142857142855,0.8571428571428571,0.0004
648,1.4314043521881104,1.8009133338928223,0.5,0.8269230769230769,0.2857142857142857,0.8571428571428571,0.0004
649,1.4895166158676147,1.5018470287322998,0.4423076923076923,0.8269230769230769,0.35714285714285715,0.8571428571428571,0.0004
650,1.481589436531067,1.6877918243408203,0.5384615384615384,0.8269230769230769,0.42857142857142855,0.8571428571428571,0.0004
651,1.4518024325370789,1.5699856281280518,0.5192307692307693,0.8269230769230769,0.35714285714285715,0.8571428571428571,0.0004
652,1.4249155521392822,1.568526268005371,0.5192307692307693,0.8269230769230769,0.2857142857142857,0.8571428571428571,0.0004
653,1.4444161653518677,1.4450607299804688,0.4807692307692308,0.8269230769230769,0.5714285714285714,0.8571428571428571,0.0004
654,1.4012432098388672,1.5313801765441895,0.5,0.8269230769230769,0.35714285714285715,0.8571428571428571,0.0004
655,1.444894254207611,1.6861639022827148,0.46153846153846156,0.8269230769230769,0.21428571428571427,0.8571428571428571,0.0004
656,1.4612692594528198,1.4423671960830688,0.4807692307692308,0.8269230769230769,0.5,0.8571428571428571,0.0004
657,1.412567377090454,1.5024758577346802,0.5576923076923077,0.8269230769230769,0.5,0.8571428571428571,0.0004
658,1.3916094899177551,1.5156214237213135,0.4807692307692308,0.8269230769230769,0.35714285714285715,0.8571428571428571,0.0004
659,1.4945292472839355,1.4324830770492554,0.4807692307692308,0.8269230769230769,0.5714285714285714,0.8571428571428571,0.0004
660,1.488123893737793,1.54876708984375,0.46153846153846156,0.8269230769230769,0.35714285714285715,0.8571428571428571,0.0004
661,1.376417338848114,1.5602986812591553,0.4423076923076923,0.8269230769230769,0.35714285714285715,0.8571428571428571,0.0004
662,1.455657422542572,1.5388116836547852,0.4423076923076923,0.8269230769230769,0.35714285714285715,0.8571428571428571,0.0004
663,1.4124998450279236,1.484004259109497,0.5576923076923077,0.8269230769230769,0.2857142857142857,0.8571428571428571,0.0004
664,1.4934537410736084,1.5409165620803833,0.40384615384615385,0.8269230769230769,0.42857142857142855,0.8571428571428571,0.0004
665,1.4349246621131897,1.4953892230987549,0.4423076923076923,0.8269230769230769,0.42857142857142855,0.8571428571428571,0.0004
666,1.4211172461509705,1.4919559955596924,0.5384615384615384,0.8269230769230769,0.2857142857142857,0.8571428571428571,0.0004
667,1.4551236629486084,1.5890915393829346,0.5,0.8269230769230769,0.35714285714285715,0.8571428571428571,0.0004
668,1.4248151779174805,1.5376896858215332,0.5961538461538461,0.8269230769230769,0.2857142857142857,0.8571428571428571,0.0004
669,1.257563591003418,1.5166860818862915,0.6346153846153846,0.8269230769230769,0.2857142857142857,0.8571428571428571,0.0004
670,1.3264880776405334,1.527140736579895,0.5961538461538461,0.8269230769230769,0.21428571428571427,0.8571428571428571,0.0004
671,1.4148865342140198,1.6385895013809204,0.46153846153846156,0.8269230769230769,0.35714285714285715,0.8571428571428571,0.0004
672,1.4076313972473145,1.6468408107757568,0.5,0.8269230769230769,0.21428571428571427,0.8571428571428571,0.0004
673,1.416933298110962,1.4593923091888428,0.4807692307692308,0.8269230769230769,0.5,0.8571428571428571,0.0004
674,1.3004096746444702,1.5910446643829346,0.5192307692307693,0.8269230769230769,0.42857142857142855,0.8571428571428571,0.0004
675,1.4557721614837646,1.6030330657958984,0.6153846153846154,0.8269230769230769,0.42857142857142855,0.8571428571428571,0.0004
676,1.3672988414764404,1.464907169342041,0.6153846153846154,0.8269230769230769,0.2857142857142857,0.8571428571428571,0.0004
677,1.4131228923797607,1.5225896835327148,0.5769230769230769,0.8269230769230769,0.35714285714285715,0.8571428571428571,0.0004
678,1.480632722377777,1.66035795211792,0.4423076923076923,0.8269230769230769,0.21428571428571427,0.8571428571428571,0.0004
679,1.388318419456482,1.5463171005249023,0.5384615384615384,0.8269230769230769,0.2857142857142857,0.8571428571428571,0.0004
680,1.335355818271637,1.577622652053833,0.5576923076923077,0.8269230769230769,0.2857142857142857,0.8571428571428571,0.0004
681,1.5522291660308838,1.782266616821289,0.5769230769230769,0.8269230769230769,0.14285714285714285,0.8571428571428571,0.0004
682,1.3763344287872314,1.7526288032531738,0.5576923076923077,0.8269230769230769,0.2857142857142857,0.8571428571428571,0.0004
683,1.3813782334327698,1.351847529411316,0.5384615384615384,0.8269230769230769,0.35714285714285715,0.8571428571428571,0.0004
684,1.5201902985572815,1.53352689743042,0.5,0.8269230769230769,0.35714285714285715,0.8571428571428571,0.0004
685,1.4587817788124084,1.6321077346801758,0.5384615384615384,0.8269230769230769,0.2857142857142857,0.8571428571428571,0.0004
686,1.3203505277633667,1.4949519634246826,0.6730769230769231,0.8269230769230769,0.2857142857142857,0.8571428571428571,0.0004
687,1.4130889177322388,1.363324761390686,0.5576923076923077,0.8269230769230769,0.5,0.8571428571428571,0.0004
688,1.4350290894508362,1.4875431060791016,0.5,0.8269230769230769,0.42857142857142855,0.8571428571428571,0.0004
689,1.3016148805618286,1.579167366027832,0.5,0.8269230769230769,0.2857142857142857,0.8571428571428571,0.0004
690,1.300721526145935,1.5756829977035522,0.5576923076923077,0.8269230769230769,0.21428571428571427,0.8571428571428571,0.0004
691,1.4376004934310913,1.4845874309539795,0.5192307692307693,0.8269230769230769,0.35714285714285715,0.8571428571428571,0.0004
692,1.3440940380096436,1.4937825202941895,0.5576923076923077,0.8269230769230769,0.35714285714285715,0.8571428571428571,0.0004
693,1.275241494178772,1.4783748388290405,0.5576923076923077,0.8269230769230769,0.5714285714285714,0.8571428571428571,0.0004
694,1.402575135231018,1.6395246982574463,0.5769230769230769,0.8269230769230769,0.35714285714285715,0.8571428571428571,0.0004
695,1.3189942240715027,1.658483624458313,0.5576923076923077,0.8269230769230769,0.14285714285714285,0.8571428571428571,0.0004
696,1.3783106207847595,1.469861388206482,0.5961538461538461,0.8269230769230769,0.42857142857142855,0.8571428571428571,0.0004
697,1.408179521560669,1.6841552257537842,0.5384615384615384,0.8269230769230769,0.2857142857142857,0.8571428571428571,0.0004
698,1.3240360021591187,1.623160481452942,0.5192307692307693,0.8269230769230769,0.35714285714285715,0.8571428571428571,0.0004
699,1.3471235632896423,1.5068178176879883,0.5769230769230769,0.8269230769230769,0.35714285714285715,0.8571428571428571,0.0004
700,1.4682807922363281,1.4561009407043457,0.5384615384615384,0.8269230769230769,0.42857142857142855,0.8571428571428571,0.0004
701,1.4380662441253662,1.5985240936279297,0.5,0.8269230769230769,0.21428571428571427,0.8571428571428571,0.0004
702,1.4551015496253967,1.5304937362670898,0.5192307692307693,0.8269230769230769,0.35714285714285715,0.8571428571428571,0.0004
703,1.4218671321868896,1.5285282135009766,0.5384615384615384,0.8269230769230769,0.42857142857142855,0.8571428571428571,0.0004
704,1.3299615979194641,1.5711467266082764,0.5576923076923077,0.8269230769230769,0.42857142857142855,0.8571428571428571,0.0004
705,1.3591417074203491,1.449819803237915,0.5576923076923077,0.8269230769230769,0.5714285714285714,0.8571428571428571,0.0004
706,1.256812870502472,1.5732288360595703,0.6923076923076923,0.8269230769230769,0.42857142857142855,0.8571428571428571,0.0004
707,1.295981764793396,1.489351749420166,0.6730769230769231,0.8269230769230769,0.2857142857142857,0.8571428571428571,0.0004
708,1.5253462195396423,1.5968235731124878,0.5192307692307693,0.8269230769230769,0.2857142857142857,0.8571428571428571,0.0004
709,1.289703369140625,1.5389362573623657,0.6346153846153846,0.8269230769230769,0.35714285714285715,0.8571428571428571,0.0004
710,1.2365469336509705,1.520324945449829,0.5961538461538461,0.8269230769230769,0.35714285714285715,0.8571428571428571,0.0004
711,1.3952403664588928,1.5148926973342896,0.4807692307692308,0.8269230769230769,0.2857142857142857,0.8571428571428571,0.0004
712,1.3807798027992249,1.586113452911377,0.5192307692307693,0.8269230769230769,0.2857142857142857,0.8571428571428571,0.0004
713,1.3737174272537231,1.3971556425094604,0.5,0.8269230769230769,0.5,0.8571428571428571,0.0004
714,1.3514965176582336,1.35743248462677,0.46153846153846156,0.8269230769230769,0.42857142857142855,0.8571428571428571,0.0004
715,1.4040175080299377,1.628485918045044,0.4423076923076923,0.8269230769230769,0.35714285714285715,0.8571428571428571,0.0004
716,1.423800528049469,1.3924245834350586,0.5,0.8269230769230769,0.21428571428571427,0.8571428571428571,0.0004
717,1.409904956817627,1.4641733169555664,0.4423076923076923,0.8269230769230769,0.2857142857142857,0.8571428571428571,0.0004
718,1.2917488813400269,1.3418309688568115,0.4807692307692308,0.8269230769230769,0.5,0.8571428571428571,0.0004
719,1.2850143909454346,1.4322504997253418,0.5769230769230769,0.8269230769230769,0.42857142857142855,0.8571428571428571,0.0004
720,1.2944530248641968,1.5669059753417969,0.5769230769230769,0.8269230769230769,0.35714285714285715,0.8571428571428571,0.0004
721,1.299446702003479,1.621145486831665,0.5961538461538461,0.8269230769230769,0.21428571428571427,0.8571428571428571,0.0004
722,1.2373685836791992,1.6431114673614502,0.6730769230769231,0.8269230769230769,0.21428571428571427,0.8571428571428571,0.0004
723,1.4235143661499023,1.4011421203613281,0.5,0.8269230769230769,0.5714285714285714,0.8571428571428571,0.0004
724,1.2918497920036316,1.4865167140960693,0.5384615384615384,0.8269230769230769,0.35714285714285715,0.8571428571428571,0.0004
725,1.3066709637641907,1.7221835851669312,0.6153846153846154,0.8269230769230769,0.21428571428571427,0.8571428571428571,0.0004
726,1.4625200033187866,1.3808811902999878,0.5384615384615384,0.8269230769230769,0.42857142857142855,0.8571428571428571,0.0004
727,1.2274332642555237,1.4407036304473877,0.5576923076923077,0.8269230769230769,0.35714285714285715,0.8571428571428571,0.0004
728,1.3037866950035095,1.3817286491394043,0.5576923076923077,0.8269230769230769,0.35714285714285715,0.8571428571428571,0.0004
729,1.3252105712890625,1.4341034889221191,0.5384615384615384,0.8269230769230769,0.2857142857142857,0.8571428571428571,0.0004
730,1.3867226839065552,1.533893346786499,0.4807692307692308,0.8269230769230769,0.42857142857142855,0.8571428571428571,0.0004
731,1.3816482424736023,1.5571337938308716,0.5,0.8269230769230769,0.21428571428571427,0.8571428571428571,0.0004
732,1.3021607995033264,1.445198655128479,0.5576923076923077,0.8269230769230769,0.42857142857142855,0.8571428571428571,0.0004
733,1.246316373348236,1.5354585647583008,0.5576923076923077,0.8269230769230769,0.2857142857142857,0.8571428571428571,0.0004
734,1.38030344247818,1.4880590438842773,0.4807692307692308,0.8269230769230769,0.35714285714285715,0.8571428571428571,0.0004
735,1.4513161778450012,1.6408857107162476,0.5,0.8269230769230769,0.21428571428571427,0.8571428571428571,0.0004
736,1.2911419868469238,1.5137994289398193,0.5,0.8269230769230769,0.42857142857142855,0.8571428571428571,0.0004
737,1.2513195872306824,1.5333726406097412,0.5384615384615384,0.8269230769230769,0.5,0.8571428571428571,0.0004
738,1.326869785785675,1.6811997890472412,0.4807692307692308,0.8269230769230769,0.21428571428571427,0.8571428571428571,0.0004
739,1.4732590913772583,1.3766906261444092,0.4230769230769231,0.8269230769230769,0.42857142857142855,0.8571428571428571,0.0004
740,1.272522509098053,1.4425667524337769,0.5961538461538461,0.8269230769230769,0.5,0.8571428571428571,0.0004
741,1.3065851330757141,1.390846848487854,0.6153846153846154,0.8269230769230769,0.35714285714285715,0.8571428571428571,0.0004
742,1.5957956910133362,1.4981043338775635,0.4807692307692308,0.8269230769230769,0.5,0.8571428571428571,0.0004
743,1.4172729849815369,1.4367886781692505,0.5192307692307693,0.8269230769230769,0.14285714285714285,0.8571428571428571,0.0004
744,1.275152862071991,1.5445524454116821,0.6346153846153846,0.8269230769230769,0.42857142857142855,0.8571428571428571,0.0004
745,1.273886263370514,1.4955403804779053,0.5769230769230769,0.8269230769230769,0.21428571428571427,0.8571428571428571,0.0004
746,1.4395182132720947,1.6292884349822998,0.5192307692307693,0.8269230769230769,0.35714285714285715,0.8571428571428571,0.0004
747,1.3205625414848328,1.5459790229797363,0.4807692307692308,0.8269230769230769,0.35714285714285715,0.8571428571428571,0.0004
748,1.4207995533943176,1.2999353408813477,0.4423076923076923,0.8269230769230769,0.5,0.8571428571428571,0.0004
749,1.307906448841095,1.4243624210357666,0.4230769230769231,0.8269230769230769,0.21428571428571427,0.8571428571428571,0.0004
750,1.3610832691192627,1.5749223232269287,0.5,0.8269230769230769,0.2857142857142857,0.8571428571428571,0.0004
751,1.3533623814582825,1.5321340560913086,0.5,0.8269230769230769,0.2857142857142857,0.8571428571428571,0.0004
752,1.415761113166809,1.6468992233276367,0.5,0.8269230769230769,0.2857142857142857,0.8571428571428571,0.0004
753,1.184184044599533,1.4558138847351074,0.5961538461538461,0.8269230769230769,0.21428571428571427,0.8571428571428571,0.0004
754,1.3276063799858093,1.455676555633545,0.5192307692307693,0.8269230769230769,0.42857142857142855,0.8571428571428571,0.0004
755,1.276582419872284,1.644742727279663,0.4807692307692308,0.8269230769230769,0.2857142857142857,0.8571428571428571,0.0004
756,1.284354329109192,1.353495478630066,0.5961538461538461,0.8269230769230769,0.35714285714285715,0.8571428571428571,0.0004
757,1.3453444838523865,1.451463222503662,0.5192307692307693,0.8269230769230769,0.35714285714285715,0.8571428571428571,0.0004
758,1.2864644527435303,1.5287983417510986,0.5769230769230769,0.8269230769230769,0.21428571428571427,0.8571428571428571,0.0004
759,1.2840030789375305,1.634267807006836,0.5576923076923077,0.8269230769230769,0.14285714285714285,0.8571428571428571,0.0004
760,1.309380292892456,1.5602681636810303,0.5384615384615384,0.8269230769230769,0.21428571428571427,0.8571428571428571,0.0004
761,1.3667137622833252,1.4631164073944092,0.4807692307692308,0.8269230769230769,0.2857142857142857,0.8571428571428571,0.0004
762,1.3840686082839966,1.368003010749817,0.5576923076923077,0.8269230769230769,0.42857142857142855,0.8571428571428571,0.0004
763,1.360308289527893,1.3455911874771118,0.4807692307692308,0.8269230769230769,0.5,0.8571428571428571,0.0004
764,1.3579427599906921,1.4619948863983154,0.5384615384615384,0.8269230769230769,0.35714285714285715,0.8571428571428571,0.0004
765,1.3954504132270813,1.4481145143508911,0.5,0.8269230769230769,0.42857142857142855,0.8571428571428571,0.0004
766,1.338073194026947,1.39271080493927,0.4807692307692308,0.8269230769230769,0.35714285714285715,0.8571428571428571,0.0004
767,1.3805206418037415,1.5829774141311646,0.4807692307692308,0.8269230769230769,0.5,0.8571428571428571,0.0004
768,1.3740403652191162,1.2819255590438843,0.5576923076923077,0.8269230769230769,0.42857142857142855,0.8571428571428571,0.0004
769,1.4500961303710938,1.3495495319366455,0.5192307692307693,0.8269230769230769,0.35714285714285715,0.8571428571428571,0.0004
770,1.3532639741897583,1.44622802734375,0.5,0.8269230769230769,0.42857142857142855,0.8571428571428571,0.0004
771,1.3693761825561523,1.2732062339782715,0.46153846153846156,0.8269230769230769,0.42857142857142855,0.8571428571428571,0.0004
772,1.4913044571876526,1.4021424055099487,0.46153846153846156,0.8269230769230769,0.5,0.8571428571428571,0.0004
773,1.2349039912223816,1.2996366024017334,0.5192307692307693,0.8269230769230769,0.42857142857142855,0.8571428571428571,0.0004
774,1.2834188342094421,1.60572350025177,0.5192307692307693,0.8269230769230769,0.21428571428571427,0.8571428571428571,0.0004
775,1.3629246354103088,1.594841480255127,0.5961538461538461,0.8269230769230769,0.35714285714285715,0.8571428571428571,0.0004
776,1.3112343549728394,1.3655705451965332,0.5961538461538461,0.8269230769230769,0.42857142857142855,0.8571428571428571,0.0004
777,1.3101400136947632,1.430336833000183,0.6346153846153846,0.8269230769230769,0.5,0.8571428571428571,0.0004
778,1.3370093703269958,1.4436817169189453,0.46153846153846156,0.8269230769230769,0.35714285714285715,0.8571428571428571,0.0004
779,1.2924857139587402,1.4341630935668945,0.5961538461538461,0.8269230769230769,0.42857142857142855,0.8571428571428571,0.0004
780,1.3448269367218018,1.541540503501892,0.4807692307692308,0.8269230769230769,0.35714285714285715,0.8571428571428571,0.0004
781,1.237489938735962,1.363494634628296,0.5384615384615384,0.8269230769230769,0.5,0.8571428571428571,0.0004
782,1.3689051866531372,1.3263994455337524,0.5576923076923077,0.8269230769230769,0.5714285714285714,0.8571428571428571,0.0004
783,1.2948967218399048,1.438522219657898,0.5,0.8269230769230769,0.35714285714285715,0.8571428571428571,0.0004
784,1.3062766790390015,1.3041291236877441,0.5384615384615384,0.8269230769230769,0.6428571428571429,0.8571428571428571,0.0004
785,1.178405523300171,1.3480778932571411,0.5576923076923077,0.8269230769230769,0.42857142857142855,0.8571428571428571,0.0004
786,1.2903195023536682,1.4478501081466675,0.6153846153846154,0.8269230769230769,0.42857142857142855,0.8571428571428571,0.0004
787,1.2364763021469116,1.5323688983917236,0.5,0.8269230769230769,0.2857142857142857,0.8571428571428571,0.0004
788,1.2697356939315796,1.3596113920211792,0.5769230769230769,0.8269230769230769,0.5,0.8571428571428571,0.0004
789,1.2556974291801453,1.4521472454071045,0.5384615384615384,0.8269230769230769,0.35714285714285715,0.8571428571428571,0.0004
790,1.3804327845573425,1.2978146076202393,0.5384615384615384,0.8269230769230769,0.35714285714285715,0.8571428571428571,0.0004
791,1.3219850659370422,1.5255916118621826,0.5,0.8269230769230769,0.42857142857142855,0.8571428571428571,0.0004
792,1.426639974117279,1.4792509078979492,0.6346153846153846,0.8269230769230769,0.5,0.8571428571428571,0.0004
793,1.2623994946479797,1.4213526248931885,0.4423076923076923,0.8269230769230769,0.35714285714285715,0.8571428571428571,0.0004
794,1.2730244398117065,1.3669987916946411,0.4807692307692308,0.8269230769230769,0.42857142857142855,0.8571428571428571,0.0004
795,1.4301683902740479,1.4017858505249023,0.5384615384615384,0.8076923076923077,0.42857142857142855,0.8571428571428571,0.0004
796,1.2888338565826416,1.4101790189743042,0.5384615384615384,0.8269230769230769,0.5,0.8571428571428571,0.0004
797,1.430694043636322,1.706646203994751,0.5192307692307693,0.8269230769230769,0.35714285714285715,0.8571428571428571,0.0004
798,1.4197786450386047,1.491946816444397,0.5384615384615384,0.8269230769230769,0.42857142857142855,0.8571428571428571,0.0004
799,1.382269561290741,1.3818589448928833,0.46153846153846156,0.8269230769230769,0.5,0.8571428571428571,0.0004
800,1.427122712135315,1.7823925018310547,0.46153846153846156,0.8269230769230769,0.2857142857142857,0.8571428571428571,0.0004
801,1.271994709968567,1.5081167221069336,0.5769230769230769,0.8269230769230769,0.35714285714285715,0.8571428571428571,0.0004
802,1.3445363640785217,1.4350275993347168,0.5576923076923077,0.8269230769230769,0.5,0.8571428571428571,0.0004
803,1.3471438884735107,1.4964532852172852,0.46153846153846156,0.8269230769230769,0.2857142857142857,0.8571428571428571,0.0004
804,1.3520115613937378,1.1484100818634033,0.5384615384615384,0.8269230769230769,0.5714285714285714,0.8571428571428571,0.0004
805,1.2572711110115051,1.3457143306732178,0.6153846153846154,0.8269230769230769,0.42857142857142855,0.8571428571428571,0.0004
806,1.2610955238342285,1.2441529035568237,0.6346153846153846,0.8269230769230769,0.42857142857142855,0.8571428571428571,0.0004
807,1.304965853691101,1.4001259803771973,0.6538461538461539,0.8269230769230769,0.42857142857142855,0.8571428571428571,0.0004
808,1.3331128358840942,1.2662959098815918,0.4423076923076923,0.8269230769230769,0.35714285714285715,0.8571428571428571,0.0004
809,1.3308183550834656,1.3956775665283203,0.5,0.8269230769230769,0.5714285714285714,0.8571428571428571,0.0004
810,1.336286723613739,1.2943940162658691,0.5,0.8269230769230769,0.5,0.8571428571428571,0.0004
811,1.338983416557312,1.3865776062011719,0.5384615384615384,0.8269230769230769,0.5,0.8571428571428571,0.0004
812,1.4910622239112854,1.4166717529296875,0.40384615384615385,0.8269230769230769,0.5714285714285714,0.8571428571428571,0.0004
813,1.2564198970794678,1.4255499839782715,0.5,0.8269230769230769,0.42857142857142855,0.8571428571428571,0.0004
814,1.5068864226341248,1.466238260269165,0.40384615384615385,0.8076923076923077,0.35714285714285715,0.8571428571428571,0.0004
815,1.3749428391456604,1.2521237134933472,0.5,0.8269230769230769,0.5,0.8571428571428571,0.0004
816,1.3868452906608582,1.4743242263793945,0.4423076923076923,0.8269230769230769,0.35714285714285715,0.8571428571428571,0.0004
817,1.3013503551483154,1.2844971418380737,0.5,0.8269230769230769,0.5714285714285714,0.8571428571428571,0.0004
818,1.274871289730072,1.5404057502746582,0.5769230769230769,0.8269230769230769,0.35714285714285715,0.8571428571428571,0.0004
819,1.283203661441803,1.4590239524841309,0.46153846153846156,0.8461538461538461,0.2857142857142857,0.8571428571428571,0.0004
820,1.4447562098503113,1.2655861377716064,0.5576923076923077,0.8269230769230769,0.5714285714285714,0.8571428571428571,0.0004
821,1.408220887184143,1.5211154222488403,0.5384615384615384,0.8269230769230769,0.2857142857142857,0.8571428571428571,0.0004
822,1.2814293503761292,1.2586029767990112,0.5,0.8269230769230769,0.35714285714285715,0.8571428571428571,0.0004
823,1.2777919173240662,1.2239232063293457,0.6346153846153846,0.8269230769230769,0.6428571428571429,0.8571428571428571,0.0004
824,1.3294116258621216,1.1777551174163818,0.4423076923076923,0.8269230769230769,0.5,0.8571428571428571,0.0004
825,1.3405031561851501,1.3112242221832275,0.46153846153846156,0.8269230769230769,0.5,0.8571428571428571,0.0004
826,1.4901426434516907,1.3467472791671753,0.4807692307692308,0.8269230769230769,0.35714285714285715,0.8571428571428571,0.0004
827,1.3746119737625122,1.403226375579834,0.4807692307692308,0.8269230769230769,0.2857142857142857,0.8571428571428571,0.0004
828,1.25890052318573,1.7671352624893188,0.5576923076923077,0.8269230769230769,0.35714285714285715,0.8571428571428571,0.0004
829,1.3495662212371826,1.4402492046356201,0.46153846153846156,0.8269230769230769,0.21428571428571427,0.8571428571428571,0.0004
830,1.296867311000824,1.3923065662384033,0.5384615384615384,0.8269230769230769,0.35714285714285715,0.8571428571428571,0.0004
831,1.4503839015960693,1.3252209424972534,0.4230769230769231,0.8269230769230769,0.5714285714285714,0.8571428571428571,0.0004
832,1.4443066716194153,1.487936019897461,0.34615384615384615,0.8269230769230769,0.2857142857142857,0.8571428571428571,0.0004
833,1.3035305738449097,1.3964471817016602,0.5,0.8269230769230769,0.2857142857142857,0.8571428571428571,0.0004
834,1.3646457195281982,1.499398946762085,0.5769230769230769,0.8269230769230769,0.42857142857142855,0.8571428571428571,0.0004
835,1.329310655593872,1.413492202758789,0.4807692307692308,0.8269230769230769,0.42857142857142855,0.8571428571428571,0.0004
836,1.327979028224945,1.3223165273666382,0.5,0.8269230769230769,0.5,0.8571428571428571,0.0004
837,1.2904400825500488,1.3568940162658691,0.46153846153846156,0.8269230769230769,0.42857142857142855,0.8571428571428571,0.0004
838,1.2827380895614624,1.429273247718811,0.5576923076923077,0.8269230769230769,0.42857142857142855,0.8571428571428571,0.0004
839,1.2441236972808838,1.3219834566116333,0.6346153846153846,0.8269230769230769,0.2857142857142857,0.8571428571428571,0.0004
840,1.3571261763572693,1.3419846296310425,0.4230769230769231,0.8269230769230769,0.5714285714285714,0.8571428571428571,0.0004
841,1.2362563014030457,1.3096293210983276,0.5192307692307693,0.8269230769230769,0.5,0.8571428571428571,0.0004
842,1.2196285128593445,1.1938673257827759,0.5576923076923077,0.8269230769230769,0.5,0.8571428571428571,0.0004
843,1.2630298733711243,1.3723735809326172,0.5192307692307693,0.8269230769230769,0.42857142857142855,0.8571428571428571,0.0004
844,1.325363576412201,1.5052196979522705,0.4807692307692308,0.8269230769230769,0.42857142857142855,0.8571428571428571,0.0004
845,1.3859291076660156,1.320852279663086,0.5961538461538461,0.8269230769230769,0.5714285714285714,0.8571428571428571,0.0004
846,1.0919609665870667,1.3909430503845215,0.7115384615384616,0.8269230769230769,0.42857142857142855,0.8571428571428571,0.0004
847,1.275927484035492,1.3488353490829468,0.5192307692307693,0.8269230769230769,0.35714285714285715,0.8571428571428571,0.0004
848,1.1271917819976807,1.5798547267913818,0.5769230769230769,0.8269230769230769,0.42857142857142855,0.8571428571428571,0.0004
849,1.2667394280433655,1.2615107297897339,0.5384615384615384,0.8269230769230769,0.6428571428571429,0.8571428571428571,0.0004
850,1.3832603096961975,1.5168182849884033,0.6153846153846154,0.8269230769230769,0.5,0.8571428571428571,0.0004
851,1.3216561079025269,1.5611176490783691,0.5769230769230769,0.8269230769230769,0.21428571428571427,0.8571428571428571,0.0004
852,1.2308528423309326,1.407152533531189,0.5384615384615384,0.8076923076923077,0.5714285714285714,0.8571428571428571,0.0004
853,1.2242868542671204,1.779553771018982,0.6153846153846154,0.8269230769230769,0.42857142857142855,0.8571428571428571,0.0004
854,1.454374372959137,1.2998504638671875,0.4807692307692308,0.8269230769230769,0.42857142857142855,0.8571428571428571,0.0004
855,1.194668710231781,1.362032413482666,0.6923076923076923,0.8269230769230769,0.2857142857142857,0.8571428571428571,0.0004
856,1.3355037569999695,1.3901453018188477,0.5769230769230769,0.8269230769230769,0.42857142857142855,0.8571428571428571,0.0004
857,1.5296735167503357,1.6696908473968506,0.5384615384615384,0.8461538461538461,0.5,0.8571428571428571,0.0004
858,1.4144651889801025,1.5366756916046143,0.46153846153846156,0.8269230769230769,0.5,0.8571428571428571,0.0004
859,1.281789481639862,1.4975923299789429,0.5769230769230769,0.8269230769230769,0.5714285714285714,0.8571428571428571,0.0004
860,1.360818862915039,1.5485178232192993,0.5384615384615384,0.8269230769230769,0.35714285714285715,0.8571428571428571,0.0004
861,1.307939887046814,1.6316920518875122,0.46153846153846156,0.8269230769230769,0.35714285714285715,0.8571428571428571,0.0004
862,1.3400760889053345,1.8018065690994263,0.5769230769230769,0.8269230769230769,0.2857142857142857,0.8571428571428571,0.0004
863,1.3976186513900757,1.586688756942749,0.5384615384615384,0.8269230769230769,0.35714285714285715,0.8571428571428571,0.0004
864,1.3379747867584229,1.89380943775177,0.6153846153846154,0.8269230769230769,0.35714285714285715,0.8571428571428571,0.0004
865,1.5378857254981995,1.5706498622894287,0.46153846153846156,0.8269230769230769,0.35714285714285715,0.8571428571428571,0.0004
866,1.4742973446846008,1.4581435918807983,0.5384615384615384,0.8269230769230769,0.5714285714285714,0.8571428571428571,0.0004
867,1.3679890036582947,1.6383532285690308,0.4807692307692308,0.8269230769230769,0.35714285714285715,0.8571428571428571,0.0004
868,1.3356299996376038,2.0405654907226562,0.46153846153846156,0.8269230769230769,0.35714285714285715,0.8571428571428571,0.0004
869,1.4081029295921326,1.4307887554168701,0.5769230769230769,0.8269230769230769,0.42857142857142855,0.8571428571428571,0.0004
870,1.4097601175308228,1.523911714553833,0.6730769230769231,0.8269230769230769,0.5,0.8571428571428571,0.0004
871,1.3541901111602783,1.3923901319503784,0.5,0.8269230769230769,0.35714285714285715,0.8571428571428571,0.0004
872,1.4666586518287659,1.9122483730316162,0.46153846153846156,0.8269230769230769,0.14285714285714285,0.8571428571428571,0.0004
873,1.3774535059928894,1.7874960899353027,0.5961538461538461,0.8269230769230769,0.2857142857142857,0.8571428571428571,0.0004
874,1.314008116722107,1.7408745288848877,0.5384615384615384,0.8269230769230769,0.42857142857142855,0.8571428571428571,0.0004
875,1.3319921493530273,1.7609243392944336,0.5769230769230769,0.8269230769230769,0.42857142857142855,0.8571428571428571,0.0004
876,1.4282087087631226,1.4831169843673706,0.5384615384615384,0.8076923076923077,0.35714285714285715,0.8571428571428571,0.0004
877,1.3682270050048828,1.448410153388977,0.4807692307692308,0.8269230769230769,0.35714285714285715,0.8571428571428571,0.0004
878,1.3689149618148804,1.7321193218231201,0.5384615384615384,0.8269230769230769,0.42857142857142855,0.8571428571428571,0.0004
879,1.3630484342575073,1.4488768577575684,0.5,0.8269230769230769,0.42857142857142855,0.8571428571428571,0.0004
880,1.4174312353134155,1.5114657878875732,0.46153846153846156,0.8269230769230769,0.2857142857142857,0.8571428571428571,0.0004
881,1.2607267498970032,1.4775804281234741,0.5192307692307693,0.8461538461538461,0.5,0.8571428571428571,0.0004
882,1.311440348625183,1.823347806930542,0.5576923076923077,0.8269230769230769,0.14285714285714285,0.8571428571428571,0.0004
883,1.286620855331421,1.6080105304718018,0.5961538461538461,0.8269230769230769,0.2857142857142857,0.8571428571428571,0.0004
884,1.2734876871109009,1.6602678298950195,0.5576923076923077,0.8269230769230769,0.21428571428571427,0.8571428571428571,0.0004
885,1.4042548537254333,1.5216047763824463,0.5192307692307693,0.8269230769230769,0.35714285714285715,0.8571428571428571,0.0004
886,1.330971360206604,1.4344918727874756,0.5192307692307693,0.8269230769230769,0.42857142857142855,0.8571428571428571,0.0004
887,1.2545655965805054,1.5457743406295776,0.5192307692307693,0.8269230769230769,0.5,0.8571428571428571,0.0004
888,1.4315811395645142,1.3348143100738525,0.4807692307692308,0.8269230769230769,0.42857142857142855,0.8571428571428571,0.0004
889,1.2797114253044128,1.5276960134506226,0.5384615384615384,0.8076923076923077,0.5,0.8571428571428571,0.0004
890,1.2444305419921875,1.5264837741851807,0.5576923076923077,0.8269230769230769,0.5,0.8571428571428571,0.0004
891,1.3507230281829834,1.5319808721542358,0.5576923076923077,0.8269230769230769,0.35714285714285715,0.8571428571428571,0.0004
892,1.4142309427261353,1.5122736692428589,0.5961538461538461,0.8269230769230769,0.5,0.8571428571428571,0.0004
893,1.2465301752090454,1.721233606338501,0.6730769230769231,0.8269230769230769,0.2857142857142857,0.8571428571428571,0.0004
894,1.3204529285430908,1.531020164489746,0.6730769230769231,0.8269230769230769,0.5714285714285714,0.8571428571428571,0.0004
895,1.3058542609214783,1.4761931896209717,0.5384615384615384,0.8269230769230769,0.42857142857142855,0.8571428571428571,0.0004
896,1.4173903465270996,1.4719536304473877,0.5961538461538461,0.8269230769230769,0.42857142857142855,0.8571428571428571,0.0004
897,1.2723191976547241,1.4902621507644653,0.5961538461538461,0.8269230769230769,0.5714285714285714,0.8571428571428571,0.0004
898,1.398811936378479,1.6587204933166504,0.5192307692307693,0.8269230769230769,0.21428571428571427,0.8571428571428571,0.0004
899,1.4210197925567627,1.5750418901443481,0.6153846153846154,0.8269230769230769,0.35714285714285715,0.8571428571428571,0.0004
900,1.4135574698448181,1.528606653213501,0.5769230769230769,0.8269230769230769,0.35714285714285715,0.8571428571428571,0.0004
901,1.3120246529579163,1.4925894737243652,0.5,0.8269230769230769,0.35714285714285715,0.8571428571428571,0.0004
902,1.378053903579712,1.5912861824035645,0.5192307692307693,0.8269230769230769,0.21428571428571427,0.8571428571428571,0.0004
903,1.3199208974838257,1.5114078521728516,0.5192307692307693,0.8269230769230769,0.42857142857142855,0.8571428571428571,0.0004
904,1.366564929485321,1.529361605644226,0.5192307692307693,0.8269230769230769,0.2857142857142857,0.8571428571428571,0.0004
905,1.352524995803833,1.5987792015075684,0.5961538461538461,0.8269230769230769,0.2857142857142857,0.8571428571428571,0.0004
906,1.3182825446128845,1.6754337549209595,0.5576923076923077,0.8269230769230769,0.14285714285714285,0.8571428571428571,0.0004
907,1.3547207713127136,1.5040953159332275,0.5576923076923077,0.8269230769230769,0.35714285714285715,0.8571428571428571,0.0004
908,1.3895522356033325,1.489608883857727,0.5384615384615384,0.8269230769230769,0.2857142857142857,0.8571428571428571,0.0004
909,1.3676079511642456,1.632362723350525,0.5384615384615384,0.8269230769230769,0.21428571428571427,0.8571428571428571,0.0004
910,1.5188448429107666,1.6574294567108154,0.5,0.8269230769230769,0.42857142857142855,0.8571428571428571,0.0004
911,1.2869604229927063,1.3928114175796509,0.5576923076923077,0.8269230769230769,0.42857142857142855,0.8571428571428571,0.0004
912,1.3583229184150696,1.5448622703552246,0.4807692307692308,0.8269230769230769,0.2857142857142857,0.8571428571428571,0.0004
913,1.3148613572120667,1.5896564722061157,0.5576923076923077,0.8269230769230769,0.21428571428571427,0.8571428571428571,0.0004
914,1.3506893515586853,1.3733851909637451,0.5192307692307693,0.8269230769230769,0.5,0.8571428571428571,0.0004
915,1.3543910384178162,1.5469075441360474,0.5576923076923077,0.8269230769230769,0.2857142857142857,0.8571428571428571,0.0004
916,1.324710488319397,1.5826563835144043,0.5192307692307693,0.8269230769230769,0.21428571428571427,0.8571428571428571,0.0004
917,1.3566497564315796,1.5461792945861816,0.46153846153846156,0.8269230769230769,0.35714285714285715,0.8571428571428571,0.0004
918,1.3230358958244324,1.4930393695831299,0.5961538461538461,0.8269230769230769,0.35714285714285715,0.8571428571428571,0.0004
919,1.4089734554290771,1.6537079811096191,0.4807692307692308,0.8269230769230769,0.2857142857142857,0.8571428571428571,0.0004
920,1.276286780834198,1.4286882877349854,0.5961538461538461,0.8269230769230769,0.5,0.8571428571428571,0.0004
921,1.3612085580825806,1.5765223503112793,0.5769230769230769,0.8269230769230769,0.21428571428571427,0.8571428571428571,0.0004
922,1.2468291521072388,1.7367956638336182,0.5769230769230769,0.8269230769230769,0.14285714285714285,0.8571428571428571,0.0004
923,1.4110896587371826,1.4067476987838745,0.5769230769230769,0.8269230769230769,0.5,0.8571428571428571,0.0004
924,1.3688421249389648,1.652350664138794,0.4807692307692308,0.8269230769230769,0.42857142857142855,0.8571428571428571,0.0004
925,1.2239560782909393,1.3931777477264404,0.6153846153846154,0.8269230769230769,0.6428571428571429,0.8571428571428571,0.0004
926,1.2979865074157715,1.4750065803527832,0.5192307692307693,0.8269230769230769,0.42857142857142855,0.8571428571428571,0.0004
927,1.3625863790512085,1.4136853218078613,0.5961538461538461,0.8269230769230769,0.5714285714285714,0.8571428571428571,0.0004
928,1.432896077632904,1.6544246673583984,0.5769230769230769,0.8269230769230769,0.14285714285714285,0.8571428571428571,0.0004
929,1.4160556197166443,1.576531171798706,0.5,0.8269230769230769,0.42857142857142855,0.8571428571428571,0.0004
930,1.383354365825653,1.5711489915847778,0.5769230769230769,0.8269230769230769,0.21428571428571427,0.8571428571428571,0.0004
931,1.3025034070014954,1.6527183055877686,0.5576923076923077,0.8269230769230769,0.21428571428571427,0.8571428571428571,0.0004
932,1.464012861251831,1.4091229438781738,0.5192307692307693,0.8269230769230769,0.5714285714285714,0.8571428571428571,0.0004
933,1.3416414260864258,1.5645904541015625,0.6153846153846154,0.8269230769230769,0.42857142857142855,0.8571428571428571,0.0004
934,1.296940803527832,1.4771085977554321,0.5576923076923077,0.8269230769230769,0.5,0.8571428571428571,0.0004
935,1.3264484405517578,1.4922322034835815,0.6538461538461539,0.8269230769230769,0.5,0.8571428571428571,0.0004
936,1.2984067797660828,1.4067926406860352,0.6153846153846154,0.8269230769230769,0.6428571428571429,0.8571428571428571,0.0004
937,1.3944979310035706,1.5391733646392822,0.4807692307692308,0.8269230769230769,0.2857142857142857,0.8571428571428571,0.0004
938,1.356623113155365,1.3715827465057373,0.5,0.8269230769230769,0.5,0.8571428571428571,0.0004
939,1.2650582194328308,1.6098867654800415,0.6538461538461539,0.8269230769230769,0.35714285714285715,0.8571428571428571,0.0004
940,1.346060574054718,1.4989951848983765,0.5769230769230769,0.8269230769230769,0.42857142857142855,0.8571428571428571,0.0004
941,1.2743062376976013,1.365919589996338,0.6153846153846154,0.8269230769230769,0.5,0.8571428571428571,0.0004
942,1.3393542766571045,1.397404432296753,0.6538461538461539,0.8269230769230769,0.5714285714285714,0.8571428571428571,0.0004
943,1.3571985960006714,1.4423537254333496,0.5769230769230769,0.8269230769230769,0.5,0.8571428571428571,0.0004
944,1.3140704035758972,1.4024224281311035,0.5769230769230769,0.8269230769230769,0.5714285714285714,0.8571428571428571,0.0004
945,1.4130341410636902,1.3310186862945557,0.5384615384615384,0.8269230769230769,0.5714285714285714,0.8571428571428571,0.0004
946,1.4460577964782715,1.5203428268432617,0.5961538461538461,0.8269230769230769,0.42857142857142855,0.8571428571428571,0.0004
947,1.2288355231285095,1.3555892705917358,0.5769230769230769,0.8269230769230769,0.42857142857142855,0.8571428571428571,0.0004
948,1.380515992641449,1.2974252700805664,0.4807692307692308,0.8269230769230769,0.5,0.8571428571428571,0.0004
949,1.322518765926361,1.3305461406707764,0.5769230769230769,0.8269230769230769,0.5,0.8571428571428571,0.0004
950,1.251385748386383,1.2671798467636108,0.6923076923076923,0.8269230769230769,0.6428571428571429,0.8571428571428571,0.0004
951,1.346252679824829,1.2231078147888184,0.5769230769230769,0.8269230769230769,0.5,0.8571428571428571,0.0004
952,1.3471259474754333,1.3254330158233643,0.5384615384615384,0.8269230769230769,0.5,0.8571428571428571,0.0004
953,1.3198730945587158,1.3623077869415283,0.75,0.8269230769230769,0.42857142857142855,0.8571428571428571,0.0004
954,1.3217434883117676,1.5000699758529663,0.5576923076923077,0.8269230769230769,0.42857142857142855,0.8571428571428571,0.0004
955,1.2789425253868103,1.6169214248657227,0.5576923076923077,0.8269230769230769,0.35714285714285715,0.8571428571428571,0.0004
956,1.470246434211731,1.469010591506958,0.46153846153846156,0.8269230769230769,0.5,0.8571428571428571,0.0004
957,1.2150978446006775,1.5575681924819946,0.6730769230769231,0.8269230769230769,0.42857142857142855,0.8571428571428571,0.0004
958,1.2579501867294312,1.4258184432983398,0.6538461538461539,0.8269230769230769,0.42857142857142855,0.8571428571428571,0.0004
959,1.3128514885902405,1.5501017570495605,0.4807692307692308,0.8269230769230769,0.35714285714285715,0.8571428571428571,0.0004
960,1.2711908221244812,1.4168522357940674,0.6153846153846154,0.8269230769230769,0.5,0.8571428571428571,0.0004
961,1.2819794416427612,1.4149489402770996,0.5384615384615384,0.8269230769230769,0.5,0.8571428571428571,0.0004
962,1.2836834192276,1.4543976783752441,0.5769230769230769,0.8269230769230769,0.42857142857142855,0.8571428571428571,0.0004
963,1.3331602215766907,1.410808801651001,0.5192307692307693,0.8269230769230769,0.42857142857142855,0.8571428571428571,0.0004
964,1.5106351375579834,1.4172992706298828,0.5192307692307693,0.8269230769230769,0.5714285714285714,0.8571428571428571,0.0004
965,1.39029461145401,1.5370676517486572,0.46153846153846156,0.8076923076923077,0.35714285714285715,0.8571428571428571,0.0004
966,1.409152328968048,1.601738452911377,0.40384615384615385,0.8269230769230769,0.42857142857142855,0.8571428571428571,0.0004
967,1.5375200510025024,1.4740716218948364,0.36538461538461536,0.8269230769230769,0.5,0.8571428571428571,0.0004
968,1.3496689796447754,1.4712061882019043,0.46153846153846156,0.8076923076923077,0.5714285714285714,0.8571428571428571,0.0004
969,1.5219379663467407,1.3579800128936768,0.4423076923076923,0.8269230769230769,0.5,0.8571428571428571,0.0004
970,1.3573477864265442,1.394660234451294,0.46153846153846156,0.8269230769230769,0.5714285714285714,0.8571428571428571,0.0004
971,1.5165796279907227,1.6816420555114746,0.5192307692307693,0.8076923076923077,0.5,0.8571428571428571,0.0004
972,1.3343474864959717,1.5275954008102417,0.5769230769230769,0.8269230769230769,0.42857142857142855,0.8571428571428571,0.0004
973,1.4107388854026794,1.5516564846038818,0.5,0.8269230769230769,0.42857142857142855,0.8571428571428571,0.0004
974,1.4462739825248718,1.4818143844604492,0.5192307692307693,0.8269230769230769,0.5714285714285714,0.8571428571428571,0.0004
975,1.2964903116226196,1.4820959568023682,0.40384615384615385,0.8269230769230769,0.2857142857142857,0.8571428571428571,0.0004
976,1.3171746730804443,1.2039955854415894,0.5384615384615384,0.8269230769230769,0.7142857142857143,0.8571428571428571,0.0004
977,1.3609432578086853,1.5036462545394897,0.5192307692307693,0.8269230769230769,0.5714285714285714,0.8571428571428571,0.0004
978,1.1434640288352966,1.2835801839828491,0.6538461538461539,0.8269230769230769,0.7142857142857143,0.8571428571428571,0.0004
979,1.2831948399543762,1.3559516668319702,0.5192307692307693,0.8269230769230769,0.5714285714285714,0.8571428571428571,0.0004
980,1.3823952674865723,1.6481819152832031,0.5,0.8269230769230769,0.5,0.8571428571428571,0.0004
981,1.401516616344452,1.2858325242996216,0.5,0.8269230769230769,0.42857142857142855,0.8571428571428571,0.0004
982,1.2498818635940552,1.2761831283569336,0.4230769230769231,0.8269230769230769,0.5,0.8571428571428571,0.0004
983,1.2210922241210938,1.5416687726974487,0.6153846153846154,0.8269230769230769,0.5714285714285714,0.8571428571428571,0.0004
984,1.3098403811454773,1.8732799291610718,0.46153846153846156,0.8269230769230769,0.35714285714285715,0.8571428571428571,0.0004
985,1.249346673488617,1.599481463432312,0.5576923076923077,0.8269230769230769,0.5714285714285714,0.8571428571428571,0.0004
986,1.243278980255127,2.500821113586426,0.5961538461538461,0.8269230769230769,0.35714285714285715,0.8571428571428571,0.0004
987,2.0016192197799683,2.0668118000030518,0.5769230769230769,0.8269230769230769,0.35714285714285715,0.8571428571428571,0.0004
988,1.5611851811408997,1.1949174404144287,0.5384615384615384,0.8269230769230769,0.5714285714285714,0.8571428571428571,0.0004
989,1.3888930678367615,1.495201826095581,0.5384615384615384,0.8269230769230769,0.42857142857142855,0.8571428571428571,0.0004
990,1.5421969294548035,1.2063093185424805,0.5192307692307693,0.8269230769230769,0.7142857142857143,0.8571428571428571,0.0004
