epoch,train_loss,val_loss,train_acc_action,train_acc_status,val_acc_action,val_acc_status,learning_rate
1,1.8220078945159912,1.8223402500152588,0.36538461538461536,0.17307692307692307,0.21428571428571427,0.14285714285714285,0.0004
2,1.8027941584587097,1.8064143657684326,0.36538461538461536,0.17307692307692307,0.21428571428571427,0.14285714285714285,0.0004
3,1.7859834432601929,1.7905791997909546,0.36538461538461536,0.5192307692307693,0.21428571428571427,0.8571428571428571,0.0004
4,1.772628903388977,1.7738889455795288,0.36538461538461536,0.8269230769230769,0.21428571428571427,0.8571428571428571,0.0004
5,1.7595379948616028,1.7559090852737427,0.36538461538461536,0.8269230769230769,0.21428571428571427,0.8571428571428571,0.0004
6,1.7392918467521667,1.7355397939682007,0.36538461538461536,0.8269230769230769,0.21428571428571427,0.8571428571428571,0.0004
7,1.69931298494339,1.7101244926452637,0.36538461538461536,0.8269230769230769,0.21428571428571427,0.8571428571428571,0.0004
8,1.6637003421783447,1.6807665824890137,0.36538461538461536,0.8269230769230769,0.21428571428571427,0.8571428571428571,0.0004
9,1.6598225235939026,1.641269564628601,0.36538461538461536,0.8269230769230769,0.21428571428571427,0.8571428571428571,0.0004
10,1.605604112148285,1.5955801010131836,0.36538461538461536,0.8269230769230769,0.21428571428571427,0.8571428571428571,0.0004
11,1.5747361779212952,1.5655159950256348,0.38461538461538464,0.8269230769230769,0.07142857142857142,0.8571428571428571,0.0004
12,1.521083652973175,1.5543078184127808,0.3269230769230769,0.8269230769230769,0.2857142857142857,0.8571428571428571,0.0004
13,1.52758127450943,1.5665515661239624,0.4230769230769231,0.8269230769230769,0.21428571428571427,0.8571428571428571,0.0004
14,1.5422502160072327,1.509371042251587,0.3269230769230769,0.8269230769230769,0.35714285714285715,0.8571428571428571,0.0004
15,1.5000288486480713,1.6841351985931396,0.36538461538461536,0.8269230769230769,0.07142857142857142,0.8571428571428571,0.0004
16,1.5650925040245056,1.6696105003356934,0.38461538461538464,0.8269230769230769,0.21428571428571427,0.8571428571428571,0.0004
17,1.3941925764083862,1.5879569053649902,0.4230769230769231,0.8269230769230769,0.21428571428571427,0.8571428571428571,0.0004
18,1.5063178539276123,1.6044154167175293,0.4230769230769231,0.8269230769230769,0.42857142857142855,0.8571428571428571,0.0004
19,1.506176769733429,1.605272650718689,0.5192307692307693,0.8269230769230769,0.42857142857142855,0.8571428571428571,0.0004
20,1.4633535742759705,1.5789897441864014,0.5,0.8269230769230769,0.42857142857142855,0.8571428571428571,0.0004
21,1.4723514318466187,1.5496091842651367,0.4423076923076923,0.8269230769230769,0.42857142857142855,0.8571428571428571,0.0004
22,1.4125664830207825,1.6632394790649414,0.5,0.8269230769230769,0.5,0.8571428571428571,0.0004
23,1.484794020652771,1.5503919124603271,0.5192307692307693,0.8269230769230769,0.5,0.8571428571428571,0.0004
24,1.4187679290771484,1.5610058307647705,0.46153846153846156,0.8269230769230769,0.5,0.8571428571428571,0.0004
25,1.4551931619644165,1.4376164674758911,0.4807692307692308,0.8269230769230769,0.5714285714285714,0.8571428571428571,0.0004
26,1.4422799944877625,1.4474996328353882,0.5192307692307693,0.8269230769230769,0.5714285714285714,0.8571428571428571,0.0004
27,1.4748679995536804,1.4326196908950806,0.5769230769230769,0.8269230769230769,0.6428571428571429,0.8571428571428571,0.0004
28,1.4512185454368591,1.6973382234573364,0.6538461538461539,0.8269230769230769,0.5,0.8571428571428571,0.0004
29,1.420974612236023,1.4321537017822266,0.5,0.8269230769230769,0.5714285714285714,0.8571428571428571,0.0004
30,1.348738431930542,1.6057384014129639,0.5961538461538461,0.8269230769230769,0.6428571428571429,0.8571428571428571,0.0004
31,1.4053892493247986,1.4077000617980957,0.5769230769230769,0.8269230769230769,0.7142857142857143,0.8571428571428571,0.0004
32,1.447676956653595,1.4816967248916626,0.5576923076923077,0.8269230769230769,0.6428571428571429,0.8571428571428571,0.0004
33,1.391604244709015,1.3085148334503174,0.5192307692307693,0.8269230769230769,0.7142857142857143,0.8571428571428571,0.0004
34,1.2905014753341675,1.240094780921936,0.5769230769230769,0.8269230769230769,0.5,0.8571428571428571,0.0004
35,1.4262916445732117,1.355639934539795,0.5192307692307693,0.8269230769230769,0.7857142857142857,0.8571428571428571,0.0004
36,1.2467190027236938,1.3915905952453613,0.5769230769230769,0.8269230769230769,0.5,0.8571428571428571,0.0004
37,1.2991726994514465,1.427223563194275,0.4807692307692308,0.8269230769230769,0.5714285714285714,0.8571428571428571,0.0004
38,1.1590570211410522,1.1888229846954346,0.6538461538461539,0.8269230769230769,0.6428571428571429,0.8571428571428571,0.0004
39,1.2040139436721802,1.1071460247039795,0.5192307692307693,0.8269230769230769,0.7142857142857143,0.8571428571428571,0.0004
40,1.1852542161941528,1.1334075927734375,0.6538461538461539,0.8269230769230769,0.6428571428571429,0.8571428571428571,0.0004
41,1.2270582914352417,1.0593847036361694,0.5192307692307693,0.8269230769230769,0.5714285714285714,0.8571428571428571,0.0004
42,1.3172913789749146,1.2530736923217773,0.5576923076923077,0.8269230769230769,0.5714285714285714,0.8571428571428571,0.0004
43,1.163530945777893,1.4081742763519287,0.5961538461538461,0.8269230769230769,0.5714285714285714,0.8571428571428571,0.0004
44,1.11601722240448,1.2467424869537354,0.6153846153846154,0.8269230769230769,0.6428571428571429,0.8571428571428571,0.0004
45,1.184380829334259,1.1446864604949951,0.5576923076923077,0.8269230769230769,0.7857142857142857,0.8571428571428571,0.0004
46,1.286482334136963,1.1214522123336792,0.5576923076923077,0.8269230769230769,0.7142857142857143,0.8571428571428571,0.0004
47,1.1550182104110718,1.81559157371521,0.5384615384615384,0.8269230769230769,0.5714285714285714,0.8571428571428571,0.0004
48,1.2473907470703125,1.1191520690917969,0.5,0.8269230769230769,0.6428571428571429,0.8571428571428571,0.0004
49,1.3081077337265015,1.1211789846420288,0.5384615384615384,0.8269230769230769,0.6428571428571429,0.8571428571428571,0.0004
50,1.281057745218277,1.2551463842391968,0.5961538461538461,0.8269230769230769,0.7857142857142857,0.8571428571428571,0.0004
51,1.0275823771953583,1.2131187915802002,0.5961538461538461,0.8269230769230769,0.7857142857142857,0.8571428571428571,0.0004
52,1.338918685913086,1.113805890083313,0.46153846153846156,0.8269230769230769,0.7857142857142857,0.8571428571428571,0.0004
53,1.3406206369400024,1.425782561302185,0.5576923076923077,0.8269230769230769,0.5714285714285714,0.8571428571428571,0.0004
54,1.2522975206375122,1.1726527214050293,0.5576923076923077,0.8269230769230769,0.7142857142857143,0.8571428571428571,0.0004
55,1.1617056727409363,1.050986409187317,0.5769230769230769,0.8269230769230769,0.7857142857142857,0.8571428571428571,0.0004
56,1.1496379971504211,0.9540712833404541,0.5769230769230769,0.8269230769230769,0.7857142857142857,0.8571428571428571,0.0004
57,1.2801820039749146,1.0584356784820557,0.5192307692307693,0.8269230769230769,0.6428571428571429,0.8571428571428571,0.0004
58,1.239198088645935,1.1724822521209717,0.5,0.8269230769230769,0.6428571428571429,0.8571428571428571,0.0004
59,1.149096667766571,1.4965667724609375,0.6153846153846154,0.8269230769230769,0.6428571428571429,0.8571428571428571,0.0004
60,1.153550624847412,1.1052796840667725,0.6153846153846154,0.8269230769230769,0.5,0.8571428571428571,0.0004
61,1.1732841730117798,1.2137629985809326,0.6346153846153846,0.8269230769230769,0.7857142857142857,0.8571428571428571,0.0004
62,1.0732490420341492,1.085243821144104,0.6153846153846154,0.8269230769230769,0.7142857142857143,0.8571428571428571,0.0004
63,1.0298506021499634,1.3753817081451416,0.6923076923076923,0.8269230769230769,0.6428571428571429,0.8571428571428571,0.0004
64,1.208432376384735,1.3954216241836548,0.5576923076923077,0.8269230769230769,0.5,0.8571428571428571,0.0004
65,1.2219771146774292,1.1561342477798462,0.6153846153846154,0.8269230769230769,0.6428571428571429,0.8571428571428571,0.0004
66,1.0609556436538696,1.545809030532837,0.6730769230769231,0.8269230769230769,0.5714285714285714,0.8571428571428571,0.0004
67,1.050432801246643,1.4377931356430054,0.6153846153846154,0.8269230769230769,0.42857142857142855,0.8571428571428571,0.0004
68,1.0883868336677551,1.3727842569351196,0.6346153846153846,0.8269230769230769,0.5,0.8571428571428571,0.0004
69,1.1221227943897247,1.4587324857711792,0.6538461538461539,0.8269230769230769,0.7142857142857143,0.8571428571428571,0.0004
70,1.0980796813964844,1.3006229400634766,0.6730769230769231,0.8269230769230769,0.8571428571428571,0.8571428571428571,0.0004
71,1.031520962715149,1.1161798238754272,0.5769230769230769,0.8269230769230769,0.8571428571428571,0.8571428571428571,0.0004
72,1.3773237466812134,1.4010801315307617,0.46153846153846156,0.8269230769230769,0.5,0.8571428571428571,0.0004
73,1.0976919531822205,0.9102705121040344,0.5769230769230769,0.8269230769230769,0.7857142857142857,0.8571428571428571,0.0004
74,1.1523704528808594,1.5924057960510254,0.5769230769230769,0.8269230769230769,0.5714285714285714,0.8571428571428571,0.0004
75,1.3471478819847107,1.3812998533248901,0.6153846153846154,0.8269230769230769,0.7857142857142857,0.8571428571428571,0.0004
76,1.0326241254806519,1.6104072332382202,0.6730769230769231,0.8269230769230769,0.7142857142857143,0.8571428571428571,0.0004
77,1.2176014184951782,1.940201759338379,0.6923076923076923,0.8269230769230769,0.5714285714285714,0.8571428571428571,0.0004
78,1.149553894996643,1.297062873840332,0.7115384615384616,0.8269230769230769,0.6428571428571429,0.8571428571428571,0.0004
79,1.052126169204712,1.4098700284957886,0.6346153846153846,0.8269230769230769,0.6428571428571429,0.8571428571428571,0.0004
80,1.0432175397872925,1.26747465133667,0.6730769230769231,0.8269230769230769,0.6428571428571429,0.8571428571428571,0.0004
81,1.1954252123832703,1.3615715503692627,0.5576923076923077,0.8269230769230769,0.5,0.8571428571428571,0.0004
82,1.024554967880249,1.458786129951477,0.6730769230769231,0.8269230769230769,0.7142857142857143,0.8571428571428571,0.0004
83,1.1751351952552795,1.2286217212677002,0.5961538461538461,0.8269230769230769,0.7142857142857143,0.8571428571428571,0.0004
84,1.1034562587738037,1.2613016366958618,0.6346153846153846,0.8269230769230769,0.5,0.8571428571428571,0.0004
85,1.161867082118988,1.5963093042373657,0.6153846153846154,0.8269230769230769,0.5714285714285714,0.8571428571428571,0.0004
86,1.1390567421913147,1.2413506507873535,0.7115384615384616,0.8269230769230769,0.8571428571428571,0.8571428571428571,0.0004
87,1.1251041293144226,1.5288103818893433,0.6346153846153846,0.8269230769230769,0.42857142857142855,0.8571428571428571,0.0004
88,1.0632817149162292,1.3578855991363525,0.6923076923076923,0.8269230769230769,0.5714285714285714,0.8571428571428571,0.0004
89,1.2975552082061768,1.3862711191177368,0.5576923076923077,0.8269230769230769,0.5,0.8571428571428571,0.0004
90,1.1191984415054321,1.5388110876083374,0.6538461538461539,0.8269230769230769,0.6428571428571429,0.8571428571428571,0.0004
91,1.1561164259910583,1.5692965984344482,0.6538461538461539,0.8269230769230769,0.7142857142857143,0.8571428571428571,0.0004
92,1.0400300025939941,1.2722086906433105,0.6923076923076923,0.8269230769230769,0.6428571428571429,0.8571428571428571,0.0004
93,1.0516358613967896,1.2931103706359863,0.6923076923076923,0.8461538461538461,0.7857142857142857,0.8571428571428571,0.0004
94,1.0073320269584656,1.619861364364624,0.7115384615384616,0.8269230769230769,0.5714285714285714,0.8571428571428571,0.0004
95,1.1401779055595398,1.0859442949295044,0.5961538461538461,0.8461538461538461,0.7142857142857143,0.8571428571428571,0.0004
96,1.030134916305542,1.016839861869812,0.7115384615384616,0.8653846153846154,0.8571428571428571,0.8571428571428571,0.0004
97,1.121412307024002,1.2204468250274658,0.6730769230769231,0.8269230769230769,0.5714285714285714,0.8571428571428571,0.0004
98,1.0938513278961182,1.3371977806091309,0.6538461538461539,0.8269230769230769,0.6428571428571429,0.8571428571428571,0.0004
99,0.9754230976104736,1.5417890548706055,0.6923076923076923,0.8461538461538461,0.8571428571428571,0.7857142857142857,0.0004
100,1.1206738948822021,1.0989969968795776,0.6538461538461539,0.8461538461538461,0.8571428571428571,0.8571428571428571,0.0004
101,0.8788356781005859,1.27834153175354,0.8076923076923077,0.8269230769230769,0.42857142857142855,0.8571428571428571,0.0004
102,1.2906026244163513,1.7310553789138794,0.6346153846153846,0.8461538461538461,0.5,0.9285714285714286,0.0004
103,1.0225816369056702,1.6548823118209839,0.6923076923076923,0.8461538461538461,0.5,0.8571428571428571,0.0004
104,1.228997826576233,1.1388421058654785,0.6346153846153846,0.8269230769230769,0.7857142857142857,0.9285714285714286,0.0004
105,0.9918522238731384,1.2327587604522705,0.5769230769230769,0.8269230769230769,0.7142857142857143,0.8571428571428571,0.0004
106,1.0959285497665405,0.793160617351532,0.6923076923076923,0.8461538461538461,0.7857142857142857,0.9285714285714286,0.0004
107,1.0192965865135193,1.2279047966003418,0.6923076923076923,0.8461538461538461,0.6428571428571429,0.8571428571428571,0.0004
108,1.176694393157959,0.7866723537445068,0.6730769230769231,0.8653846153846154,0.8571428571428571,0.8571428571428571,0.0004
109,0.8924170136451721,0.9250764846801758,0.75,0.8461538461538461,0.7142857142857143,0.8571428571428571,0.0004
110,1.0814918279647827,0.6637863516807556,0.6730769230769231,0.8653846153846154,0.7857142857142857,0.9285714285714286,0.0004
111,1.1551332473754883,1.0655052661895752,0.5576923076923077,0.8269230769230769,0.6428571428571429,0.8571428571428571,0.0004
112,1.0734411478042603,1.3348047733306885,0.7115384615384616,0.8653846153846154,0.6428571428571429,0.8571428571428571,0.0004
113,1.0731804370880127,0.8353212475776672,0.6730769230769231,0.8269230769230769,0.8571428571428571,0.8571428571428571,0.0004
114,1.1254123747348785,1.1207647323608398,0.6153846153846154,0.8269230769230769,0.7857142857142857,0.8571428571428571,0.0004
115,0.9783659875392914,0.784892201423645,0.7115384615384616,0.8461538461538461,0.9285714285714286,0.8571428571428571,0.0004
116,0.9811364412307739,0.8239156603813171,0.6923076923076923,0.8653846153846154,0.7857142857142857,0.8571428571428571,0.0004
117,1.1375441551208496,1.6293529272079468,0.5769230769230769,0.9038461538461539,0.6428571428571429,0.8571428571428571,0.0004
118,1.0530878901481628,0.8943198919296265,0.6730769230769231,0.8653846153846154,0.7857142857142857,0.8571428571428571,0.0004
119,1.0203629732131958,0.6635054349899292,0.6538461538461539,0.8846153846153846,0.8571428571428571,1.0,0.0004
120,1.0804754495620728,0.866763710975647,0.6346153846153846,0.9038461538461539,0.7857142857142857,0.8571428571428571,0.0004
121,1.004825472831726,1.6585363149642944,0.6923076923076923,0.9230769230769231,0.7142857142857143,0.7857142857142857,0.0004
122,0.9662072658538818,1.429563045501709,0.7115384615384616,0.9423076923076923,0.7857142857142857,0.7857142857142857,0.0004
123,1.0872317850589752,1.0716861486434937,0.6153846153846154,0.8653846153846154,0.7142857142857143,0.8571428571428571,0.0004
124,1.0745286047458649,0.7033281326293945,0.6538461538461539,0.8846153846153846,0.8571428571428571,0.9285714285714286,0.0004
125,0.982733279466629,1.2625902891159058,0.7115384615384616,0.9038461538461539,0.7142857142857143,0.9285714285714286,0.0004
126,1.1185981631278992,1.3473918437957764,0.5961538461538461,0.8653846153846154,0.7142857142857143,0.8571428571428571,0.0004
127,0.9496691823005676,0.871188759803772,0.6730769230769231,0.9423076923076923,0.7142857142857143,0.9285714285714286,0.0004
128,0.9303091466426849,1.2685081958770752,0.7307692307692307,0.9423076923076923,0.7142857142857143,0.8571428571428571,0.0004
129,1.1033576130867004,0.8814532160758972,0.7307692307692307,0.8461538461538461,0.6428571428571429,0.8571428571428571,0.0004
130,0.9473568797111511,1.147768259048462,0.7307692307692307,0.9038461538461539,0.7142857142857143,0.7142857142857143,0.0004
131,1.0742996335029602,1.0173141956329346,0.7115384615384616,0.8461538461538461,0.7142857142857143,0.8571428571428571,0.0004
132,0.9404065310955048,1.1821998357772827,0.75,0.8461538461538461,0.7857142857142857,0.8571428571428571,0.0004
133,1.1448107957839966,0.8848999738693237,0.6153846153846154,0.9038461538461539,0.7857142857142857,0.9285714285714286,0.0004
134,0.8921736776828766,1.2545143365859985,0.7307692307692307,0.9230769230769231,0.7857142857142857,0.8571428571428571,0.0004
135,0.9391777217388153,0.705159604549408,0.75,0.8653846153846154,0.9285714285714286,0.9285714285714286,0.0004
136,1.0291416645050049,1.191043496131897,0.6346153846153846,0.9230769230769231,0.7142857142857143,0.8571428571428571,0.0004
137,0.988795816898346,0.909071683883667,0.6346153846153846,0.9230769230769231,0.7142857142857143,0.8571428571428571,0.0004
138,1.0649577379226685,0.9519249200820923,0.6923076923076923,0.8269230769230769,0.7857142857142857,0.8571428571428571,0.0004
139,1.2291415333747864,0.9961363077163696,0.5769230769230769,0.8461538461538461,0.7142857142857143,0.8571428571428571,0.0004
140,1.0143366158008575,1.4568761587142944,0.6730769230769231,0.8461538461538461,0.5,0.8571428571428571,0.0004
141,0.8788133859634399,0.8960983753204346,0.6923076923076923,0.9423076923076923,0.8571428571428571,0.8571428571428571,0.0004
142,0.7454659938812256,1.0931599140167236,0.8461538461538461,0.9230769230769231,0.7142857142857143,0.8571428571428571,0.0004
143,0.8948627412319183,0.5663836598396301,0.7115384615384616,0.9230769230769231,0.9285714285714286,0.9285714285714286,0.0004
144,0.9303008913993835,1.0942476987838745,0.75,0.9230769230769231,0.6428571428571429,0.7857142857142857,0.0004
145,0.9275008738040924,1.4826133251190186,0.6923076923076923,0.8846153846153846,0.6428571428571429,0.8571428571428571,0.0004
146,1.0136602520942688,1.3439408540725708,0.6538461538461539,0.8461538461538461,0.5,0.7857142857142857,0.0004
147,1.1607166528701782,1.164851427078247,0.6346153846153846,0.8846153846153846,0.6428571428571429,0.9285714285714286,0.0004
148,1.0174535512924194,1.2736262083053589,0.6346153846153846,0.9038461538461539,0.5714285714285714,0.8571428571428571,0.0004
149,1.0217388272285461,1.1462230682373047,0.6923076923076923,0.8653846153846154,0.6428571428571429,0.8571428571428571,0.0004
150,0.8892225623130798,1.003694772720337,0.75,0.9230769230769231,0.7142857142857143,0.8571428571428571,0.0004
151,1.0575326979160309,1.21969735622406,0.5576923076923077,0.8653846153846154,0.7857142857142857,0.8571428571428571,0.0004
152,1.206076294183731,1.4801138639450073,0.6730769230769231,0.8846153846153846,0.7142857142857143,0.8571428571428571,0.0004
153,1.0361347794532776,0.9454308748245239,0.7115384615384616,0.8846153846153846,0.7857142857142857,0.7857142857142857,0.0004
154,0.9412086308002472,0.9767053127288818,0.6730769230769231,0.9615384615384616,0.7142857142857143,0.8571428571428571,0.0004
155,0.7984066009521484,1.8095167875289917,0.7307692307692307,0.9230769230769231,0.5,0.7857142857142857,0.0004
156,0.8301590383052826,1.6339302062988281,0.7307692307692307,0.8269230769230769,0.5714285714285714,0.7857142857142857,0.0004
157,0.8859668374061584,1.3806514739990234,0.7307692307692307,0.9230769230769231,0.7142857142857143,0.7857142857142857,0.0004
158,0.9981566667556763,0.7779879570007324,0.6923076923076923,0.8653846153846154,0.8571428571428571,0.9285714285714286,0.0004
159,0.9134421944618225,1.0191688537597656,0.6923076923076923,0.8653846153846154,0.6428571428571429,0.9285714285714286,0.0004
160,1.0541268587112427,1.593510627746582,0.6538461538461539,0.8461538461538461,0.7857142857142857,0.8571428571428571,0.0004
161,1.1138669550418854,1.159387469291687,0.6346153846153846,0.8846153846153846,0.7857142857142857,0.8571428571428571,0.0004
162,1.0473887026309967,0.789098858833313,0.6538461538461539,0.9230769230769231,1.0,0.8571428571428571,0.0004
163,0.8159066438674927,1.0305063724517822,0.7692307692307693,0.8846153846153846,0.5714285714285714,0.8571428571428571,0.0004
164,0.9741280674934387,0.8140648603439331,0.6923076923076923,0.8846153846153846,0.7857142857142857,0.9285714285714286,0.0004
165,1.081125557422638,1.0686402320861816,0.6538461538461539,0.9038461538461539,0.6428571428571429,0.8571428571428571,0.0004
166,0.9228815138339996,1.348522424697876,0.6923076923076923,0.8846153846153846,0.6428571428571429,0.8571428571428571,0.0004
167,0.7740909457206726,1.3544145822525024,0.8076923076923077,0.8653846153846154,0.5,0.7857142857142857,0.0004
168,0.9891008734703064,1.05916428565979,0.6923076923076923,0.8846153846153846,0.7142857142857143,0.8571428571428571,0.0004
169,0.9289923012256622,1.3529560565948486,0.7115384615384616,0.9038461538461539,0.5714285714285714,0.8571428571428571,0.0004
170,0.8117513358592987,1.222010850906372,0.7692307692307693,0.9038461538461539,0.8571428571428571,0.8571428571428571,0.0004
171,0.9051383137702942,1.143869400024414,0.6923076923076923,0.9038461538461539,0.6428571428571429,0.8571428571428571,0.0004
172,0.9116879403591156,1.409359097480774,0.75,0.9230769230769231,0.5,0.8571428571428571,0.0004
173,1.0160031914710999,1.131304144859314,0.7115384615384616,0.9038461538461539,0.6428571428571429,0.8571428571428571,0.0004
174,0.9905790388584137,1.1071300506591797,0.7307692307692307,0.9038461538461539,0.6428571428571429,0.7857142857142857,0.0004
175,0.9095152020454407,0.9378640055656433,0.7307692307692307,0.9230769230769231,0.6428571428571429,0.8571428571428571,0.0004
176,0.8629042208194733,1.1412408351898193,0.7115384615384616,0.9230769230769231,0.6428571428571429,0.8571428571428571,0.0004
177,0.920588880777359,1.20064115524292,0.7884615384615384,0.8846153846153846,0.6428571428571429,0.9285714285714286,0.0004
178,1.053143709897995,1.2481517791748047,0.6538461538461539,0.9230769230769231,0.5714285714285714,0.8571428571428571,0.0004
179,1.1045320630073547,1.3165947198867798,0.6538461538461539,0.9423076923076923,0.5,0.8571428571428571,0.0004
180,0.8784816563129425,1.5075161457061768,0.6730769230769231,0.8846153846153846,0.5714285714285714,0.8571428571428571,0.0004
181,0.9076045453548431,0.9435325860977173,0.6923076923076923,0.8846153846153846,0.5714285714285714,0.8571428571428571,0.0004
182,0.8107923269271851,1.486565113067627,0.7307692307692307,0.9038461538461539,0.5714285714285714,0.7857142857142857,0.0004
183,0.9735205769538879,1.2326081991195679,0.6153846153846154,0.9230769230769231,0.6428571428571429,0.7857142857142857,0.0004
184,0.747036874294281,0.9542698264122009,0.75,0.9038461538461539,0.7142857142857143,0.8571428571428571,0.0004
185,1.0517500638961792,1.1167088747024536,0.6730769230769231,0.8653846153846154,0.5,0.8571428571428571,0.0004
186,0.8830319046974182,0.5828419923782349,0.6923076923076923,0.8653846153846154,0.7857142857142857,1.0,0.0004
187,0.7929312288761139,1.018908143043518,0.75,0.8846153846153846,0.6428571428571429,0.9285714285714286,0.0004
188,0.7746844589710236,0.7494585514068604,0.75,0.9423076923076923,0.7142857142857143,0.9285714285714286,0.0004
189,0.8684969544410706,0.9700137376785278,0.7307692307692307,0.8846153846153846,0.6428571428571429,1.0,0.0004
190,0.9646615087985992,0.5975749492645264,0.6538461538461539,0.9038461538461539,0.7857142857142857,1.0,0.0004
191,0.7172145545482635,1.2882421016693115,0.7884615384615384,0.8846153846153846,0.5714285714285714,0.8571428571428571,0.0004
192,0.7584019899368286,1.07199227809906,0.8653846153846154,0.9038461538461539,0.7142857142857143,0.8571428571428571,0.0004
193,0.8418734669685364,1.257372498512268,0.7307692307692307,0.8653846153846154,0.7142857142857143,0.8571428571428571,0.0004
194,0.7243626713752747,2.0270237922668457,0.7307692307692307,0.9230769230769231,0.5,0.8571428571428571,0.0004
195,0.9870058000087738,0.9790179133415222,0.7307692307692307,0.9038461538461539,0.9285714285714286,0.8571428571428571,0.0004
196,0.8307242691516876,1.6939425468444824,0.6923076923076923,0.9230769230769231,0.6428571428571429,0.8571428571428571,0.0004
197,1.0698832273483276,1.1025086641311646,0.5769230769230769,0.9230769230769231,0.7142857142857143,0.7857142857142857,0.0004
198,0.7198968827724457,1.2519620656967163,0.7307692307692307,1.0,0.6428571428571429,0.8571428571428571,0.0004
199,0.9699634611606598,1.358515739440918,0.7307692307692307,0.9038461538461539,0.5,0.9285714285714286,0.0004
200,0.9875211715698242,1.082517385482788,0.6346153846153846,0.8461538461538461,0.7857142857142857,0.9285714285714286,0.0004
201,0.9942142367362976,1.2843674421310425,0.6730769230769231,0.9230769230769231,0.7142857142857143,0.8571428571428571,0.0004
202,0.8327088952064514,1.2197685241699219,0.6538461538461539,0.9230769230769231,0.7142857142857143,0.7857142857142857,0.0004
203,0.9054252505302429,0.7994519472122192,0.7115384615384616,0.9230769230769231,0.6428571428571429,1.0,0.0004
204,0.9483191967010498,1.0962090492248535,0.7307692307692307,0.8653846153846154,0.6428571428571429,0.9285714285714286,0.0004
205,0.9180648028850555,1.1445584297180176,0.6730769230769231,0.9230769230769231,0.7857142857142857,0.7142857142857143,0.0004
206,0.7954981923103333,1.287602186203003,0.7307692307692307,0.9038461538461539,0.6428571428571429,0.8571428571428571,0.0004
207,0.865204781293869,1.197107195854187,0.7115384615384616,0.9230769230769231,0.5714285714285714,0.7857142857142857,0.0004
208,0.9402921199798584,0.954249382019043,0.6923076923076923,0.9230769230769231,0.7857142857142857,0.8571428571428571,0.0004
209,0.8053660690784454,1.4551117420196533,0.7307692307692307,0.8653846153846154,0.5714285714285714,0.7857142857142857,0.0004
210,0.7917848527431488,1.046666145324707,0.75,0.8461538461538461,0.7857142857142857,0.8571428571428571,0.0004
211,1.128310203552246,1.2851629257202148,0.6153846153846154,0.8846153846153846,0.7142857142857143,0.8571428571428571,0.0004
212,1.0514512658119202,1.490485429763794,0.7115384615384616,0.8653846153846154,0.7142857142857143,0.9285714285714286,0.0004
213,1.0919644236564636,0.6961913704872131,0.6346153846153846,0.8653846153846154,0.8571428571428571,0.9285714285714286,0.0004
214,0.7708342373371124,1.3227084875106812,0.7884615384615384,0.9230769230769231,0.7142857142857143,0.7857142857142857,0.0004
215,1.0425847172737122,1.2798266410827637,0.7692307692307693,0.9038461538461539,0.7142857142857143,0.8571428571428571,0.0004
216,0.8793415427207947,1.4884943962097168,0.6730769230769231,0.9423076923076923,0.7857142857142857,0.8571428571428571,0.0004
217,0.8408574163913727,1.7523506879806519,0.7692307692307693,0.9038461538461539,0.5,0.7857142857142857,0.0004
218,0.702295184135437,1.3707547187805176,0.7115384615384616,0.9615384615384616,0.7142857142857143,0.9285714285714286,0.0004
219,0.870611846446991,0.8277541995048523,0.75,0.8846153846153846,0.7142857142857143,0.9285714285714286,0.0004
220,0.8316432237625122,0.9243172407150269,0.75,0.9038461538461539,0.7142857142857143,0.8571428571428571,0.0004
221,0.8390015661716461,0.9608709216117859,0.6730769230769231,0.9038461538461539,0.8571428571428571,0.8571428571428571,0.0004
222,0.818615585565567,0.9665406942367554,0.7307692307692307,0.8653846153846154,0.7857142857142857,0.8571428571428571,0.0004
223,0.8524355888366699,1.1078681945800781,0.7115384615384616,0.9230769230769231,0.6428571428571429,0.8571428571428571,0.0004
224,0.9472618401050568,0.7589676380157471,0.6923076923076923,0.9230769230769231,0.7142857142857143,0.8571428571428571,0.0004
225,0.9369792938232422,0.4667002558708191,0.6730769230769231,0.9423076923076923,0.9285714285714286,1.0,0.0004
226,1.1033351421356201,1.3447929620742798,0.6346153846153846,0.8846153846153846,0.6428571428571429,0.7142857142857143,0.0004
227,0.7985325455665588,0.9278112053871155,0.7692307692307693,0.9423076923076923,0.7142857142857143,0.8571428571428571,0.0004
228,0.7761411666870117,0.9141437411308289,0.7115384615384616,0.9423076923076923,0.7142857142857143,0.9285714285714286,0.0004
229,0.7801784873008728,1.0502068996429443,0.7307692307692307,0.9423076923076923,0.6428571428571429,0.9285714285714286,0.0004
230,0.8896404206752777,1.309091567993164,0.7307692307692307,0.8653846153846154,0.5,0.8571428571428571,0.0004
231,0.8249396681785583,1.5314676761627197,0.7307692307692307,0.9615384615384616,0.6428571428571429,0.8571428571428571,0.0004
232,0.6228478252887726,1.6118824481964111,0.8269230769230769,0.9230769230769231,0.7142857142857143,0.7857142857142857,0.0004
233,0.9721261262893677,1.4699740409851074,0.6730769230769231,0.8846153846153846,0.7142857142857143,0.8571428571428571,0.0004
234,1.0946445167064667,1.369828462600708,0.6153846153846154,0.9038461538461539,0.6428571428571429,0.8571428571428571,0.0004
235,0.8141741454601288,1.2394999265670776,0.6730769230769231,0.9423076923076923,0.6428571428571429,0.8571428571428571,0.0004
236,0.9918879270553589,0.8586257696151733,0.6730769230769231,0.9615384615384616,0.7857142857142857,0.8571428571428571,0.0004
237,0.8706989586353302,1.346226692199707,0.6730769230769231,0.9423076923076923,0.5714285714285714,0.8571428571428571,0.0004
238,0.6179788708686829,1.2314653396606445,0.7884615384615384,1.0,0.5,0.8571428571428571,0.0004
239,0.7627256810665131,1.5152641534805298,0.7307692307692307,0.9230769230769231,0.5714285714285714,0.7142857142857143,0.0004
240,0.9496197700500488,1.119867205619812,0.6153846153846154,0.9807692307692307,0.5714285714285714,0.8571428571428571,0.0004
241,0.9095688462257385,1.38565993309021,0.6538461538461539,0.9423076923076923,0.5714285714285714,0.7857142857142857,0.0004
242,0.9438564777374268,1.0574949979782104,0.6538461538461539,0.9423076923076923,0.7142857142857143,0.7857142857142857,0.0004
243,0.7907131016254425,1.2471842765808105,0.7692307692307693,0.9230769230769231,0.6428571428571429,0.8571428571428571,0.0004
244,0.9270725846290588,1.2720891237258911,0.5961538461538461,0.9230769230769231,0.5714285714285714,0.8571428571428571,0.0004
245,0.776264488697052,1.3009401559829712,0.7115384615384616,0.9038461538461539,0.6428571428571429,0.7857142857142857,0.0004
246,0.9114000797271729,1.3022465705871582,0.6923076923076923,0.9230769230769231,0.5714285714285714,0.7857142857142857,0.0004
247,0.6809897422790527,1.0486481189727783,0.7692307692307693,0.9230769230769231,0.6428571428571429,0.8571428571428571,0.0004
248,0.9433671236038208,1.3118183612823486,0.6730769230769231,0.9423076923076923,0.5,0.8571428571428571,0.0004
249,0.9487669765949249,0.45991700887680054,0.6923076923076923,0.9038461538461539,0.9285714285714286,0.9285714285714286,0.0004
250,0.9286046624183655,1.4698296785354614,0.7692307692307693,0.9038461538461539,0.6428571428571429,0.8571428571428571,0.0004
251,0.6305214166641235,1.0706791877746582,0.7307692307692307,0.9807692307692307,0.7142857142857143,0.8571428571428571,0.0004
252,1.0184478163719177,1.492980718612671,0.6923076923076923,0.8846153846153846,0.5,0.9285714285714286,0.0004
253,0.6856755912303925,1.3081676959991455,0.7692307692307693,0.9038461538461539,0.5714285714285714,0.8571428571428571,0.0004
254,0.9247030317783356,0.9631017446517944,0.7115384615384616,0.9038461538461539,0.6428571428571429,0.8571428571428571,0.0004
255,0.8490379750728607,1.1207902431488037,0.6730769230769231,0.9423076923076923,0.6428571428571429,0.9285714285714286,0.0004
256,0.6631574630737305,1.5351394414901733,0.7692307692307693,0.9615384615384616,0.5,0.7857142857142857,0.0004
257,0.5906630754470825,1.3535356521606445,0.75,0.9807692307692307,0.7142857142857143,0.8571428571428571,0.0004
258,0.8176120519638062,1.052703857421875,0.6923076923076923,0.9423076923076923,0.7142857142857143,0.9285714285714286,0.0004
259,0.600646048784256,0.8214194178581238,0.7884615384615384,0.9615384615384616,0.7142857142857143,0.9285714285714286,0.0004
260,0.8408961594104767,1.5513951778411865,0.7115384615384616,0.9423076923076923,0.7142857142857143,0.7857142857142857,0.0004
261,0.6860480904579163,0.5256329774856567,0.7884615384615384,0.9230769230769231,0.8571428571428571,0.9285714285714286,0.0004
262,0.8106572329998016,0.8076772689819336,0.8076923076923077,0.8846153846153846,0.7857142857142857,0.9285714285714286,0.0004
263,0.6204845905303955,0.8141811490058899,0.75,1.0,0.7857142857142857,0.8571428571428571,0.0004
264,0.6807277500629425,1.6095508337020874,0.7307692307692307,0.9807692307692307,0.5714285714285714,0.8571428571428571,0.0004
265,0.7742540240287781,1.0833721160888672,0.7115384615384616,0.9230769230769231,0.7857142857142857,0.7857142857142857,0.0004
266,0.9277108311653137,1.160127878189087,0.6730769230769231,0.9230769230769231,0.5714285714285714,0.9285714285714286,0.0004
267,0.981582522392273,1.133652925491333,0.6346153846153846,0.9230769230769231,0.6428571428571429,0.9285714285714286,0.0004
268,0.9777422547340393,0.8954914808273315,0.6538461538461539,0.8653846153846154,0.5714285714285714,0.9285714285714286,0.0004
269,0.6962461471557617,1.221733808517456,0.8076923076923077,0.9230769230769231,0.7142857142857143,0.7857142857142857,0.0004
270,0.9281558990478516,0.8125478029251099,0.6346153846153846,0.9423076923076923,0.7857142857142857,0.8571428571428571,0.0004
271,0.7624782919883728,0.669950008392334,0.7692307692307693,0.9423076923076923,1.0,0.8571428571428571,0.0004
272,0.9036200642585754,0.8754266500473022,0.7692307692307693,0.9423076923076923,0.7857142857142857,0.9285714285714286,0.0004
273,0.9694092571735382,1.514007568359375,0.7307692307692307,0.9038461538461539,0.6428571428571429,0.7857142857142857,0.0004
274,0.9484194219112396,0.918140172958374,0.75,0.9615384615384616,0.7142857142857143,0.9285714285714286,0.0004
275,0.5852470099925995,1.6247080564498901,0.7307692307692307,0.9807692307692307,0.7857142857142857,0.8571428571428571,0.0004
276,0.6399899423122406,1.1528170108795166,0.75,0.9807692307692307,0.5714285714285714,0.8571428571428571,0.0004
277,0.7708564698696136,1.2429258823394775,0.7307692307692307,0.9615384615384616,0.6428571428571429,0.8571428571428571,0.0004
278,0.761077880859375,1.050910234451294,0.8269230769230769,0.9038461538461539,0.7142857142857143,0.8571428571428571,0.0004
279,0.7495758831501007,0.6905366778373718,0.7884615384615384,0.9038461538461539,0.8571428571428571,0.9285714285714286,0.0004
280,0.8676116764545441,1.100462555885315,0.7115384615384616,0.9230769230769231,0.5714285714285714,0.9285714285714286,0.0004
281,0.8314978182315826,0.8050020933151245,0.6923076923076923,0.9038461538461539,0.8571428571428571,0.9285714285714286,0.0004
282,0.7643948197364807,1.3148870468139648,0.6730769230769231,0.9423076923076923,0.5714285714285714,0.8571428571428571,0.0004
283,0.706611841917038,1.3727307319641113,0.7692307692307693,0.9423076923076923,0.6428571428571429,0.8571428571428571,0.0004
284,0.9340644180774689,1.0250883102416992,0.6153846153846154,0.9615384615384616,0.7142857142857143,0.9285714285714286,0.0004
285,0.7096863090991974,0.8607743382453918,0.7307692307692307,0.9615384615384616,0.6428571428571429,0.9285714285714286,0.0004
286,0.6805338859558105,0.6759214401245117,0.7307692307692307,0.9807692307692307,1.0,0.8571428571428571,0.0004
287,0.5578598082065582,1.1439673900604248,0.8461538461538461,1.0,0.8571428571428571,0.7857142857142857,0.0004
288,0.8903718590736389,0.8648955821990967,0.6346153846153846,0.9230769230769231,0.7857142857142857,0.8571428571428571,0.0004
289,0.7475613355636597,1.6365689039230347,0.7307692307692307,0.9423076923076923,0.5714285714285714,0.8571428571428571,0.0004
290,0.7777010202407837,1.4581084251403809,0.75,0.9230769230769231,0.5,0.7857142857142857,0.0004
291,0.9244276285171509,1.4361233711242676,0.6923076923076923,0.9038461538461539,0.7142857142857143,0.8571428571428571,0.0004
292,0.9065811634063721,1.078536033630371,0.6730769230769231,0.9038461538461539,0.6428571428571429,0.9285714285714286,0.0004
293,0.7108526527881622,1.2230381965637207,0.7307692307692307,0.9615384615384616,0.8571428571428571,0.8571428571428571,0.0004
294,0.9220011532306671,1.022658109664917,0.6923076923076923,0.9230769230769231,0.6428571428571429,0.9285714285714286,0.0004
295,0.5495423376560211,1.2240283489227295,0.8076923076923077,0.9807692307692307,0.8571428571428571,0.7857142857142857,0.0004
296,0.7974211275577545,0.6988953351974487,0.7115384615384616,0.9230769230769231,0.8571428571428571,0.9285714285714286,0.0004
297,0.679297149181366,1.212085247039795,0.7692307692307693,0.9423076923076923,0.7142857142857143,0.7857142857142857,0.0004
298,0.8924143314361572,1.5123475790023804,0.6538461538461539,0.9230769230769231,0.5714285714285714,0.7142857142857143,0.0004
299,0.8791607022285461,0.7179847955703735,0.6153846153846154,0.9038461538461539,0.7142857142857143,0.9285714285714286,0.0004
300,0.8158937990665436,0.7615247964859009,0.6923076923076923,0.9615384615384616,0.8571428571428571,0.9285714285714286,0.0004
301,0.5700790584087372,1.177246332168579,0.8269230769230769,1.0,0.7857142857142857,0.7857142857142857,0.0004
302,1.2186387777328491,1.392561674118042,0.6730769230769231,0.8653846153846154,0.5714285714285714,0.7857142857142857,0.0004
303,0.7292724251747131,1.1652987003326416,0.7692307692307693,0.9423076923076923,0.7857142857142857,0.8571428571428571,0.0004
304,0.6467531025409698,0.9586689472198486,0.7884615384615384,0.9615384615384616,0.7142857142857143,0.7857142857142857,0.0004
305,0.6277115643024445,0.5797041654586792,0.8461538461538461,0.9423076923076923,0.8571428571428571,0.9285714285714286,0.0004
306,0.7360612154006958,0.728139340877533,0.6923076923076923,0.9423076923076923,0.9285714285714286,0.9285714285714286,0.0004
307,0.7819516956806183,0.7041723728179932,0.75,0.9423076923076923,0.7857142857142857,0.9285714285714286,0.0004
308,0.7827326953411102,2.134984016418457,0.6923076923076923,0.9807692307692307,0.42857142857142855,0.7857142857142857,0.0004
309,0.7494682967662811,0.6126206517219543,0.7307692307692307,0.9615384615384616,0.7142857142857143,1.0,0.0004
310,0.6905772387981415,1.1869769096374512,0.7884615384615384,0.9038461538461539,0.7857142857142857,0.8571428571428571,0.0004
311,0.9600578546524048,0.8036404252052307,0.6923076923076923,0.9230769230769231,0.7857142857142857,0.9285714285714286,0.0004
312,0.858717679977417,0.647131621837616,0.7115384615384616,0.9615384615384616,0.9285714285714286,0.9285714285714286,0.0004
313,0.6001667082309723,1.0866007804870605,0.7884615384615384,1.0,0.7142857142857143,0.9285714285714286,0.0004
314,0.8152452409267426,1.2569923400878906,0.6923076923076923,0.9807692307692307,0.7142857142857143,0.8571428571428571,0.0004
315,0.7849997282028198,0.9431830644607544,0.75,0.9230769230769231,0.8571428571428571,0.8571428571428571,0.0004
316,0.7963147163391113,0.8848545551300049,0.7307692307692307,0.9423076923076923,0.9285714285714286,0.8571428571428571,0.0004
317,0.7497491836547852,1.319975733757019,0.7884615384615384,0.9423076923076923,0.5714285714285714,0.8571428571428571,0.0004
318,0.8814072012901306,0.9924214482307434,0.7115384615384616,0.9423076923076923,0.7142857142857143,0.9285714285714286,0.0004
319,0.7995051443576813,1.0703340768814087,0.6730769230769231,0.9230769230769231,0.5714285714285714,0.8571428571428571,0.0004
320,0.7280962467193604,1.356879711151123,0.75,0.9230769230769231,0.5714285714285714,0.9285714285714286,0.0004
321,0.7075285017490387,1.1405797004699707,0.7307692307692307,0.9615384615384616,0.7142857142857143,0.8571428571428571,0.0004
322,0.6687222272157669,1.2987737655639648,0.7884615384615384,0.9615384615384616,0.7142857142857143,0.7857142857142857,0.0004
323,0.5797648727893829,1.1057151556015015,0.8076923076923077,0.9807692307692307,0.7857142857142857,0.7857142857142857,0.0004
324,0.89542156457901,1.3374319076538086,0.6730769230769231,0.9423076923076923,0.6428571428571429,0.8571428571428571,0.0004
325,0.5420338362455368,1.1251720190048218,0.8461538461538461,0.9615384615384616,0.7857142857142857,0.7142857142857143,0.0004
326,0.8359352350234985,1.313798189163208,0.75,0.9423076923076923,0.7857142857142857,0.7857142857142857,0.0004
327,0.8421696722507477,1.198662519454956,0.7307692307692307,0.9230769230769231,0.6428571428571429,0.8571428571428571,0.0004
328,0.6892540752887726,0.6539183855056763,0.75,0.9615384615384616,0.6428571428571429,0.9285714285714286,0.0004
329,0.970247209072113,0.667201578617096,0.6730769230769231,0.8653846153846154,0.7857142857142857,0.9285714285714286,0.0004
330,0.5776659846305847,1.6483839750289917,0.8076923076923077,0.9615384615384616,0.5714285714285714,0.9285714285714286,0.0004
331,0.7751102447509766,1.0239131450653076,0.6923076923076923,0.9807692307692307,0.6428571428571429,0.9285714285714286,0.0004
332,0.9463867843151093,0.8304976224899292,0.6538461538461539,0.9038461538461539,0.7857142857142857,0.9285714285714286,0.0004
333,0.8312707543373108,0.9063330888748169,0.6730769230769231,0.9423076923076923,0.6428571428571429,0.8571428571428571,0.0004
334,0.7056445479393005,1.5510799884796143,0.75,0.9807692307692307,0.42857142857142855,0.7857142857142857,0.0004
335,0.7089348137378693,0.715220034122467,0.7884615384615384,0.9423076923076923,0.8571428571428571,0.8571428571428571,0.0004
336,0.8762297034263611,0.8891854286193848,0.6346153846153846,0.9230769230769231,0.6428571428571429,0.9285714285714286,0.0004
337,0.9127516746520996,0.8559843301773071,0.7307692307692307,0.8653846153846154,0.7142857142857143,0.9285714285714286,0.0004
338,0.8760597407817841,0.9420084357261658,0.6538461538461539,0.9615384615384616,0.8571428571428571,0.9285714285714286,0.0004
339,0.9401064515113831,0.958432137966156,0.7307692307692307,0.9038461538461539,0.7857142857142857,0.9285714285714286,0.0004
340,0.8060462474822998,0.9350100755691528,0.6538461538461539,0.9807692307692307,0.7857142857142857,0.9285714285714286,0.0004
341,0.7075950801372528,0.9649971723556519,0.7884615384615384,0.9615384615384616,0.8571428571428571,0.8571428571428571,0.0004
342,0.7401562333106995,0.8178678750991821,0.7307692307692307,0.9615384615384616,0.7142857142857143,0.9285714285714286,0.0004
343,0.64236980676651,0.8355766534805298,0.7692307692307693,1.0,0.7857142857142857,0.9285714285714286,0.0004
344,0.8179064989089966,1.4281113147735596,0.7307692307692307,0.9230769230769231,0.5,0.7857142857142857,0.0004
345,0.7095643579959869,1.0364570617675781,0.7307692307692307,0.9615384615384616,0.5714285714285714,0.9285714285714286,0.0004
346,0.8048349618911743,0.6692167520523071,0.7307692307692307,0.9038461538461539,0.7142857142857143,0.9285714285714286,0.0004
347,0.6978797316551208,1.4935686588287354,0.7307692307692307,0.9615384615384616,0.5,0.7142857142857143,0.0004
348,0.7602007687091827,1.3183375597000122,0.6730769230769231,0.9615384615384616,0.6428571428571429,0.8571428571428571,0.0004
349,0.7271777093410492,0.8210046291351318,0.7115384615384616,0.9423076923076923,0.7857142857142857,0.9285714285714286,0.0004
350,0.6772500276565552,0.6093358993530273,0.7307692307692307,0.9807692307692307,0.8571428571428571,0.9285714285714286,0.0004
351,0.7562692761421204,1.650665044784546,0.7115384615384616,0.9615384615384616,0.6428571428571429,0.7857142857142857,0.0004
352,0.8825184106826782,1.6383466720581055,0.6923076923076923,0.8846153846153846,0.6428571428571429,0.7142857142857143,0.0004
353,0.7217184007167816,1.2725872993469238,0.8076923076923077,0.9423076923076923,0.5714285714285714,0.8571428571428571,0.0004
354,0.5960057526826859,0.6369959115982056,0.8076923076923077,0.9615384615384616,0.7857142857142857,0.8571428571428571,0.0004
355,0.4899526536464691,1.4006242752075195,0.8653846153846154,0.9423076923076923,0.7142857142857143,0.7857142857142857,0.0004
356,0.6880564093589783,1.6350748538970947,0.75,0.9615384615384616,0.5,0.8571428571428571,0.0004
357,0.7478007674217224,0.47499898076057434,0.8269230769230769,0.9038461538461539,0.7857142857142857,1.0,0.0004
358,0.6381596326828003,1.4064531326293945,0.7692307692307693,0.9807692307692307,0.5714285714285714,0.8571428571428571,0.0004
359,0.6956914961338043,0.90241539478302,0.75,0.9423076923076923,0.7857142857142857,0.9285714285714286,0.0004
360,0.7243429720401764,0.7676670551300049,0.6730769230769231,0.9807692307692307,0.8571428571428571,0.7857142857142857,0.0004
361,0.8726690113544464,1.1574233770370483,0.6730769230769231,0.9230769230769231,0.5714285714285714,0.8571428571428571,0.0004
362,0.7087676823139191,1.2607054710388184,0.7692307692307693,0.9423076923076923,0.7142857142857143,0.8571428571428571,0.0004
363,0.6057540327310562,1.3084838390350342,0.8269230769230769,0.9615384615384616,0.7857142857142857,0.7857142857142857,0.0004
364,0.495929017663002,0.9703848361968994,0.8076923076923077,1.0,0.7142857142857143,0.8571428571428571,0.0004
365,0.9698956310749054,1.3344634771347046,0.75,0.9230769230769231,0.5714285714285714,0.8571428571428571,0.0004
366,0.8173510432243347,0.9807138442993164,0.7692307692307693,0.9230769230769231,0.7857142857142857,0.8571428571428571,0.0004
367,0.6870598345994949,0.9037010669708252,0.8076923076923077,0.9615384615384616,0.7142857142857143,0.8571428571428571,0.0004
368,0.6109558045864105,1.1179672479629517,0.7692307692307693,0.9423076923076923,0.7857142857142857,0.8571428571428571,0.0004
369,0.7213423252105713,1.6056134700775146,0.75,0.9230769230769231,0.5,0.9285714285714286,0.0004
370,0.6695635914802551,1.2065569162368774,0.7884615384615384,0.9423076923076923,0.6428571428571429,0.9285714285714286,0.0004
371,0.7176179885864258,1.3721245527267456,0.8269230769230769,0.9423076923076923,0.6428571428571429,0.8571428571428571,0.0004
372,0.8694316148757935,0.874443769454956,0.7307692307692307,0.9423076923076923,0.7857142857142857,0.9285714285714286,0.0004
373,0.6753756403923035,1.217739462852478,0.8076923076923077,0.9615384615384616,0.9285714285714286,0.8571428571428571,0.0004
374,0.9008979201316833,0.977605402469635,0.6730769230769231,0.9423076923076923,0.7142857142857143,0.8571428571428571,0.0004
375,0.9971825480461121,1.4114420413970947,0.7307692307692307,0.8846153846153846,0.7142857142857143,0.8571428571428571,0.0004
376,0.8046864569187164,1.2566471099853516,0.8269230769230769,0.9423076923076923,0.7142857142857143,0.8571428571428571,0.0004
377,1.1027870774269104,1.318249225616455,0.6346153846153846,0.9038461538461539,0.6428571428571429,0.8571428571428571,0.0004
378,0.5743916779756546,0.8128033876419067,0.7692307692307693,0.9615384615384616,0.7857142857142857,0.9285714285714286,0.0004
379,1.085217148065567,0.842975378036499,0.5384615384615384,0.9038461538461539,0.7857142857142857,0.9285714285714286,0.0004
380,0.9554276764392853,0.6935847401618958,0.6538461538461539,0.9230769230769231,0.7142857142857143,0.8571428571428571,0.0004
381,0.7632352113723755,0.9910094141960144,0.6538461538461539,0.9807692307692307,0.8571428571428571,0.8571428571428571,0.0004
382,0.6495769321918488,0.8711177110671997,0.75,0.9615384615384616,0.7142857142857143,0.8571428571428571,0.0004
383,0.6278699934482574,0.7151307463645935,0.7884615384615384,1.0,0.7857142857142857,0.9285714285714286,0.0004
384,0.7540410459041595,1.558089256286621,0.6923076923076923,0.9423076923076923,0.5,0.7857142857142857,0.0004
385,0.6445596516132355,1.3010166883468628,0.75,0.9615384615384616,0.5714285714285714,0.9285714285714286,0.0004
386,0.6263096928596497,1.5546188354492188,0.7884615384615384,0.9615384615384616,0.7857142857142857,0.7142857142857143,0.0004
387,0.7208100259304047,1.0707405805587769,0.75,0.9807692307692307,0.7857142857142857,0.9285714285714286,0.0004
388,0.6735644936561584,0.8194304704666138,0.7884615384615384,0.9423076923076923,0.5714285714285714,1.0,0.0004
389,0.86551433801651,1.2373456954956055,0.6923076923076923,0.9230769230769231,0.7857142857142857,0.7857142857142857,0.0004
390,0.6741138398647308,0.586479663848877,0.7884615384615384,0.9615384615384616,0.8571428571428571,0.9285714285714286,0.0004
391,0.8230057060718536,0.7742418646812439,0.6923076923076923,0.9038461538461539,0.7857142857142857,0.9285714285714286,0.0004
392,0.7171052098274231,1.5076755285263062,0.6923076923076923,0.9230769230769231,0.5714285714285714,0.7857142857142857,0.0004
393,0.727372407913208,1.0811712741851807,0.7307692307692307,0.9807692307692307,0.6428571428571429,0.9285714285714286,0.0004
394,0.6625438332557678,1.2397375106811523,0.7692307692307693,0.9615384615384616,0.6428571428571429,0.8571428571428571,0.0004
395,0.639047384262085,1.531004548072815,0.75,0.9807692307692307,0.6428571428571429,0.9285714285714286,0.0004
396,0.6459584832191467,1.9297142028808594,0.8461538461538461,0.9615384615384616,0.5714285714285714,0.7857142857142857,0.0004
397,0.7925662100315094,1.5795698165893555,0.6923076923076923,0.9038461538461539,0.6428571428571429,0.8571428571428571,0.0004
398,0.6079842150211334,1.743328332901001,0.75,0.9807692307692307,0.7142857142857143,0.7857142857142857,0.0004
399,0.8143103420734406,1.3255072832107544,0.7115384615384616,0.9423076923076923,0.5714285714285714,0.9285714285714286,0.0004
400,0.7333340346813202,0.5828256607055664,0.6923076923076923,0.9615384615384616,0.7142857142857143,1.0,0.0004
401,0.694272518157959,0.7924631834030151,0.7115384615384616,0.9423076923076923,0.8571428571428571,0.9285714285714286,0.0004
402,0.7708712816238403,1.2661209106445312,0.6923076923076923,0.9038461538461539,0.7142857142857143,0.7857142857142857,0.0004
403,0.7640039324760437,1.3549623489379883,0.6730769230769231,0.9423076923076923,0.7142857142857143,0.8571428571428571,0.0004
404,0.7006409019231796,1.3385636806488037,0.7115384615384616,0.9038461538461539,0.5714285714285714,0.7857142857142857,0.0004
405,0.6952787339687347,1.0937753915786743,0.7115384615384616,0.9615384615384616,0.7857142857142857,0.8571428571428571,0.0004
406,0.8441833555698395,1.386748194694519,0.7692307692307693,0.9230769230769231,0.7142857142857143,0.7857142857142857,0.0004
407,0.5763456970453262,1.2318973541259766,0.8461538461538461,0.9615384615384616,0.7142857142857143,0.9285714285714286,0.0004
408,0.572980672121048,0.9749094247817993,0.7692307692307693,1.0,0.7142857142857143,0.9285714285714286,0.0004
409,0.6032251417636871,1.029084324836731,0.8269230769230769,0.9807692307692307,0.7142857142857143,0.9285714285714286,0.0004
410,0.7891568243503571,1.2234845161437988,0.7692307692307693,0.9807692307692307,0.6428571428571429,0.8571428571428571,0.0004
411,0.9407564997673035,1.517923355102539,0.6730769230769231,0.9423076923076923,0.5714285714285714,0.9285714285714286,0.0004
412,0.863201916217804,0.7849471569061279,0.6923076923076923,0.9423076923076923,0.9285714285714286,0.8571428571428571,0.0004
413,0.8108010292053223,1.1004632711410522,0.7307692307692307,0.9615384615384616,0.5714285714285714,0.8571428571428571,0.0004
414,0.8866598010063171,1.0127143859863281,0.6730769230769231,0.9038461538461539,0.6428571428571429,0.9285714285714286,0.0004
415,0.6239133477210999,1.0062330961227417,0.7884615384615384,0.9615384615384616,0.7142857142857143,0.8571428571428571,0.0004
416,0.7615618705749512,1.366699457168579,0.75,0.9423076923076923,0.6428571428571429,0.7857142857142857,0.0004
417,0.6640956699848175,0.726521372795105,0.7115384615384616,0.9807692307692307,0.7857142857142857,0.9285714285714286,0.0004
418,0.6757290959358215,0.9580106139183044,0.7115384615384616,0.9807692307692307,0.7142857142857143,0.7857142857142857,0.0004
419,0.4741270840167999,1.0584224462509155,0.8269230769230769,1.0,0.7142857142857143,0.7857142857142857,0.0004
420,0.7592298686504364,1.5088586807250977,0.6923076923076923,0.9423076923076923,0.5714285714285714,0.7857142857142857,0.0004
421,0.7059466540813446,0.7993944883346558,0.7692307692307693,0.9230769230769231,0.7142857142857143,0.9285714285714286,0.0004
422,0.4913697987794876,0.8536674976348877,0.8076923076923077,1.0,0.6428571428571429,0.9285714285714286,0.0004
423,0.747923731803894,0.8306906223297119,0.75,0.9423076923076923,0.9285714285714286,0.9285714285714286,0.0004
424,0.6295082271099091,1.5110979080200195,0.7692307692307693,0.9807692307692307,0.6428571428571429,0.7857142857142857,0.0004
425,0.5912659168243408,1.3247475624084473,0.8269230769230769,0.9615384615384616,0.7857142857142857,0.8571428571428571,0.0004
426,0.7116874158382416,0.8846858739852905,0.7307692307692307,1.0,0.6428571428571429,0.9285714285714286,0.0004
427,0.702548623085022,1.366987943649292,0.75,0.9807692307692307,0.7142857142857143,0.8571428571428571,0.0004
428,0.6870324313640594,1.2939002513885498,0.7884615384615384,0.9423076923076923,0.6428571428571429,0.8571428571428571,0.0004
429,0.8493828773498535,1.881399154663086,0.7307692307692307,0.9230769230769231,0.5714285714285714,0.7857142857142857,0.0004
430,0.7867856323719025,1.5506783723831177,0.7115384615384616,0.9615384615384616,0.5714285714285714,0.8571428571428571,0.0004
431,0.4237268716096878,1.305367112159729,0.8076923076923077,1.0,0.5714285714285714,0.9285714285714286,0.0004
432,0.5755335986614227,0.873401403427124,0.7884615384615384,0.9423076923076923,0.7857142857142857,0.9285714285714286,0.0004
433,0.6109547913074493,1.0259109735488892,0.7692307692307693,0.9807692307692307,0.7142857142857143,0.9285714285714286,0.0004
434,0.6929500997066498,1.4201717376708984,0.7115384615384616,0.9807692307692307,0.6428571428571429,0.8571428571428571,0.0004
435,0.7507937252521515,1.1365987062454224,0.7884615384615384,0.9423076923076923,0.6428571428571429,0.8571428571428571,0.0004
436,0.5658948421478271,1.6608428955078125,0.75,1.0,0.5714285714285714,0.7857142857142857,0.0004
437,0.551371693611145,1.5731475353240967,0.7307692307692307,0.9807692307692307,0.5714285714285714,0.9285714285714286,0.0004
438,0.7550947070121765,1.3726460933685303,0.7307692307692307,0.9423076923076923,0.6428571428571429,0.8571428571428571,0.0004
439,0.7526966035366058,1.6718432903289795,0.75,0.9230769230769231,0.7142857142857143,0.8571428571428571,0.0004
440,1.0543634593486786,0.7039306163787842,0.7692307692307693,0.9038461538461539,0.7857142857142857,0.9285714285714286,0.0004
441,0.756549745798111,1.5245015621185303,0.6923076923076923,0.9230769230769231,0.7142857142857143,0.8571428571428571,0.0004
442,0.6123031377792358,1.10538649559021,0.7884615384615384,0.9615384615384616,0.8571428571428571,0.8571428571428571,0.0004
443,0.5326488763093948,0.6744899749755859,0.75,0.9615384615384616,0.8571428571428571,0.9285714285714286,0.0004
444,0.6481224298477173,1.2416057586669922,0.7884615384615384,0.9807692307692307,0.6428571428571429,0.7857142857142857,0.0004
445,0.6600117087364197,1.5415939092636108,0.7884615384615384,0.9807692307692307,0.7142857142857143,0.9285714285714286,0.0004
446,0.6088175773620605,0.8371258974075317,0.7307692307692307,1.0,0.5714285714285714,1.0,0.0004
447,0.8958306908607483,1.4261996746063232,0.6730769230769231,0.9038461538461539,0.6428571428571429,0.7857142857142857,0.0004
448,0.5845391750335693,0.7827528715133667,0.7884615384615384,0.9807692307692307,0.8571428571428571,0.8571428571428571,0.0004
449,0.6530685424804688,1.7186291217803955,0.75,1.0,0.5714285714285714,0.7142857142857143,0.0004
450,0.5589413642883301,1.1298805475234985,0.8076923076923077,0.9807692307692307,0.7857142857142857,0.9285714285714286,0.0004
451,0.7201027870178223,1.433363437652588,0.7692307692307693,0.9423076923076923,0.5714285714285714,0.8571428571428571,0.0004
452,0.6585779041051865,1.8524436950683594,0.8461538461538461,0.9615384615384616,0.6428571428571429,0.7857142857142857,0.0004
453,0.6863910853862762,0.9903483390808105,0.7115384615384616,0.9615384615384616,0.6428571428571429,1.0,0.0004
454,0.8005897402763367,1.3840171098709106,0.7115384615384616,0.9615384615384616,0.7142857142857143,0.8571428571428571,0.0004
455,0.7997996211051941,0.7371509075164795,0.8076923076923077,0.9230769230769231,0.7142857142857143,0.9285714285714286,0.0004
456,0.9016113877296448,1.4125851392745972,0.7307692307692307,0.9230769230769231,0.5,0.8571428571428571,0.0004
457,0.621648982167244,0.8725822567939758,0.75,0.9615384615384616,0.8571428571428571,0.8571428571428571,0.0004
458,0.7049971222877502,1.197580099105835,0.7307692307692307,0.9807692307692307,0.6428571428571429,0.8571428571428571,0.0004
459,0.6908351927995682,1.4842665195465088,0.6923076923076923,1.0,0.5714285714285714,0.8571428571428571,0.0004
460,0.6282672584056854,1.548736572265625,0.7115384615384616,0.9807692307692307,0.6428571428571429,0.9285714285714286,0.0004
461,0.591582253575325,1.6325181722640991,0.75,0.9807692307692307,0.5714285714285714,0.7142857142857143,0.0004
462,0.5194195359945297,1.2815428972244263,0.8461538461538461,1.0,0.5714285714285714,0.8571428571428571,0.0004
463,0.6287767887115479,1.4046558141708374,0.7692307692307693,0.9615384615384616,0.5,0.8571428571428571,0.0004
464,0.6844645142555237,1.4078274965286255,0.7692307692307693,0.9230769230769231,0.7142857142857143,0.7857142857142857,0.0004
465,0.7550315260887146,1.3136672973632812,0.7115384615384616,0.9615384615384616,0.7142857142857143,0.9285714285714286,0.0004
466,0.4475848972797394,1.526777744293213,0.8076923076923077,0.9807692307692307,0.7857142857142857,0.7857142857142857,0.0004
467,0.7898011952638626,0.9302202463150024,0.75,0.9230769230769231,0.7857142857142857,0.8571428571428571,0.0004
468,0.4522596001625061,1.6771044731140137,0.9038461538461539,0.9615384615384616,0.6428571428571429,0.7857142857142857,0.0004
469,0.5079732239246368,0.5298130512237549,0.8653846153846154,0.9615384615384616,0.8571428571428571,0.9285714285714286,0.0004
470,0.7068548202514648,1.240729570388794,0.8076923076923077,0.9230769230769231,0.7857142857142857,0.8571428571428571,0.0004
471,0.4923325181007385,0.8678761720657349,0.8076923076923077,1.0,0.7857142857142857,0.9285714285714286,0.0004
472,0.6576088666915894,1.814422369003296,0.7692307692307693,0.9423076923076923,0.5,0.8571428571428571,0.0004
473,0.9202339947223663,0.7372232675552368,0.6923076923076923,0.9615384615384616,0.7857142857142857,0.9285714285714286,0.0004
474,0.5333237200975418,1.4209975004196167,0.8076923076923077,0.9423076923076923,0.7142857142857143,0.9285714285714286,0.0004
475,0.8480281829833984,1.1171774864196777,0.7307692307692307,0.9230769230769231,0.7857142857142857,0.7857142857142857,0.0004
476,0.6270482689142227,1.1990940570831299,0.7884615384615384,0.9423076923076923,0.5714285714285714,0.9285714285714286,0.0004
477,0.9037132561206818,1.150177001953125,0.6153846153846154,0.9615384615384616,0.6428571428571429,0.9285714285714286,0.0004
478,0.8173024952411652,0.9540188312530518,0.7884615384615384,0.9230769230769231,0.6428571428571429,0.8571428571428571,0.0004
479,0.845104843378067,0.8049862384796143,0.6923076923076923,0.9230769230769231,0.7142857142857143,0.8571428571428571,0.0004
480,0.9299260675907135,0.7122520208358765,0.6730769230769231,0.8846153846153846,0.7142857142857143,0.8571428571428571,0.0004
481,0.7901275157928467,1.0747814178466797,0.7307692307692307,0.9038461538461539,0.7142857142857143,0.9285714285714286,0.0004
482,0.6802497506141663,1.1284239292144775,0.7692307692307693,0.9423076923076923,0.6428571428571429,0.8571428571428571,0.0004
483,0.7207849323749542,0.9658654928207397,0.8269230769230769,0.9615384615384616,0.8571428571428571,0.7857142857142857,0.0004
484,0.7553136944770813,1.1301177740097046,0.7692307692307693,0.9423076923076923,0.7857142857142857,0.9285714285714286,0.0004
485,0.6206800490617752,1.071758508682251,0.8076923076923077,1.0,0.7142857142857143,0.8571428571428571,0.0004
486,0.8762385845184326,0.8204922676086426,0.6923076923076923,0.9038461538461539,0.7857142857142857,0.9285714285714286,0.0004
487,0.5512384176254272,0.9813166260719299,0.7884615384615384,0.9807692307692307,0.8571428571428571,0.8571428571428571,0.0004
488,0.668955534696579,1.1576956510543823,0.7307692307692307,0.9807692307692307,0.7142857142857143,0.8571428571428571,0.0004
489,0.7530501484870911,0.9380820989608765,0.6346153846153846,0.9615384615384616,0.6428571428571429,0.8571428571428571,0.0004
490,0.622560977935791,1.2618826627731323,0.7692307692307693,0.9423076923076923,0.6428571428571429,0.8571428571428571,0.0004
491,0.8272513747215271,1.6051422357559204,0.7307692307692307,0.9230769230769231,0.7142857142857143,0.8571428571428571,0.0004
492,0.7139807343482971,1.079754114151001,0.7884615384615384,0.9423076923076923,0.7857142857142857,0.8571428571428571,0.0004
493,0.7443360686302185,1.4771896600723267,0.7692307692307693,0.9615384615384616,0.5,0.7142857142857143,0.0004
494,0.7506740391254425,0.9153156280517578,0.6346153846153846,0.9615384615384616,0.8571428571428571,0.8571428571428571,0.0004
495,0.7910047173500061,1.3323014974594116,0.6923076923076923,0.9423076923076923,0.5714285714285714,0.9285714285714286,0.0004
496,0.607660561800003,1.833604335784912,0.8076923076923077,0.9423076923076923,0.5714285714285714,0.7857142857142857,0.0004
497,0.7637136280536652,1.733780860900879,0.6538461538461539,0.9423076923076923,0.7142857142857143,0.8571428571428571,0.0004
498,0.6573509871959686,0.9339691400527954,0.7115384615384616,0.9807692307692307,0.7142857142857143,0.8571428571428571,0.0004
499,0.6745975315570831,0.7664900422096252,0.6923076923076923,0.9615384615384616,0.8571428571428571,0.9285714285714286,0.0004
500,0.44476187229156494,1.3138065338134766,0.8269230769230769,1.0,0.7857142857142857,0.8571428571428571,0.0004
501,0.676976889371872,0.9152577519416809,0.7307692307692307,0.9615384615384616,0.7857142857142857,0.8571428571428571,0.0004
502,0.5997153371572495,0.5011346340179443,0.75,0.9615384615384616,0.9285714285714286,0.9285714285714286,0.0004
503,0.7191433310508728,1.2936965227127075,0.7115384615384616,0.9615384615384616,0.5714285714285714,0.9285714285714286,0.0004
504,0.5580043345689774,1.4005484580993652,0.7884615384615384,0.9807692307692307,0.6428571428571429,0.8571428571428571,0.0004
505,0.511113628745079,1.2794437408447266,0.8653846153846154,0.9615384615384616,0.5,0.8571428571428571,0.0004
506,0.85544353723526,1.1627496480941772,0.7115384615384616,0.9423076923076923,0.5714285714285714,0.9285714285714286,0.0004
507,0.49739332497119904,1.3866263628005981,0.7884615384615384,1.0,0.7142857142857143,0.9285714285714286,0.0004
508,0.8323040008544922,1.5594154596328735,0.7115384615384616,0.9038461538461539,0.5714285714285714,0.9285714285714286,0.0004
509,0.7692894339561462,1.0010751485824585,0.8076923076923077,0.9230769230769231,0.6428571428571429,0.8571428571428571,0.0004
510,0.7004958391189575,0.7869596481323242,0.8076923076923077,0.9230769230769231,0.8571428571428571,0.9285714285714286,0.0004
511,0.5111636221408844,1.4612212181091309,0.8269230769230769,0.9615384615384616,0.6428571428571429,0.8571428571428571,0.0004
512,0.7753956317901611,0.8829265832901001,0.7115384615384616,0.9423076923076923,0.9285714285714286,0.9285714285714286,0.0004
513,0.7656999826431274,0.5543715953826904,0.6730769230769231,0.9615384615384616,0.8571428571428571,0.9285714285714286,0.0004
514,1.0068747699260712,0.8734400272369385,0.6730769230769231,0.9038461538461539,0.7857142857142857,0.7857142857142857,0.0004
515,0.705851286649704,0.8845860362052917,0.7307692307692307,0.9807692307692307,0.7857142857142857,0.8571428571428571,0.0004
516,0.833672434091568,1.1763646602630615,0.6346153846153846,0.9615384615384616,0.7142857142857143,0.8571428571428571,0.0004
517,0.6495652198791504,1.1408722400665283,0.8076923076923077,0.9807692307692307,0.5714285714285714,0.8571428571428571,0.0004
518,0.80311718583107,1.5908551216125488,0.7307692307692307,0.9230769230769231,0.5,0.7857142857142857,0.0004
519,0.7156273573637009,1.1674225330352783,0.7692307692307693,0.9230769230769231,0.7142857142857143,0.8571428571428571,0.0004
520,0.7290429472923279,1.3591787815093994,0.75,0.9423076923076923,0.7142857142857143,0.7857142857142857,0.0004
521,0.9639648199081421,0.5912843346595764,0.7115384615384616,0.8846153846153846,1.0,0.8571428571428571,0.0004
522,0.9183639883995056,1.0448238849639893,0.6538461538461539,0.8846153846153846,0.7142857142857143,0.9285714285714286,0.0004
523,0.6325841844081879,1.0838630199432373,0.7884615384615384,0.9230769230769231,0.7142857142857143,0.9285714285714286,0.0004
524,0.5637718290090561,1.9642744064331055,0.7692307692307693,0.9807692307692307,0.6428571428571429,0.7857142857142857,0.0004
525,0.7793027758598328,0.9555696845054626,0.7115384615384616,0.9615384615384616,0.7142857142857143,0.9285714285714286,0.0004
526,0.8494466841220856,1.390364646911621,0.7115384615384616,0.9230769230769231,0.6428571428571429,0.7857142857142857,0.0004
527,0.8611750900745392,0.3547171652317047,0.7692307692307693,0.9423076923076923,0.9285714285714286,1.0,0.0004
528,0.9500892460346222,0.9924218058586121,0.75,0.8846153846153846,0.6428571428571429,0.8571428571428571,0.0004
529,0.694884181022644,1.368109941482544,0.8461538461538461,0.9423076923076923,0.8571428571428571,0.7857142857142857,0.0004
530,0.5727683007717133,1.7431879043579102,0.8269230769230769,0.9807692307692307,0.7857142857142857,0.7857142857142857,0.0004
531,0.5486525297164917,1.1813675165176392,0.7307692307692307,1.0,0.7857142857142857,0.8571428571428571,0.0004
532,0.8931618630886078,0.7282297611236572,0.6538461538461539,0.9230769230769231,0.7142857142857143,1.0,0.0004
533,0.9720185697078705,0.7527344822883606,0.6538461538461539,0.9038461538461539,0.8571428571428571,0.9285714285714286,0.0004
534,0.7049217224121094,1.2502741813659668,0.7307692307692307,0.9230769230769231,0.5714285714285714,0.8571428571428571,0.0004
535,0.7492611706256866,1.2014307975769043,0.7307692307692307,0.9423076923076923,0.6428571428571429,0.8571428571428571,0.0004
536,0.8918223679065704,0.9453819990158081,0.6923076923076923,0.9230769230769231,0.7142857142857143,0.8571428571428571,0.0004
537,0.9063581824302673,0.9830305576324463,0.7115384615384616,0.8653846153846154,0.7857142857142857,0.9285714285714286,0.0004
538,0.6130000352859497,1.3451533317565918,0.8076923076923077,0.9615384615384616,0.6428571428571429,0.8571428571428571,0.0004
539,0.6555507034063339,0.7988937497138977,0.8076923076923077,0.9423076923076923,0.7857142857142857,0.9285714285714286,0.0004
540,0.8202295303344727,0.8553932905197144,0.7307692307692307,0.9423076923076923,0.7142857142857143,0.9285714285714286,0.0004
541,0.6426570117473602,1.1933629512786865,0.75,0.9615384615384616,0.7857142857142857,0.9285714285714286,0.0004
542,0.6990895569324493,0.9629966020584106,0.7307692307692307,0.9615384615384616,0.7142857142857143,0.9285714285714286,0.0004
543,0.9314344525337219,1.0900037288665771,0.7692307692307693,0.8269230769230769,0.6428571428571429,0.8571428571428571,0.0004
544,0.8725386261940002,1.6501381397247314,0.75,0.9423076923076923,0.7857142857142857,0.8571428571428571,0.0004
545,0.6842893660068512,1.5537160634994507,0.75,0.9423076923076923,0.7142857142857143,0.8571428571428571,0.0004
546,0.898944228887558,1.422013521194458,0.6730769230769231,0.9807692307692307,0.7142857142857143,0.8571428571428571,0.0004
547,0.4780312776565552,1.0442843437194824,0.8653846153846154,1.0,0.8571428571428571,0.8571428571428571,0.0004
548,0.6011286675930023,1.0223743915557861,0.75,0.9807692307692307,0.7142857142857143,0.8571428571428571,0.0004
549,0.6184352338314056,0.7128937244415283,0.8461538461538461,0.9615384615384616,0.8571428571428571,0.8571428571428571,0.0004
550,0.6017417013645172,1.063734531402588,0.75,0.9807692307692307,0.7142857142857143,0.9285714285714286,0.0004
551,0.8332263231277466,1.0480972528457642,0.7307692307692307,0.9423076923076923,0.6428571428571429,0.8571428571428571,0.0004
552,0.6195415258407593,1.1562031507492065,0.7884615384615384,0.9615384615384616,0.5714285714285714,0.8571428571428571,0.0004
553,0.6793733835220337,0.8969712257385254,0.7115384615384616,0.9807692307692307,0.8571428571428571,0.9285714285714286,0.0004
554,0.7253473401069641,1.362696647644043,0.7115384615384616,0.9807692307692307,0.5714285714285714,0.8571428571428571,0.0004
555,0.5337884724140167,1.5912418365478516,0.8269230769230769,1.0,0.5,0.7142857142857143,0.0004
556,0.6073180139064789,1.2379910945892334,0.7307692307692307,1.0,0.6428571428571429,0.7857142857142857,0.0004
557,0.8180084526538849,0.7162166237831116,0.7115384615384616,1.0,0.6428571428571429,1.0,0.0004
558,0.7711880803108215,0.5055864453315735,0.6730769230769231,0.9615384615384616,0.7857142857142857,1.0,0.0004
559,0.6488810181617737,1.0488760471343994,0.6923076923076923,0.9615384615384616,0.5714285714285714,0.9285714285714286,0.0004
560,0.6423873454332352,1.0952951908111572,0.8076923076923077,0.9807692307692307,0.5,0.9285714285714286,0.0004
561,0.515447124838829,1.0066144466400146,0.8076923076923077,0.9807692307692307,0.6428571428571429,0.9285714285714286,0.0004
562,0.5471218377351761,1.3174903392791748,0.8269230769230769,0.9615384615384616,0.6428571428571429,0.8571428571428571,0.0004
563,0.896535724401474,1.1343936920166016,0.6730769230769231,0.9038461538461539,0.7142857142857143,0.7857142857142857,0.0004
564,0.5122283697128296,1.4253573417663574,0.8269230769230769,0.9615384615384616,0.5714285714285714,0.8571428571428571,0.0004
565,0.7078900337219238,1.6889581680297852,0.7307692307692307,0.9423076923076923,0.5,0.8571428571428571,0.0004
566,0.5546865165233612,0.5504167079925537,0.8461538461538461,0.9807692307692307,0.7857142857142857,1.0,0.0004
567,0.9441773295402527,0.8124954700469971,0.6923076923076923,0.8653846153846154,0.7857142857142857,0.9285714285714286,0.0004
568,0.44450560212135315,0.9933516979217529,0.8269230769230769,0.9807692307692307,0.7142857142857143,0.8571428571428571,0.0004
569,0.5012312531471252,1.6305406093597412,0.7884615384615384,0.9807692307692307,0.7142857142857143,0.7857142857142857,0.0004
570,0.9924704730510712,2.1171715259552,0.7115384615384616,0.9230769230769231,0.35714285714285715,0.7142857142857143,0.0004
571,0.5565768480300903,1.2782142162322998,0.7115384615384616,0.9615384615384616,0.7857142857142857,0.9285714285714286,0.0004
572,0.5691036283969879,2.546447515487671,0.7884615384615384,0.9807692307692307,0.6428571428571429,0.6428571428571429,0.0004
573,0.47249680757522583,1.7287774085998535,0.8269230769230769,1.0,0.7142857142857143,0.7857142857142857,0.0004
574,0.7933608889579773,1.464209794998169,0.7692307692307693,0.9423076923076923,0.9285714285714286,0.9285714285714286,0.0004
575,0.6690704822540283,0.7893204689025879,0.75,0.9230769230769231,0.8571428571428571,0.8571428571428571,0.0004
576,0.6684942543506622,1.455314040184021,0.75,0.9615384615384616,0.5714285714285714,0.8571428571428571,0.0004
577,0.7381819188594818,1.931862235069275,0.7307692307692307,0.9423076923076923,0.35714285714285715,0.8571428571428571,0.0004
578,0.8120318353176117,1.8176978826522827,0.7307692307692307,0.9038461538461539,0.6428571428571429,0.8571428571428571,0.0004
579,0.7567815780639648,0.9394956231117249,0.7307692307692307,0.9230769230769231,0.8571428571428571,0.8571428571428571,0.0004
580,0.6090433597564697,0.5071272253990173,0.8269230769230769,0.9423076923076923,0.7857142857142857,0.9285714285714286,0.0004
581,0.705170750617981,1.5188179016113281,0.7692307692307693,0.9807692307692307,0.8571428571428571,0.8571428571428571,0.0004
582,0.8085074126720428,0.6205594539642334,0.8076923076923077,0.9423076923076923,0.9285714285714286,0.7857142857142857,0.0004
583,0.8156944811344147,0.9212232828140259,0.75,0.9423076923076923,0.7857142857142857,0.7857142857142857,0.0004
584,0.7974904477596283,1.39673912525177,0.7307692307692307,0.9423076923076923,0.7142857142857143,0.8571428571428571,0.0004
585,0.7821248769760132,1.919364333152771,0.7692307692307693,0.9038461538461539,0.7142857142857143,0.8571428571428571,0.0004
586,0.8244070410728455,1.9285438060760498,0.7692307692307693,0.9230769230769231,0.6428571428571429,0.8571428571428571,0.0004
587,0.8573841750621796,1.7267851829528809,0.7692307692307693,0.9423076923076923,0.7857142857142857,0.9285714285714286,0.0004
588,0.5393416434526443,1.3617041110992432,0.7884615384615384,1.0,0.7857142857142857,0.8571428571428571,0.0004
589,0.8709046244621277,2.0101637840270996,0.75,0.9423076923076923,0.6428571428571429,0.8571428571428571,0.0004
590,0.6540480256080627,1.4056963920593262,0.75,0.9807692307692307,0.6428571428571429,0.8571428571428571,0.0004
591,1.0988010168075562,0.8775535225868225,0.7115384615384616,0.9230769230769231,0.8571428571428571,0.9285714285714286,0.0004
592,0.7098336219787598,1.1119508743286133,0.8076923076923077,0.9615384615384616,0.7142857142857143,0.9285714285714286,0.0004
593,0.6623898446559906,1.2042490243911743,0.7884615384615384,0.9615384615384616,0.5,0.7857142857142857,0.0004
594,0.8177510201931,0.8312305808067322,0.75,0.9230769230769231,0.8571428571428571,0.9285714285714286,0.0004
595,0.8210313022136688,1.0061852931976318,0.7307692307692307,0.8653846153846154,0.7857142857142857,0.8571428571428571,0.0004
596,0.5885553658008575,0.8163699507713318,0.7884615384615384,0.9615384615384616,0.7142857142857143,0.9285714285714286,0.0004
597,0.8273036479949951,0.9617164134979248,0.5961538461538461,0.9615384615384616,0.7142857142857143,0.8571428571428571,0.0004
598,0.5494617521762848,1.2510578632354736,0.7692307692307693,1.0,0.7142857142857143,0.8571428571428571,0.0004
599,0.6792135536670685,1.2278192043304443,0.7115384615384616,0.9807692307692307,0.5714285714285714,0.7857142857142857,0.0004
600,0.7792058289051056,0.716542661190033,0.6730769230769231,0.9807692307692307,0.8571428571428571,0.9285714285714286,0.0004
601,0.7439850568771362,1.1058655977249146,0.75,0.9807692307692307,0.6428571428571429,0.8571428571428571,0.0004
602,0.6815204620361328,1.0721806287765503,0.7307692307692307,0.9807692307692307,0.6428571428571429,0.9285714285714286,0.0004
603,0.7804143130779266,1.4930384159088135,0.7692307692307693,0.9423076923076923,0.7142857142857143,0.7142857142857143,0.0004
604,0.5807485431432724,1.0606321096420288,0.75,0.9615384615384616,0.6428571428571429,0.8571428571428571,0.0004
605,0.4805561602115631,0.7344582080841064,0.8269230769230769,0.9807692307692307,0.8571428571428571,0.9285714285714286,0.0004
606,0.7613849341869354,0.9039018154144287,0.7692307692307693,0.9423076923076923,0.7857142857142857,0.8571428571428571,0.0004
607,0.5814886540174484,1.4846584796905518,0.7692307692307693,0.9615384615384616,0.5,0.7857142857142857,0.0004
608,0.830599844455719,1.1454676389694214,0.6730769230769231,0.9230769230769231,0.7142857142857143,0.9285714285714286,0.0004
609,0.7765378952026367,1.040914535522461,0.6923076923076923,0.9423076923076923,0.6428571428571429,0.7857142857142857,0.0004
610,0.7542858719825745,1.149044156074524,0.6730769230769231,0.9807692307692307,0.6428571428571429,0.8571428571428571,0.0004
611,0.970453143119812,0.7359229326248169,0.6538461538461539,0.9230769230769231,0.7857142857142857,0.9285714285714286,0.0004
612,0.6629744172096252,1.1246178150177002,0.7692307692307693,0.9423076923076923,0.5714285714285714,0.8571428571428571,0.0004
613,0.8731518089771271,1.0662709474563599,0.6923076923076923,0.9038461538461539,0.7857142857142857,0.8571428571428571,0.0004
614,0.6671423614025116,1.409517765045166,0.7884615384615384,0.9615384615384616,0.7142857142857143,0.7857142857142857,0.0004
615,0.6850302815437317,0.9638609886169434,0.7692307692307693,0.9615384615384616,0.7142857142857143,0.9285714285714286,0.0004
616,0.5552709549665451,1.0626411437988281,0.8653846153846154,0.9615384615384616,0.7857142857142857,0.9285714285714286,0.0004
617,0.6289557218551636,0.738598644733429,0.75,0.9615384615384616,0.7142857142857143,1.0,0.0004
618,0.564326137304306,1.265054702758789,0.8076923076923077,1.0,0.6428571428571429,0.7857142857142857,0.0004
619,0.634617269039154,0.79257732629776,0.7692307692307693,0.9615384615384616,0.8571428571428571,0.8571428571428571,0.0004
620,0.5315015316009521,1.2512924671173096,0.8846153846153846,0.9423076923076923,0.6428571428571429,0.7857142857142857,0.0004
621,0.8206557333469391,0.90085768699646,0.75,0.9230769230769231,0.7857142857142857,0.8571428571428571,0.0004
622,0.7656185925006866,1.2760008573532104,0.7884615384615384,0.9038461538461539,0.7142857142857143,0.8571428571428571,0.0004
623,0.668954610824585,0.87055504322052,0.7884615384615384,0.9615384615384616,0.8571428571428571,0.8571428571428571,0.0004
624,0.7021947503089905,1.5189599990844727,0.7884615384615384,0.9038461538461539,0.7142857142857143,0.9285714285714286,0.0004
625,0.5139831006526947,1.1424685716629028,0.8269230769230769,0.9807692307692307,0.7857142857142857,0.7857142857142857,0.0004
626,0.8520818650722504,1.5346250534057617,0.75,0.9423076923076923,0.5,0.7857142857142857,0.0004
627,0.6507083773612976,1.6411411762237549,0.75,1.0,0.6428571428571429,0.7857142857142857,0.0004
628,0.573368489742279,2.0099833011627197,0.8269230769230769,0.9807692307692307,0.6428571428571429,0.9285714285714286,0.0004
629,0.588674396276474,0.8010752201080322,0.7692307692307693,0.9807692307692307,0.7142857142857143,0.9285714285714286,0.0004
630,0.6857055425643921,1.590867042541504,0.75,0.9615384615384616,0.7142857142857143,0.7142857142857143,0.0004
631,0.7984912395477295,1.052487850189209,0.75,0.9230769230769231,0.7142857142857143,0.9285714285714286,0.0004
632,0.6030544340610504,0.8809536099433899,0.7692307692307693,0.9230769230769231,0.8571428571428571,0.9285714285714286,0.0004
633,0.71474190056324,1.2697480916976929,0.8269230769230769,0.9615384615384616,0.5714285714285714,0.7857142857142857,0.0004
634,0.46394211053848267,1.424631118774414,0.8461538461538461,1.0,0.7142857142857143,0.8571428571428571,0.0004
635,0.547099232673645,0.7132282257080078,0.7692307692307693,0.9807692307692307,0.8571428571428571,0.9285714285714286,0.0004
636,0.8986554145812988,1.2188987731933594,0.7692307692307693,0.9038461538461539,0.5714285714285714,0.8571428571428571,0.0004
637,0.5313731729984283,1.2594127655029297,0.8076923076923077,0.9807692307692307,0.7142857142857143,0.9285714285714286,0.0004
638,0.733073890209198,0.8883536458015442,0.7884615384615384,0.9230769230769231,0.7857142857142857,0.9285714285714286,0.0004
639,0.5864548683166504,0.5298744440078735,0.8461538461538461,0.9807692307692307,0.9285714285714286,0.9285714285714286,0.0004
640,0.5531070232391357,0.9904454946517944,0.7307692307692307,1.0,0.7142857142857143,0.8571428571428571,0.0004
641,0.62682244181633,0.8726677894592285,0.8269230769230769,0.9230769230769231,0.6428571428571429,0.9285714285714286,0.0004
642,0.6554362028837204,0.8730367422103882,0.75,0.9615384615384616,0.7857142857142857,0.9285714285714286,0.0004
643,0.7976619303226471,0.9930342435836792,0.7115384615384616,0.9615384615384616,0.6428571428571429,0.9285714285714286,0.0004
644,0.42998309433460236,1.5581130981445312,0.8846153846153846,0.9615384615384616,0.6428571428571429,0.7857142857142857,0.0004
645,0.5356565862894058,0.990702211856842,0.7884615384615384,0.9615384615384616,0.6428571428571429,0.8571428571428571,0.0004
646,0.6004584282636642,1.3747785091400146,0.7307692307692307,0.9807692307692307,0.6428571428571429,0.8571428571428571,0.0004
647,0.6426282823085785,0.8338363170623779,0.8269230769230769,0.9423076923076923,0.7857142857142857,0.9285714285714286,0.0004
648,0.44462019205093384,1.216951608657837,0.8653846153846154,0.9423076923076923,0.7142857142857143,0.8571428571428571,0.0004
649,0.5697044730186462,0.6407363414764404,0.8076923076923077,0.9807692307692307,0.7857142857142857,0.9285714285714286,0.0004
650,0.5960143804550171,0.6349685192108154,0.6923076923076923,1.0,0.9285714285714286,0.9285714285714286,0.0004
651,0.5807315707206726,0.672114372253418,0.7115384615384616,1.0,0.7857142857142857,0.9285714285714286,0.0004
652,0.8727774620056152,1.4912898540496826,0.75,0.8653846153846154,0.7142857142857143,0.7857142857142857,0.0004
653,0.5791750848293304,1.0576279163360596,0.8653846153846154,0.9615384615384616,0.8571428571428571,0.7857142857142857,0.0004
654,0.7268759608268738,1.216478705406189,0.7307692307692307,0.9615384615384616,0.5714285714285714,0.9285714285714286,0.0004
655,0.6467371881008148,0.8755642771720886,0.8076923076923077,0.9230769230769231,0.7142857142857143,0.9285714285714286,0.0004
656,0.590631514787674,0.9612507820129395,0.7307692307692307,0.9615384615384616,0.7142857142857143,0.9285714285714286,0.0004
657,0.5509083420038223,1.450814127922058,0.75,1.0,0.5714285714285714,0.7857142857142857,0.0004
658,0.4486391693353653,1.2271543741226196,0.8461538461538461,0.9807692307692307,0.5714285714285714,0.8571428571428571,0.0004
659,0.5740494728088379,1.0957331657409668,0.8076923076923077,0.9423076923076923,0.6428571428571429,0.8571428571428571,0.0004
660,0.5970524847507477,1.321338415145874,0.8461538461538461,0.9423076923076923,0.6428571428571429,0.8571428571428571,0.0004
661,0.5649531185626984,1.3096342086791992,0.7692307692307693,0.9807692307692307,0.5714285714285714,0.7857142857142857,0.0004
662,0.6401965320110321,1.595773458480835,0.75,0.9423076923076923,0.5714285714285714,0.7857142857142857,0.0004
663,0.8899824321269989,1.0301352739334106,0.6923076923076923,0.9423076923076923,0.6428571428571429,0.9285714285714286,0.0004
664,0.5837053954601288,1.151170015335083,0.7884615384615384,1.0,0.6428571428571429,0.8571428571428571,0.0004
665,0.5685130804777145,0.6439086198806763,0.75,1.0,0.8571428571428571,0.9285714285714286,0.0004
666,0.5008265227079391,0.7748885750770569,0.8269230769230769,0.9807692307692307,0.6428571428571429,0.8571428571428571,0.0004
667,0.4214627295732498,0.5960146188735962,0.8653846153846154,0.9807692307692307,0.9285714285714286,0.9285714285714286,0.0004
668,0.5080454349517822,1.2818905115127563,0.7884615384615384,1.0,0.7142857142857143,0.8571428571428571,0.0004
669,0.39836540073156357,1.205594539642334,0.9038461538461539,0.9807692307692307,0.7857142857142857,0.9285714285714286,0.0004
670,0.6424844563007355,1.0286632776260376,0.7307692307692307,0.9615384615384616,0.7142857142857143,0.8571428571428571,0.0004
671,0.5073899030685425,0.8420878648757935,0.7884615384615384,0.9807692307692307,0.7857142857142857,0.9285714285714286,0.0004
672,0.34749725461006165,1.2275066375732422,0.8846153846153846,1.0,0.7142857142857143,0.9285714285714286,0.0004
673,0.3672233074903488,1.7724661827087402,0.8846153846153846,0.9615384615384616,0.5714285714285714,0.8571428571428571,0.0004
674,0.7347765266895294,1.0577669143676758,0.7307692307692307,0.9615384615384616,0.7857142857142857,0.7857142857142857,0.0004
675,0.49122077226638794,2.0481464862823486,0.7692307692307693,0.9615384615384616,0.7142857142857143,0.7857142857142857,0.0004
676,0.566674143075943,2.252129077911377,0.7884615384615384,0.9807692307692307,0.5714285714285714,0.7857142857142857,0.0004
677,0.6138489842414856,0.9416236877441406,0.75,0.9615384615384616,0.8571428571428571,0.9285714285714286,0.0004
678,0.5016656219959259,1.1718697547912598,0.8269230769230769,0.9423076923076923,0.7142857142857143,0.8571428571428571,0.0004
679,0.5353635847568512,0.8098853826522827,0.8076923076923077,0.9423076923076923,0.7857142857142857,0.9285714285714286,0.0004
680,0.7415696680545807,1.3313586711883545,0.75,0.9615384615384616,0.5714285714285714,0.9285714285714286,0.0004
681,0.8099381923675537,0.7747770547866821,0.6923076923076923,0.9423076923076923,0.8571428571428571,0.9285714285714286,0.0004
682,0.5830766707658768,0.9102754592895508,0.7307692307692307,1.0,0.8571428571428571,0.8571428571428571,0.0004
683,0.6877063810825348,0.8768019676208496,0.8269230769230769,0.9615384615384616,0.9285714285714286,0.8571428571428571,0.0004
684,0.5709710717201233,1.7757258415222168,0.75,0.9807692307692307,0.5714285714285714,0.7857142857142857,0.0004
685,0.6711734235286713,0.7694698572158813,0.7884615384615384,0.9615384615384616,0.8571428571428571,0.9285714285714286,0.0004
686,1.0801033973693848,0.893486499786377,0.75,0.8846153846153846,0.7857142857142857,0.8571428571428571,0.0004
687,0.9137600660324097,1.0560789108276367,0.6923076923076923,0.9230769230769231,0.7857142857142857,0.8571428571428571,0.0004
688,0.6057845056056976,1.2565436363220215,0.75,0.9807692307692307,0.7142857142857143,0.8571428571428571,0.0004
689,0.7494122982025146,1.0296436548233032,0.7307692307692307,0.9423076923076923,0.7857142857142857,0.8571428571428571,0.0004
690,0.8621424436569214,1.4832918643951416,0.6538461538461539,0.8846153846153846,0.5714285714285714,0.8571428571428571,0.0004
691,0.9151580929756165,0.9445456266403198,0.7884615384615384,0.9230769230769231,0.6428571428571429,0.9285714285714286,0.0004
692,0.714823305606842,0.7302531599998474,0.75,0.9615384615384616,0.7857142857142857,0.9285714285714286,0.0004
693,0.8661653399467468,1.1686034202575684,0.7692307692307693,0.8653846153846154,0.6428571428571429,0.8571428571428571,0.0004
694,0.8774172067642212,1.183020830154419,0.6923076923076923,0.9423076923076923,0.5,0.8571428571428571,0.0004
695,0.7167214155197144,1.0754916667938232,0.7307692307692307,0.9423076923076923,0.6428571428571429,0.9285714285714286,0.0004
696,0.8002985715866089,1.0449368953704834,0.7307692307692307,0.9423076923076923,0.7857142857142857,0.8571428571428571,0.0004
697,0.5392046868801117,0.6657286882400513,0.7692307692307693,0.9807692307692307,1.0,0.8571428571428571,0.0004
698,0.8023000657558441,1.2870721817016602,0.7307692307692307,0.9038461538461539,0.7142857142857143,0.7857142857142857,0.0004
699,0.8799319565296173,1.2238523960113525,0.6730769230769231,0.9038461538461539,0.6428571428571429,0.7857142857142857,0.0004
700,0.9065441489219666,1.0300883054733276,0.7692307692307693,0.9038461538461539,0.8571428571428571,0.7857142857142857,0.0004
701,0.633131206035614,1.4105218648910522,0.7692307692307693,0.9615384615384616,0.5714285714285714,0.7857142857142857,0.0004
702,0.7486843168735504,1.1327624320983887,0.7692307692307693,0.9807692307692307,0.7857142857142857,0.7857142857142857,0.0004
703,0.6980822086334229,0.8016974329948425,0.7884615384615384,0.9807692307692307,0.9285714285714286,0.8571428571428571,0.0004
704,0.7697121500968933,1.0716749429702759,0.7307692307692307,0.9807692307692307,0.7142857142857143,0.8571428571428571,0.0004
705,0.9056510925292969,1.2039105892181396,0.6730769230769231,0.9423076923076923,0.5714285714285714,0.8571428571428571,0.0004
706,0.6952759325504303,1.3569986820220947,0.7884615384615384,0.9615384615384616,0.5714285714285714,0.8571428571428571,0.0004
707,0.6652548313140869,1.3078396320343018,0.7884615384615384,0.9230769230769231,0.6428571428571429,0.9285714285714286,0.0004
708,0.6316132843494415,0.8625290393829346,0.8076923076923077,0.9230769230769231,0.9285714285714286,0.7857142857142857,0.0004
709,0.6849474906921387,0.8924499750137329,0.75,0.9615384615384616,0.7857142857142857,0.9285714285714286,0.0004
710,0.6230885982513428,0.8059312701225281,0.7692307692307693,0.9615384615384616,0.7857142857142857,0.9285714285714286,0.0004
711,0.5910541415214539,1.2432135343551636,0.8269230769230769,0.9615384615384616,0.7857142857142857,0.7857142857142857,0.0004
712,0.7744834125041962,0.8697251081466675,0.6923076923076923,0.9423076923076923,0.8571428571428571,0.8571428571428571,0.0004
713,0.7769773304462433,1.0672543048858643,0.7307692307692307,0.9423076923076923,0.7142857142857143,0.9285714285714286,0.0004
714,0.6085524559020996,0.9423136711120605,0.7884615384615384,0.9615384615384616,0.7142857142857143,0.9285714285714286,0.0004
715,0.5541152358055115,1.2294509410858154,0.8461538461538461,0.9423076923076923,0.8571428571428571,0.8571428571428571,0.0004
716,0.6653558611869812,1.5757558345794678,0.8269230769230769,0.9615384615384616,0.5714285714285714,0.7857142857142857,0.0004
717,0.6671197414398193,1.1241892576217651,0.7307692307692307,1.0,0.7857142857142857,0.8571428571428571,0.0004
718,0.6740138828754425,0.8533576726913452,0.7692307692307693,0.9423076923076923,1.0,0.8571428571428571,0.0004
719,0.5860818475484848,1.2802720069885254,0.75,1.0,0.7142857142857143,0.8571428571428571,0.0004
720,0.6240580081939697,1.0243315696716309,0.7884615384615384,0.9423076923076923,0.7857142857142857,0.9285714285714286,0.0004
721,0.6364628970623016,0.9300618171691895,0.7692307692307693,0.9615384615384616,0.7857142857142857,0.8571428571428571,0.0004
722,0.9306485056877136,1.1083219051361084,0.6923076923076923,0.9423076923076923,0.6428571428571429,0.9285714285714286,0.0004
723,0.5969984233379364,1.087722659111023,0.8076923076923077,0.9615384615384616,0.8571428571428571,0.7857142857142857,0.0004
724,0.5603712648153305,1.5632166862487793,0.7692307692307693,1.0,0.5714285714285714,0.7142857142857143,0.0004
725,0.6420261859893799,0.8650416135787964,0.75,0.9615384615384616,0.9285714285714286,0.9285714285714286,0.0004
726,0.4232418090105057,0.8173997402191162,0.9230769230769231,0.9807692307692307,0.5714285714285714,0.9285714285714286,0.0004
727,0.7474803030490875,1.0422571897506714,0.7307692307692307,0.9615384615384616,0.7857142857142857,0.9285714285714286,0.0004
728,0.605353444814682,0.6181581020355225,0.7884615384615384,0.9230769230769231,1.0,0.8571428571428571,0.0004
729,0.48384515941143036,1.380981683731079,0.8653846153846154,0.9807692307692307,0.7142857142857143,0.8571428571428571,0.0004
730,0.6507486701011658,0.634945273399353,0.7307692307692307,0.9615384615384616,0.7142857142857143,0.9285714285714286,0.0004
731,0.6627213656902313,1.073751449584961,0.7884615384615384,0.9807692307692307,0.7857142857142857,0.8571428571428571,0.0004
732,0.5394222438335419,1.4683502912521362,0.8269230769230769,0.9615384615384616,0.6428571428571429,0.7857142857142857,0.0004
733,0.486997127532959,0.8684114217758179,0.8653846153846154,0.9807692307692307,0.8571428571428571,0.8571428571428571,0.0004
734,0.5161579549312592,1.0974920988082886,0.7884615384615384,1.0,0.7142857142857143,0.9285714285714286,0.0004
735,0.6832627952098846,0.9141528606414795,0.7307692307692307,0.9807692307692307,0.7857142857142857,0.8571428571428571,0.0004
736,0.6238060295581818,1.0993038415908813,0.8076923076923077,0.9615384615384616,0.7857142857142857,0.8571428571428571,0.0004
737,0.5559156239032745,1.9966611862182617,0.8461538461538461,0.9615384615384616,0.35714285714285715,0.7857142857142857,0.0004
738,0.7804040610790253,1.462896466255188,0.7884615384615384,0.9038461538461539,0.6428571428571429,0.7857142857142857,0.0004
739,0.5776176750659943,0.6093660593032837,0.7884615384615384,0.9807692307692307,0.7857142857142857,0.9285714285714286,0.0004
740,0.6547326743602753,1.4014742374420166,0.8076923076923077,0.9423076923076923,0.5714285714285714,0.8571428571428571,0.0004
741,0.5281956791877747,1.972740650177002,0.7884615384615384,0.9615384615384616,0.7857142857142857,0.8571428571428571,0.0004
742,0.5158210694789886,1.0917071104049683,0.7884615384615384,0.9807692307692307,0.7142857142857143,0.9285714285714286,0.0004
743,0.7305606305599213,1.0367240905761719,0.7307692307692307,0.9423076923076923,0.5714285714285714,0.8571428571428571,0.0004
744,0.5392274111509323,0.6117156744003296,0.75,0.9807692307692307,0.9285714285714286,0.9285714285714286,0.0004
745,0.6095310151576996,1.0712815523147583,0.8653846153846154,0.9423076923076923,0.5714285714285714,0.8571428571428571,0.0004
746,0.6356728076934814,1.0070512294769287,0.8076923076923077,0.9615384615384616,0.7857142857142857,0.8571428571428571,0.0004
747,0.6938862055540085,1.9661495685577393,0.7692307692307693,0.9423076923076923,0.6428571428571429,0.8571428571428571,0.0004
748,0.4025750905275345,1.3723809719085693,0.8461538461538461,1.0,0.6428571428571429,0.8571428571428571,0.0004
749,0.44745899736881256,0.3498273491859436,0.8846153846153846,0.9807692307692307,0.9285714285714286,0.9285714285714286,0.0004
750,0.4180899113416672,1.2176309823989868,0.8653846153846154,0.9807692307692307,0.6428571428571429,0.9285714285714286,0.0004
751,0.8224729001522064,0.930351972579956,0.6923076923076923,0.9615384615384616,0.8571428571428571,0.7857142857142857,0.0004
752,0.6056415736675262,1.21491277217865,0.7692307692307693,0.9615384615384616,0.7857142857142857,0.8571428571428571,0.0004
753,0.4616505801677704,1.1492938995361328,0.8269230769230769,1.0,0.8571428571428571,0.7857142857142857,0.0004
754,0.5436869263648987,1.9159131050109863,0.7692307692307693,0.9615384615384616,0.5714285714285714,0.8571428571428571,0.0004
755,0.5038903206586838,1.4497758150100708,0.7884615384615384,0.9807692307692307,0.7142857142857143,0.9285714285714286,0.0004
756,0.8735931515693665,0.6889234781265259,0.7692307692307693,0.8846153846153846,0.9285714285714286,0.9285714285714286,0.0004
757,0.7226511538028717,0.9703883528709412,0.75,0.9423076923076923,0.7857142857142857,0.9285714285714286,0.0004
758,0.8538468182086945,0.9157391786575317,0.6923076923076923,0.9230769230769231,0.7857142857142857,0.8571428571428571,0.0004
759,0.5767721384763718,0.6921896934509277,0.8461538461538461,0.9038461538461539,0.9285714285714286,0.9285714285714286,0.0004
760,0.765641987323761,0.708232581615448,0.6923076923076923,0.9230769230769231,0.8571428571428571,0.9285714285714286,0.0004
761,0.5475420355796814,0.9831902980804443,0.75,0.9807692307692307,0.6428571428571429,0.9285714285714286,0.0004
762,0.5948463082313538,1.0106017589569092,0.7884615384615384,0.9423076923076923,0.7857142857142857,0.9285714285714286,0.0004
763,0.6867297291755676,1.211044192314148,0.7692307692307693,0.9423076923076923,0.7857142857142857,0.7857142857142857,0.0004
764,0.7775046229362488,1.2257602214813232,0.6730769230769231,0.9423076923076923,0.6428571428571429,0.9285714285714286,0.0004
765,0.7453191578388214,0.8534775972366333,0.7307692307692307,0.9423076923076923,0.7857142857142857,0.8571428571428571,0.0004
766,0.46541446447372437,1.367546796798706,0.8461538461538461,1.0,0.7142857142857143,0.8571428571428571,0.0004
767,0.6570732295513153,0.8776028156280518,0.75,0.9615384615384616,0.7142857142857143,0.9285714285714286,0.0004
768,0.6588326394557953,0.8071662187576294,0.6923076923076923,0.9615384615384616,0.7142857142857143,0.9285714285714286,0.0004
769,0.578207939863205,0.7732661962509155,0.7692307692307693,0.9615384615384616,0.8571428571428571,0.9285714285714286,0.0004
770,0.5952596366405487,1.2854959964752197,0.7307692307692307,0.9615384615384616,0.6428571428571429,0.8571428571428571,0.0004
771,0.8140641152858734,1.4112461805343628,0.6730769230769231,0.8846153846153846,0.5714285714285714,0.8571428571428571,0.0004
772,0.7801507115364075,0.9822437763214111,0.7884615384615384,0.9038461538461539,0.7142857142857143,0.8571428571428571,0.0004
773,0.5136273056268692,1.4151546955108643,0.8076923076923077,1.0,0.6428571428571429,0.8571428571428571,0.0004
774,0.6007679104804993,1.4952178001403809,0.8461538461538461,0.9807692307692307,0.5,0.8571428571428571,0.0004
775,0.6206697821617126,0.9426524639129639,0.7692307692307693,0.9807692307692307,0.7142857142857143,0.7857142857142857,0.0004
776,0.655353456735611,1.4351778030395508,0.7307692307692307,0.9423076923076923,0.7857142857142857,0.9285714285714286,0.0004
777,0.6060523986816406,0.8136279582977295,0.7307692307692307,0.9807692307692307,0.9285714285714286,0.8571428571428571,0.0004
778,0.5705051124095917,1.4224915504455566,0.7692307692307693,0.9423076923076923,0.7142857142857143,0.7857142857142857,0.0004
779,0.5382986962795258,0.9392151236534119,0.8269230769230769,0.9615384615384616,0.5714285714285714,0.9285714285714286,0.0004
780,0.6561925411224365,0.9042952060699463,0.7115384615384616,0.9423076923076923,0.7857142857142857,0.9285714285714286,0.0004
781,0.7546602487564087,0.9587274789810181,0.7692307692307693,0.9615384615384616,0.7142857142857143,0.9285714285714286,0.0004
782,0.48671887814998627,0.8924389481544495,0.8076923076923077,0.9807692307692307,0.7142857142857143,0.8571428571428571,0.0004
783,0.5805698335170746,0.9758027791976929,0.7884615384615384,1.0,0.8571428571428571,0.8571428571428571,0.0004
784,0.6188398599624634,1.4565649032592773,0.7884615384615384,0.9615384615384616,0.7857142857142857,0.7857142857142857,0.0004
785,0.5416069179773331,1.2989485263824463,0.8076923076923077,0.9230769230769231,0.7142857142857143,0.8571428571428571,0.0004
786,0.5980169475078583,1.6035645008087158,0.7884615384615384,0.9807692307692307,0.5,0.6428571428571429,0.0004
787,0.5557514429092407,0.8435842394828796,0.8461538461538461,0.9615384615384616,0.8571428571428571,0.8571428571428571,0.0004
788,0.549653172492981,0.9392000436782837,0.7307692307692307,0.9807692307692307,0.6428571428571429,0.8571428571428571,0.0004
789,0.4036586657166481,0.8238252401351929,0.8269230769230769,1.0,0.7142857142857143,0.8571428571428571,0.0004
790,0.5465714782476425,1.2479732036590576,0.7692307692307693,0.9807692307692307,0.6428571428571429,0.8571428571428571,0.0004
791,0.6044929623603821,1.2460849285125732,0.7884615384615384,0.9423076923076923,0.6428571428571429,0.7857142857142857,0.0004
792,0.7347134947776794,0.5602330565452576,0.6730769230769231,0.9423076923076923,0.7857142857142857,0.9285714285714286,0.0004
793,0.5824567824602127,0.8672945499420166,0.7692307692307693,0.9423076923076923,0.7142857142857143,0.9285714285714286,0.0004
794,0.5852073431015015,1.0401092767715454,0.8269230769230769,0.9807692307692307,0.7142857142857143,0.8571428571428571,0.0004
795,0.7404568195343018,1.43357515335083,0.8076923076923077,0.9230769230769231,0.5714285714285714,0.8571428571428571,0.0004
796,0.47525598108768463,1.2725305557250977,0.8461538461538461,0.9807692307692307,0.6428571428571429,0.7857142857142857,0.0004
797,0.610249400138855,0.7312082052230835,0.7692307692307693,0.9615384615384616,0.8571428571428571,0.9285714285714286,0.0004
798,0.5886080861091614,1.2317060232162476,0.7692307692307693,0.9615384615384616,0.7857142857142857,0.8571428571428571,0.0004
799,0.6394479721784592,1.482856035232544,0.7884615384615384,0.9615384615384616,0.7142857142857143,0.8571428571428571,0.0004
800,0.7153193652629852,0.721245288848877,0.75,0.9807692307692307,0.7857142857142857,0.9285714285714286,0.0004
801,0.47150853276252747,1.7298307418823242,0.7692307692307693,0.9807692307692307,0.5714285714285714,0.7142857142857143,0.0004
802,0.47715994715690613,0.9372831583023071,0.7884615384615384,1.0,0.7857142857142857,0.9285714285714286,0.0004
803,0.6281988322734833,0.8484506607055664,0.7692307692307693,1.0,0.7857142857142857,0.8571428571428571,0.0004
804,0.808582991361618,1.70944082736969,0.7692307692307693,0.9038461538461539,0.7857142857142857,0.8571428571428571,0.0004
805,0.4370669424533844,1.3305304050445557,0.8269230769230769,0.9807692307692307,0.6428571428571429,0.8571428571428571,0.0004
806,0.5847840905189514,1.4208918809890747,0.8076923076923077,0.9423076923076923,0.5714285714285714,0.8571428571428571,0.0004
807,0.4872128963470459,1.2568631172180176,0.9038461538461539,0.9615384615384616,0.7142857142857143,0.8571428571428571,0.0004
808,0.5915942639112473,1.4394140243530273,0.8461538461538461,0.9615384615384616,0.5,0.8571428571428571,0.0004
809,0.5563214123249054,0.8670809268951416,0.8461538461538461,0.9615384615384616,0.8571428571428571,0.8571428571428571,0.0004
810,0.6034228950738907,1.0551129579544067,0.6923076923076923,0.9807692307692307,0.7857142857142857,0.8571428571428571,0.0004
811,0.5001115798950195,1.6711459159851074,0.8076923076923077,0.9807692307692307,0.7142857142857143,0.8571428571428571,0.0004
812,0.5799758285284042,0.9507452249526978,0.7884615384615384,0.9615384615384616,0.6428571428571429,0.9285714285714286,0.0004
813,0.6708136200904846,1.4800477027893066,0.75,0.9423076923076923,0.6428571428571429,0.7857142857142857,0.0004
814,0.6731030642986298,1.1500985622406006,0.75,0.9423076923076923,0.7857142857142857,0.9285714285714286,0.0004
815,0.888263463973999,0.5785202980041504,0.7884615384615384,0.8846153846153846,0.8571428571428571,0.8571428571428571,0.0004
816,0.7238956987857819,1.2419911623001099,0.7115384615384616,0.9038461538461539,0.6428571428571429,0.8571428571428571,0.0004
817,0.5887594521045685,1.043302059173584,0.7884615384615384,0.9423076923076923,0.7857142857142857,0.7142857142857143,0.0004
818,0.6634007692337036,0.6646274328231812,0.7884615384615384,0.9615384615384616,0.7857142857142857,0.9285714285714286,0.0004
819,0.5123139172792435,1.0615416765213013,0.7884615384615384,0.9615384615384616,0.7142857142857143,0.8571428571428571,0.0004
820,0.4680473506450653,0.7200312614440918,0.8461538461538461,1.0,0.7857142857142857,0.8571428571428571,0.0004
821,0.5332351326942444,1.2085165977478027,0.7884615384615384,0.9807692307692307,0.6428571428571429,0.9285714285714286,0.0004
822,0.6151140034198761,1.2870643138885498,0.75,0.9807692307692307,0.6428571428571429,0.9285714285714286,0.0004
823,0.5577807128429413,0.5530351400375366,0.7884615384615384,1.0,0.9285714285714286,0.9285714285714286,0.0004
824,0.7890217006206512,1.0984898805618286,0.7884615384615384,0.9615384615384616,0.6428571428571429,0.8571428571428571,0.0004
825,0.6056110560894012,0.6314646005630493,0.8269230769230769,0.9423076923076923,0.7857142857142857,0.9285714285714286,0.0004
826,0.8253341317176819,0.919761061668396,0.7692307692307693,0.9230769230769231,0.8571428571428571,0.9285714285714286,0.0004
827,0.5061604827642441,0.5440707206726074,0.8269230769230769,0.9807692307692307,0.8571428571428571,0.9285714285714286,0.0004
828,0.8257769644260406,1.7908978462219238,0.6923076923076923,0.9423076923076923,0.7142857142857143,0.7857142857142857,0.0004
829,0.4526406079530716,1.1252224445343018,0.8653846153846154,0.9807692307692307,0.6428571428571429,0.8571428571428571,0.0004
830,0.4663487374782562,0.807430624961853,0.8653846153846154,0.9615384615384616,0.8571428571428571,0.8571428571428571,0.0004
831,0.7018304467201233,1.0022549629211426,0.8076923076923077,0.9038461538461539,0.7857142857142857,0.9285714285714286,0.0004
832,0.6306359171867371,1.0345892906188965,0.75,0.9230769230769231,0.7857142857142857,0.8571428571428571,0.0004
833,0.5339656323194504,1.3318884372711182,0.8269230769230769,0.9423076923076923,0.6428571428571429,0.7142857142857143,0.0004
834,0.626991868019104,0.8634017705917358,0.75,1.0,0.8571428571428571,0.7857142857142857,0.0004
835,0.5794671475887299,1.0932003259658813,0.7307692307692307,0.9615384615384616,0.7142857142857143,0.7857142857142857,0.0004
836,0.42353473603725433,0.7231826782226562,0.8269230769230769,1.0,0.8571428571428571,0.9285714285714286,0.0004
837,0.5377794355154037,1.0562517642974854,0.7692307692307693,1.0,0.8571428571428571,0.8571428571428571,0.0004
838,0.7846180498600006,0.6281033158302307,0.7692307692307693,0.9615384615384616,0.8571428571428571,0.8571428571428571,0.0004
839,0.6910821497440338,0.7695945501327515,0.8269230769230769,0.9807692307692307,0.7142857142857143,0.8571428571428571,0.0004
840,0.5025760233402252,1.418431282043457,0.7884615384615384,1.0,0.6428571428571429,0.8571428571428571,0.0004
841,0.48791201412677765,1.3196656703948975,0.7692307692307693,0.9807692307692307,0.6428571428571429,0.7142857142857143,0.0004
842,0.5002339035272598,1.2623814344406128,0.7884615384615384,1.0,0.7142857142857143,0.8571428571428571,0.0004
843,0.5094708353281021,1.2377231121063232,0.7884615384615384,0.9807692307692307,0.5714285714285714,0.8571428571428571,0.0004
844,0.4229501634836197,0.8951380252838135,0.8461538461538461,1.0,0.8571428571428571,0.8571428571428571,0.0004
845,0.6328260898590088,0.7629148960113525,0.7884615384615384,0.9615384615384616,0.7857142857142857,0.9285714285714286,0.0004
846,0.543377161026001,0.5779528021812439,0.7692307692307693,0.9807692307692307,0.9285714285714286,0.9285714285714286,0.0004
847,0.6393643617630005,1.7200877666473389,0.7115384615384616,0.9615384615384616,0.5,0.8571428571428571,0.0004
848,0.6291181743144989,1.802293300628662,0.7692307692307693,0.9615384615384616,0.7857142857142857,0.7857142857142857,0.0004
849,0.5421958416700363,0.7604200839996338,0.7115384615384616,0.9807692307692307,0.6428571428571429,0.8571428571428571,0.0004
850,0.733159214258194,1.0733578205108643,0.7307692307692307,0.9230769230769231,0.7857142857142857,0.9285714285714286,0.0004
851,0.44957365095615387,0.6636519432067871,0.8076923076923077,1.0,0.9285714285714286,0.8571428571428571,0.0004
852,0.617861345410347,1.303931474685669,0.8076923076923077,0.9615384615384616,0.7142857142857143,0.9285714285714286,0.0004
853,0.45627306401729584,1.3600780963897705,0.8076923076923077,0.9807692307692307,0.7142857142857143,0.7857142857142857,0.0004
854,0.5264081954956055,1.415996789932251,0.8653846153846154,1.0,0.6428571428571429,0.8571428571428571,0.0004
855,0.6701948344707489,1.323754072189331,0.7884615384615384,0.9423076923076923,0.7142857142857143,0.8571428571428571,0.0004
856,0.681174099445343,1.301753282546997,0.7307692307692307,0.9615384615384616,0.7857142857142857,0.8571428571428571,0.0004
857,0.2834644019603729,0.7936185002326965,0.8846153846153846,1.0,0.7857142857142857,0.8571428571428571,0.0004
858,0.657410740852356,0.783898651599884,0.8653846153846154,0.9423076923076923,0.8571428571428571,0.7857142857142857,0.0004
859,0.46839046478271484,0.6037291884422302,0.8653846153846154,1.0,1.0,0.9285714285714286,0.0004
860,0.5343341529369354,1.726272463798523,0.7884615384615384,0.9615384615384616,0.7857142857142857,0.7857142857142857,0.0004
861,0.45894771814346313,1.8386619091033936,0.8269230769230769,1.0,0.7857142857142857,0.7857142857142857,0.0004
862,0.4521874934434891,1.4569602012634277,0.8269230769230769,1.0,0.8571428571428571,0.8571428571428571,0.0004
863,0.5429907143115997,0.7996107339859009,0.7884615384615384,1.0,0.8571428571428571,0.9285714285714286,0.0004
864,0.6558318734169006,1.5372443199157715,0.7692307692307693,0.9615384615384616,0.8571428571428571,0.8571428571428571,0.0004
865,0.5415725260972977,1.526762843132019,0.8461538461538461,1.0,0.5714285714285714,0.7857142857142857,0.0004
866,0.8006300330162048,1.5894663333892822,0.75,0.9423076923076923,0.7857142857142857,0.8571428571428571,0.0004
867,0.5159097760915756,1.119437336921692,0.8461538461538461,0.9807692307692307,0.6428571428571429,0.8571428571428571,0.0004
868,0.7812263071537018,0.9382438659667969,0.7692307692307693,0.9423076923076923,0.8571428571428571,0.8571428571428571,0.0004
869,0.5351613909006119,1.9378459453582764,0.7884615384615384,0.9807692307692307,0.6428571428571429,0.6428571428571429,0.0004
870,0.6596807539463043,0.6694816946983337,0.75,0.9423076923076923,0.8571428571428571,0.9285714285714286,0.0004
871,0.5937528014183044,0.5692481994628906,0.7692307692307693,0.9615384615384616,0.7857142857142857,0.9285714285714286,0.0004
872,0.6509981453418732,1.6525704860687256,0.7115384615384616,0.9807692307692307,0.42857142857142855,0.7857142857142857,0.0004
873,0.745178610086441,1.1001803874969482,0.8269230769230769,0.9423076923076923,0.7142857142857143,0.8571428571428571,0.0004
874,0.6279616355895996,1.0177221298217773,0.7884615384615384,0.9615384615384616,0.7857142857142857,0.8571428571428571,0.0004
875,0.3951869159936905,1.0397350788116455,0.9038461538461539,0.9615384615384616,0.7857142857142857,0.8571428571428571,0.0004
876,0.6969717144966125,0.8236472606658936,0.7115384615384616,0.9615384615384616,0.7857142857142857,0.8571428571428571,0.0004
877,0.6538105309009552,1.3870445489883423,0.75,0.9807692307692307,0.7857142857142857,0.8571428571428571,0.0004
878,0.41223907470703125,0.38778451085090637,0.8076923076923077,1.0,0.8571428571428571,1.0,0.0004
879,0.34030739963054657,0.9969667196273804,0.8846153846153846,1.0,0.7142857142857143,0.8571428571428571,0.0004
880,0.7915562689304352,2.372981071472168,0.7884615384615384,0.8846153846153846,0.6428571428571429,0.8571428571428571,0.0004
881,0.6466399133205414,0.9928898811340332,0.8076923076923077,0.9615384615384616,0.7857142857142857,0.8571428571428571,0.0004
882,0.5639398097991943,0.6639024615287781,0.8846153846153846,0.9807692307692307,0.7857142857142857,0.9285714285714286,0.0004
883,0.5778629779815674,1.4660049676895142,0.7884615384615384,0.9807692307692307,0.7142857142857143,0.8571428571428571,0.0004
884,0.662009060382843,0.7824387550354004,0.8269230769230769,0.9423076923076923,0.8571428571428571,0.9285714285714286,0.0004
885,0.585918515920639,1.0911091566085815,0.7692307692307693,0.9615384615384616,0.7142857142857143,0.8571428571428571,0.0004
886,0.5159126222133636,1.06452476978302,0.8269230769230769,0.9615384615384616,0.7142857142857143,0.8571428571428571,0.0004
887,0.5177988111972809,1.072413444519043,0.8461538461538461,0.9807692307692307,0.7857142857142857,0.9285714285714286,0.0004
888,0.693456381559372,1.3877838850021362,0.7884615384615384,0.9615384615384616,0.5714285714285714,0.7857142857142857,0.0004
889,0.8245944976806641,0.927422285079956,0.7692307692307693,0.9423076923076923,0.7142857142857143,0.8571428571428571,0.0004
890,0.6639516353607178,0.7559918761253357,0.8076923076923077,0.9423076923076923,0.7857142857142857,0.8571428571428571,0.0004
891,0.5224795639514923,1.0883067846298218,0.7692307692307693,0.9807692307692307,0.7142857142857143,0.7857142857142857,0.0004
892,0.5726878941059113,0.5564879775047302,0.7884615384615384,0.9807692307692307,1.0,0.8571428571428571,0.0004
893,0.618952289223671,0.4807701110839844,0.7692307692307693,0.9615384615384616,0.8571428571428571,0.9285714285714286,0.0004
894,0.70039963722229,0.589748203754425,0.7115384615384616,0.9423076923076923,0.8571428571428571,0.9285714285714286,0.0004
895,0.6087231934070587,1.1889760494232178,0.7884615384615384,0.9807692307692307,0.6428571428571429,0.8571428571428571,0.0004
896,0.5157975256443024,0.9058595895767212,0.75,1.0,0.9285714285714286,0.8571428571428571,0.0004
897,0.4743108004331589,0.8963189721107483,0.8653846153846154,0.9807692307692307,0.7857142857142857,0.9285714285714286,0.0004
898,0.7559849917888641,1.3421363830566406,0.75,0.9038461538461539,0.7857142857142857,0.8571428571428571,0.0004
899,0.7638353407382965,1.3910753726959229,0.6923076923076923,0.9230769230769231,0.7142857142857143,0.8571428571428571,0.0004
900,0.5533978790044785,1.6070592403411865,0.7692307692307693,0.9615384615384616,0.6428571428571429,0.7857142857142857,0.0004
901,0.5075330287218094,1.5407800674438477,0.7884615384615384,0.9807692307692307,0.5714285714285714,0.7857142857142857,0.0004
902,0.7234497964382172,0.9872599840164185,0.6923076923076923,0.9423076923076923,0.7142857142857143,0.9285714285714286,0.0004
903,0.4880572706460953,1.4035964012145996,0.7692307692307693,1.0,0.6428571428571429,0.7857142857142857,0.0004
904,0.520342081785202,0.6561516523361206,0.7884615384615384,0.9615384615384616,0.7857142857142857,0.9285714285714286,0.0004
905,0.8065633773803711,1.5861029624938965,0.6923076923076923,0.9615384615384616,0.5714285714285714,0.7857142857142857,0.0004
906,0.443996325135231,0.6085865497589111,0.8461538461538461,0.9807692307692307,0.9285714285714286,0.7857142857142857,0.0004
907,0.7002356648445129,1.4667108058929443,0.7307692307692307,0.9423076923076923,0.5714285714285714,0.8571428571428571,0.0004
908,0.9238247573375702,0.8752788305282593,0.6730769230769231,0.9230769230769231,0.7857142857142857,0.9285714285714286,0.0004
909,0.5007128417491913,1.2992570400238037,0.8461538461538461,0.9807692307692307,0.7857142857142857,0.7857142857142857,0.0004
910,0.41903647780418396,0.719304084777832,0.8269230769230769,1.0,0.7857142857142857,0.9285714285714286,0.0004
911,0.5569678097963333,0.7174394130706787,0.8269230769230769,0.9615384615384616,0.9285714285714286,0.9285714285714286,0.0004
912,0.9768281579017639,0.6531062126159668,0.6538461538461539,0.9423076923076923,0.7857142857142857,0.9285714285714286,0.0004
913,0.5398386418819427,1.4642086029052734,0.8846153846153846,0.9807692307692307,0.7142857142857143,0.8571428571428571,0.0004
914,0.7311550974845886,0.7270348072052002,0.6923076923076923,0.9807692307692307,0.7857142857142857,0.9285714285714286,0.0004
915,0.5327010303735733,1.2634519338607788,0.8076923076923077,1.0,0.6428571428571429,0.9285714285714286,0.0004
916,0.9084061086177826,1.0024023056030273,0.7884615384615384,0.9423076923076923,0.8571428571428571,0.8571428571428571,0.0004
917,0.6184934675693512,1.1026257276535034,0.7307692307692307,0.9807692307692307,0.7857142857142857,0.8571428571428571,0.0004
918,0.5689098238945007,1.785687804222107,0.8461538461538461,0.9230769230769231,0.6428571428571429,0.7857142857142857,0.0004
919,0.5359254330396652,0.9448589086532593,0.7884615384615384,0.9807692307692307,0.7857142857142857,0.9285714285714286,0.0004
920,0.5065119117498398,1.6487404108047485,0.8076923076923077,0.9807692307692307,0.6428571428571429,0.8571428571428571,0.0004
921,0.8305539786815643,0.8559738397598267,0.7884615384615384,0.9423076923076923,0.7857142857142857,0.9285714285714286,0.0004
922,0.6461962163448334,0.45082902908325195,0.7307692307692307,1.0,0.9285714285714286,0.9285714285714286,0.0004
923,0.5867091417312622,0.7000097036361694,0.7884615384615384,0.9615384615384616,0.9285714285714286,0.9285714285714286,0.0004
924,0.6704974472522736,1.4735002517700195,0.7307692307692307,0.9615384615384616,0.6428571428571429,0.7142857142857143,0.0004
925,0.46985848248004913,0.6974647045135498,0.9038461538461539,0.9615384615384616,0.9285714285714286,0.9285714285714286,0.0004
926,0.4662124216556549,1.3640822172164917,0.8653846153846154,0.9807692307692307,0.6428571428571429,0.8571428571428571,0.0004
927,0.7265423536300659,1.4276471138000488,0.8076923076923077,0.9230769230769231,0.7857142857142857,0.7142857142857143,0.0004
928,0.5382226705551147,0.43592554330825806,0.8076923076923077,0.9807692307692307,0.9285714285714286,1.0,0.0004
929,0.5156981498003006,0.5247202515602112,0.8269230769230769,0.9615384615384616,0.7857142857142857,1.0,0.0004
930,0.4344867318868637,0.5479109287261963,0.8461538461538461,0.9807692307692307,0.7857142857142857,0.9285714285714286,0.0004
931,0.849317729473114,1.7177839279174805,0.7692307692307693,0.8653846153846154,0.6428571428571429,0.8571428571428571,0.0004
932,0.5911746025085449,1.0017656087875366,0.7884615384615384,0.9807692307692307,0.6428571428571429,0.9285714285714286,0.0004
933,0.6949792504310608,0.875908374786377,0.7115384615384616,0.9038461538461539,0.7142857142857143,0.9285714285714286,0.0004
934,0.6255547404289246,1.257678747177124,0.8269230769230769,0.9423076923076923,0.5714285714285714,0.8571428571428571,0.0004
935,0.5999995470046997,1.1400396823883057,0.7884615384615384,0.9615384615384616,0.6428571428571429,0.8571428571428571,0.0004
936,0.5900073945522308,1.7623276710510254,0.8461538461538461,0.9615384615384616,0.8571428571428571,0.8571428571428571,0.0004
937,0.5641227513551712,0.587313711643219,0.7884615384615384,0.9807692307692307,0.8571428571428571,0.9285714285714286,0.0004
938,0.5458577573299408,1.311582326889038,0.8269230769230769,0.9615384615384616,0.7142857142857143,0.8571428571428571,0.0004
939,0.864179790019989,1.019861102104187,0.6923076923076923,0.9038461538461539,0.8571428571428571,0.9285714285714286,0.0004
940,0.5633586198091507,1.625146508216858,0.8461538461538461,0.9230769230769231,0.7857142857142857,0.7857142857142857,0.0004
941,0.5766242146492004,1.3649377822875977,0.8653846153846154,0.9230769230769231,0.7142857142857143,0.7857142857142857,0.0004
942,0.7910655438899994,1.3232260942459106,0.7115384615384616,0.9615384615384616,0.7142857142857143,0.8571428571428571,0.0004
943,0.5538685619831085,1.6563351154327393,0.8269230769230769,0.9807692307692307,0.5714285714285714,0.8571428571428571,0.0004
944,0.5117253214120865,0.9517155885696411,0.8076923076923077,0.9807692307692307,0.7857142857142857,0.9285714285714286,0.0004
945,0.6063200235366821,0.7011528015136719,0.8076923076923077,0.9615384615384616,0.9285714285714286,0.9285714285714286,0.0004
946,0.5337667167186737,1.3331795930862427,0.8269230769230769,0.9615384615384616,0.7142857142857143,0.7857142857142857,0.0004
947,0.6187188923358917,1.31736421585083,0.9038461538461539,0.9230769230769231,0.7142857142857143,0.8571428571428571,0.0004
948,0.5395381152629852,1.9405488967895508,0.8653846153846154,0.9230769230769231,0.5,0.7857142857142857,0.0004
949,0.4555056691169739,0.7749190330505371,0.8269230769230769,0.9807692307692307,0.7857142857142857,0.8571428571428571,0.0004
950,0.45428334176540375,1.0606523752212524,0.8461538461538461,0.9615384615384616,0.7142857142857143,0.8571428571428571,0.0004
951,0.6731566190719604,1.321162223815918,0.8076923076923077,0.8846153846153846,0.6428571428571429,0.8571428571428571,0.0004
952,0.49126502871513367,1.106290578842163,0.7884615384615384,0.9615384615384616,0.7857142857142857,0.7857142857142857,0.0004
953,0.4651206284761429,1.8510708808898926,0.7692307692307693,0.9807692307692307,0.6428571428571429,0.7857142857142857,0.0004
954,0.6935297846794128,1.597726583480835,0.8269230769230769,0.9423076923076923,0.6428571428571429,0.8571428571428571,0.0004
955,0.43599066138267517,0.8688591718673706,0.8846153846153846,0.9423076923076923,0.9285714285714286,0.7857142857142857,0.0004
956,0.3428982049226761,1.5912044048309326,0.8461538461538461,1.0,0.7142857142857143,0.7857142857142857,0.0004
957,0.6799918115139008,1.705505132675171,0.7884615384615384,0.9230769230769231,0.6428571428571429,0.8571428571428571,0.0004
958,0.5272029936313629,0.9558089375495911,0.8076923076923077,0.9615384615384616,0.7857142857142857,0.7857142857142857,0.0004
959,0.4629243463277817,0.8645600080490112,0.8269230769230769,0.9615384615384616,0.7857142857142857,0.8571428571428571,0.0004
960,0.649677500128746,1.6164829730987549,0.7692307692307693,0.9615384615384616,0.5,0.9285714285714286,0.0004
961,0.693642258644104,1.0992214679718018,0.7307692307692307,0.9615384615384616,0.7142857142857143,0.8571428571428571,0.0004
962,0.5841751247644424,1.0244269371032715,0.8461538461538461,0.9423076923076923,0.7142857142857143,0.9285714285714286,0.0004
963,0.8255392760038376,1.0562331676483154,0.7115384615384616,0.9230769230769231,0.7142857142857143,0.9285714285714286,0.0004
964,0.7846528887748718,0.9457247257232666,0.7115384615384616,0.9423076923076923,0.7142857142857143,0.9285714285714286,0.0004
965,0.7935290336608887,0.8154390454292297,0.7307692307692307,0.9615384615384616,0.7142857142857143,0.8571428571428571,0.0004
966,0.45376865565776825,1.3506526947021484,0.8461538461538461,0.9615384615384616,0.7857142857142857,0.8571428571428571,0.0004
967,0.49818112701177597,1.0425331592559814,0.8269230769230769,0.9807692307692307,0.7857142857142857,0.7857142857142857,0.0004
968,0.5997051447629929,0.9714897871017456,0.7115384615384616,1.0,0.8571428571428571,0.9285714285714286,0.0004
969,0.4563159942626953,0.9128456711769104,0.8653846153846154,0.9807692307692307,0.7142857142857143,0.8571428571428571,0.0004
970,0.8510432541370392,0.9433012008666992,0.7115384615384616,0.9423076923076923,0.7857142857142857,0.8571428571428571,0.0004
971,0.515227198600769,0.8147937655448914,0.7884615384615384,0.9423076923076923,0.7857142857142857,0.9285714285714286,0.0004
972,0.6435383260250092,1.1395177841186523,0.7884615384615384,0.9615384615384616,0.7142857142857143,0.9285714285714286,0.0004
973,0.5007190704345703,1.4675743579864502,0.8269230769230769,0.9807692307692307,0.8571428571428571,0.9285714285714286,0.0004
974,0.40389810502529144,0.8682997226715088,0.8269230769230769,0.9807692307692307,0.7142857142857143,0.9285714285714286,0.0004
975,0.3764268606901169,1.0605413913726807,0.8461538461538461,0.9807692307692307,0.9285714285714286,0.8571428571428571,0.0004
976,0.5466884523630142,0.964450478553772,0.7692307692307693,0.9807692307692307,0.8571428571428571,0.8571428571428571,0.0004
977,0.7330681383609772,1.807105541229248,0.7692307692307693,0.9615384615384616,0.7142857142857143,0.9285714285714286,0.0004
978,0.5616136193275452,1.100723385810852,0.8461538461538461,0.9423076923076923,0.7142857142857143,0.8571428571428571,0.0004
979,0.5538685619831085,1.3113948106765747,0.8846153846153846,0.9615384615384616,0.6428571428571429,0.7857142857142857,0.0004
980,0.5898926258087158,0.9714474678039551,0.7307692307692307,0.9615384615384616,0.7142857142857143,0.8571428571428571,0.0004
981,0.3351731449365616,1.2286021709442139,0.8846153846153846,0.9807692307692307,0.6428571428571429,0.8571428571428571,0.0004
982,0.4603426903486252,1.1816108226776123,0.8461538461538461,0.9615384615384616,0.6428571428571429,0.9285714285714286,0.0004
983,0.4210110455751419,0.8774645924568176,0.8846153846153846,0.9807692307692307,0.7142857142857143,0.8571428571428571,0.0004
984,0.6660358011722565,0.8465954661369324,0.8269230769230769,0.9615384615384616,0.7142857142857143,0.9285714285714286,0.0004
985,0.4073368161916733,0.9642975330352783,0.8461538461538461,1.0,0.8571428571428571,0.8571428571428571,0.0004
986,0.41082963347435,1.8973743915557861,0.8269230769230769,1.0,0.5714285714285714,0.7857142857142857,0.0004
987,0.49883778393268585,2.2679805755615234,0.8076923076923077,0.9615384615384616,0.5,0.7857142857142857,0.0004
988,0.5910175889730453,1.8440152406692505,0.8269230769230769,0.9807692307692307,0.5714285714285714,0.8571428571428571,0.0004
989,0.4846786707639694,0.7824687957763672,0.8076923076923077,0.9807692307692307,0.6428571428571429,0.9285714285714286,0.0004
990,0.7510235905647278,0.6912586688995361,0.7115384615384616,1.0,0.9285714285714286,0.9285714285714286,0.0004
991,0.7903555929660797,1.5815132856369019,0.7115384615384616,0.9615384615384616,0.5714285714285714,0.8571428571428571,0.0004
992,0.508555144071579,0.7519540190696716,0.8269230769230769,0.9807692307692307,0.7857142857142857,0.9285714285714286,0.0004
993,0.5242018401622772,1.4016761779785156,0.8461538461538461,0.9615384615384616,0.8571428571428571,0.7857142857142857,0.0004
