epoch,train_loss,val_loss,train_acc_action,train_acc_status,val_acc_action,val_acc_status,learning_rate
1,1.7746686935424805,1.7748088836669922,0.36538461538461536,0.8269230769230769,0.21428571428571427,0.8571428571428571,0.0004
2,1.7211880683898926,1.5863511562347412,0.36538461538461536,0.8269230769230769,0.21428571428571427,0.8571428571428571,0.004995066821070679
3,1.7471444010734558,1.5804790258407593,0.36538461538461536,0.8269230769230769,0.21428571428571427,0.8571428571428571,0.004980286753286195
4,1.5904685258865356,1.5273836851119995,0.25,0.8269230769230769,0.21428571428571427,0.8571428571428571,0.004955718126821722
5,1.5831325054168701,1.531030297279358,0.36538461538461536,0.8269230769230769,0.35714285714285715,0.8571428571428571,0.004921457902821578
6,1.5508484244346619,1.5561819076538086,0.3269230769230769,0.8269230769230769,0.35714285714285715,0.8571428571428571,0.0048776412907378846
7,1.564866542816162,1.5868184566497803,0.3269230769230769,0.8269230769230769,0.21428571428571427,0.8571428571428571,0.004824441214720628
8,1.6488275527954102,1.5774712562561035,0.36538461538461536,0.8269230769230769,0.21428571428571427,0.8571428571428571,0.004762067631165049
9,1.5548855662345886,1.558379888534546,0.36538461538461536,0.8269230769230769,0.21428571428571427,0.8571428571428571,0.0046907667001096585
10,1.5436811447143555,1.5322340726852417,0.36538461538461536,0.8269230769230769,0.21428571428571427,0.8571428571428571,0.004610819813755038
11,1.5353769659996033,1.512568473815918,0.25,0.8269230769230769,0.42857142857142855,0.8571428571428571,0.0045225424859373685
12,1.5391614437103271,1.5162197351455688,0.3076923076923077,0.8269230769230769,0.42857142857142855,0.8571428571428571,0.004426283106939473
13,1.5714297890663147,1.524582862854004,0.2692307692307692,0.8269230769230769,0.21428571428571427,0.8571428571428571,0.004322421568553529
14,1.5971481800079346,1.5295188426971436,0.36538461538461536,0.8269230769230769,0.21428571428571427,0.8571428571428571,0.004211367764821722
15,1.5566994547843933,1.5290533304214478,0.36538461538461536,0.8269230769230769,0.21428571428571427,0.8571428571428571,0.004093559974371724
16,1.5564270615577698,1.529476523399353,0.36538461538461536,0.8269230769230769,0.21428571428571427,0.8571428571428571,0.003969463130731183
17,1.5374624133110046,1.5293898582458496,0.36538461538461536,0.8269230769230769,0.21428571428571427,0.8571428571428571,0.0038395669874474914
18,1.5720810890197754,1.531877875328064,0.36538461538461536,0.8269230769230769,0.21428571428571427,0.8571428571428571,0.0037043841852542883
19,1.5261096358299255,1.5315192937850952,0.23076923076923078,0.8269230769230769,0.35714285714285715,0.8571428571428571,0.003564448228912682
20,1.5650189518928528,1.5327521562576294,0.3269230769230769,0.8269230769230769,0.35714285714285715,0.8571428571428571,0.0034203113817116953
21,1.5555942058563232,1.5339932441711426,0.3269230769230769,0.8269230769230769,0.21428571428571427,0.8571428571428571,0.0032725424859373687
22,1.568588137626648,1.53560471534729,0.36538461538461536,0.8269230769230769,0.21428571428571427,0.8571428571428571,0.0031217247179121366
23,1.5494122505187988,1.5306276082992554,0.36538461538461536,0.8269230769230769,0.21428571428571427,0.8571428571428571,0.002968453286464312
24,1.55098295211792,1.533787727355957,0.36538461538461536,0.8269230769230769,0.21428571428571427,0.8571428571428571,0.002813333083910761
25,1.5281556844711304,1.5366508960723877,0.36538461538461536,0.8269230769230769,0.21428571428571427,0.8571428571428571,0.0026569762988232835
26,1.5512039065361023,1.5341267585754395,0.36538461538461536,0.8269230769230769,0.21428571428571427,0.8571428571428571,0.0025
27,1.561490774154663,1.5343314409255981,0.36538461538461536,0.8269230769230769,0.21428571428571427,0.8571428571428571,0.0023430237011767166
28,1.569757342338562,1.5391731262207031,0.36538461538461536,0.8269230769230769,0.21428571428571427,0.8571428571428571,0.0021866669160892395
29,1.5554316639900208,1.5425622463226318,0.36538461538461536,0.8269230769230769,0.21428571428571427,0.8571428571428571,0.0020315467135356884
30,1.5550124645233154,1.5428082942962646,0.36538461538461536,0.8269230769230769,0.21428571428571427,0.8571428571428571,0.0018782752820878628
31,1.5862464308738708,1.5396983623504639,0.36538461538461536,0.8269230769230769,0.21428571428571427,0.8571428571428571,0.0017274575140626323
32,1.6035679578781128,1.5357255935668945,0.36538461538461536,0.8269230769230769,0.21428571428571427,0.8571428571428571,0.0015796886182883059
33,1.5682234168052673,1.5333797931671143,0.36538461538461536,0.8269230769230769,0.21428571428571427,0.8571428571428571,0.0014355517710873183
34,1.5517703294754028,1.5307608842849731,0.36538461538461536,0.8269230769230769,0.21428571428571427,0.8571428571428571,0.0012956158147457114
35,1.5509259104728699,1.527745246887207,0.36538461538461536,0.8269230769230769,0.21428571428571427,0.8571428571428571,0.0011604330125525079
36,1.51847904920578,1.524282693862915,0.36538461538461536,0.8269230769230769,0.21428571428571427,0.8571428571428571,0.0010305368692688174
37,1.547668695449829,1.523606777191162,0.36538461538461536,0.8269230769230769,0.21428571428571427,0.8571428571428571,0.0009064400256282757
38,1.5360527038574219,1.5267208814620972,0.36538461538461536,0.8269230769230769,0.14285714285714285,0.8571428571428571,0.0007886322351782782
39,1.5641980171203613,1.5251065492630005,0.34615384615384615,0.8269230769230769,0.21428571428571427,0.8571428571428571,0.0006775784314464717
40,1.5637089014053345,1.5266131162643433,0.36538461538461536,0.8269230769230769,0.21428571428571427,0.8571428571428571,0.0005737168930605272
41,1.5712240934371948,1.5287694931030273,0.36538461538461536,0.8269230769230769,0.21428571428571427,0.8571428571428571,0.00047745751406263163
42,1.5660036206245422,1.5283039808273315,0.36538461538461536,0.8269230769230769,0.21428571428571427,0.8571428571428571,0.00038918018624496285
43,1.5358393788337708,1.5299484729766846,0.36538461538461536,0.8269230769230769,0.21428571428571427,0.8571428571428571,0.00030923329989034103
44,1.560866892337799,1.5295720100402832,0.36538461538461536,0.8269230769230769,0.21428571428571427,0.8571428571428571,0.00023793236883495162
45,1.5511679649353027,1.5312280654907227,0.36538461538461536,0.8269230769230769,0.21428571428571427,0.8571428571428571,0.00017555878527937164
46,1.5352115631103516,1.5311541557312012,0.36538461538461536,0.8269230769230769,0.21428571428571427,0.8571428571428571,0.00012235870926211617
47,1.559141993522644,1.531945824623108,0.36538461538461536,0.8269230769230769,0.21428571428571427,0.8571428571428571,7.854209717842258e-05
48,1.5508909821510315,1.531677007675171,0.36538461538461536,0.8269230769230769,0.21428571428571427,0.8571428571428571,4.4281873178278196e-05
49,1.5210330486297607,1.5322059392929077,0.36538461538461536,0.8269230769230769,0.21428571428571427,0.8571428571428571,1.9713246713805587e-05
50,1.5472540855407715,1.5316773653030396,0.36538461538461536,0.8269230769230769,0.21428571428571427,0.8571428571428571,4.933178929321102e-06
51,1.5832475423812866,1.5519521236419678,0.36538461538461536,0.8269230769230769,0.21428571428571427,0.8571428571428571,0.005
52,1.5203022956848145,1.5678379535675049,0.36538461538461536,0.8269230769230769,0.21428571428571427,0.8571428571428571,0.0049987664009143295
53,1.5399996042251587,1.5741932392120361,0.36538461538461536,0.8269230769230769,0.21428571428571427,0.8571428571428571,0.004995066821070679
54,1.5760879516601562,1.568960428237915,0.36538461538461536,0.8269230769230769,0.21428571428571427,0.8571428571428571,0.0049889049115077
55,1.5527225732803345,1.5486892461776733,0.36538461538461536,0.8269230769230769,0.21428571428571427,0.8571428571428571,0.004980286753286195
56,1.5509724617004395,1.5302776098251343,0.36538461538461536,0.8269230769230769,0.21428571428571427,0.8571428571428571,0.0049692208514878445
57,1.5522990226745605,1.5155153274536133,0.36538461538461536,0.8269230769230769,0.21428571428571427,0.8571428571428571,0.004955718126821722
58,1.5520660281181335,1.5144819021224976,0.36538461538461536,0.8269230769230769,0.21428571428571427,0.8571428571428571,0.004939791904846869
59,1.5837380290031433,1.514689564704895,0.36538461538461536,0.8269230769230769,0.35714285714285715,0.8571428571428571,0.004921457902821578
60,1.551476240158081,1.523068904876709,0.3269230769230769,0.8269230769230769,0.35714285714285715,0.8571428571428571,0.004900734214192358
61,1.5829397439956665,1.5387589931488037,0.2692307692307692,0.8269230769230769,0.21428571428571427,0.8571428571428571,0.0048776412907378846
62,1.5476972460746765,1.550938367843628,0.36538461538461536,0.8269230769230769,0.21428571428571427,0.8571428571428571,0.004852201922385564
63,1.5450690388679504,1.561668872833252,0.36538461538461536,0.8269230769230769,0.21428571428571427,0.8571428571428571,0.004824441214720628
64,1.557019054889679,1.5711930990219116,0.36538461538461536,0.8269230769230769,0.21428571428571427,0.8571428571428571,0.0047943865642099525
65,1.5555609464645386,1.5702310800552368,0.36538461538461536,0.8269230769230769,0.21428571428571427,0.8571428571428571,0.004762067631165049
66,1.5604578852653503,1.5644631385803223,0.36538461538461536,0.8269230769230769,0.21428571428571427,0.8571428571428571,0.00472751631047092
67,1.5823065638542175,1.5464879274368286,0.36538461538461536,0.8269230769230769,0.21428571428571427,0.8571428571428571,0.0046907667001096585
68,1.5672658681869507,1.5355292558670044,0.36538461538461536,0.8269230769230769,0.21428571428571427,0.8571428571428571,0.0046518550675098596
69,1.5374677777290344,1.520967960357666,0.36538461538461536,0.8269230769230769,0.21428571428571427,0.8571428571428571,0.004610819813755038
70,1.5369532108306885,1.512199878692627,0.36538461538461536,0.8269230769230769,0.14285714285714285,0.8571428571428571,0.004567701435686404
71,1.6028789281845093,1.5094008445739746,0.3076923076923077,0.8269230769230769,0.42857142857142855,0.8571428571428571,0.0045225424859373685
72,1.5530185103416443,1.5093791484832764,0.34615384615384615,0.8269230769230769,0.35714285714285715,0.8571428571428571,0.0044753875309392266
73,1.5544681549072266,1.5114850997924805,0.2692307692307692,0.8269230769230769,0.35714285714285715,0.8571428571428571,0.004426283106939473
74,1.5852119326591492,1.515404224395752,0.3269230769230769,0.8269230769230769,0.35714285714285715,0.8571428571428571,0.004375277674076149
75,1.596949577331543,1.5210299491882324,0.3076923076923077,0.8269230769230769,0.21428571428571427,0.8571428571428571,0.004322421568553529
76,1.5647991299629211,1.5316457748413086,0.34615384615384615,0.8269230769230769,0.21428571428571427,0.8571428571428571,0.004267766952966369
77,1.5229121446609497,1.5350840091705322,0.36538461538461536,0.8269230769230769,0.21428571428571427,0.8571428571428571,0.004211367764821722
78,1.5524370670318604,1.5492942333221436,0.36538461538461536,0.8269230769230769,0.21428571428571427,0.8571428571428571,0.00415327966330913
79,1.549241304397583,1.5592455863952637,0.36538461538461536,0.8269230769230769,0.21428571428571427,0.8571428571428571,0.004093559974371724
80,1.5651987195014954,1.5657247304916382,0.36538461538461536,0.8269230769230769,0.21428571428571427,0.8571428571428571,0.004032267634132442
81,1.5468068718910217,1.5616304874420166,0.36538461538461536,0.8269230769230769,0.21428571428571427,0.8571428571428571,0.003969463130731183
82,1.5201426148414612,1.5574536323547363,0.36538461538461536,0.8269230769230769,0.21428571428571427,0.8571428571428571,0.003905208444630327
83,1.583293080329895,1.5533751249313354,0.36538461538461536,0.8269230769230769,0.21428571428571427,0.8571428571428571,0.0038395669874474914
84,1.5666122436523438,1.545211672782898,0.36538461538461536,0.8269230769230769,0.21428571428571427,0.8571428571428571,0.0037726035393759283
85,1.5768640637397766,1.5380499362945557,0.36538461538461536,0.8269230769230769,0.21428571428571427,0.8571428571428571,0.0037043841852542883
86,1.5539747476577759,1.5342955589294434,0.36538461538461536,0.8269230769230769,0.21428571428571427,0.8571428571428571,0.003634976249348867
87,1.553663730621338,1.530278205871582,0.36538461538461536,0.8269230769230769,0.14285714285714285,0.8571428571428571,0.003564448228912682
88,1.5237725377082825,1.5255897045135498,0.3269230769230769,0.8269230769230769,0.21428571428571427,0.8571428571428571,0.003492869726586951
89,1.53753262758255,1.5210075378417969,0.23076923076923078,0.8269230769230769,0.21428571428571427,0.8571428571428571,0.0034203113817116953
90,1.549946367740631,1.5201549530029297,0.36538461538461536,0.8269230769230769,0.21428571428571427,0.8571428571428571,0.0033468448006132292
91,1.5696361660957336,1.525045394897461,0.36538461538461536,0.8269230769230769,0.21428571428571427,0.8571428571428571,0.0032725424859373687
92,1.5822901129722595,1.526190161705017,0.36538461538461536,0.8269230769230769,0.21428571428571427,0.8571428571428571,0.0031974777650980737
93,1.5653932094573975,1.5280377864837646,0.36538461538461536,0.8269230769230769,0.21428571428571427,0.8571428571428571,0.0031217247179121366
94,1.5498175621032715,1.529200792312622,0.36538461538461536,0.8269230769230769,0.21428571428571427,0.8571428571428571,0.0030453581034913567
95,1.5203378200531006,1.5297987461090088,0.36538461538461536,0.8269230769230769,0.21428571428571427,0.8571428571428571,0.002968453286464312
96,1.587176501750946,1.5402092933654785,0.36538461538461536,0.8269230769230769,0.21428571428571427,0.8571428571428571,0.0028910861626005773
97,1.5521571636199951,1.5363322496414185,0.36538461538461536,0.8269230769230769,0.21428571428571427,0.8571428571428571,0.002813333083910761
98,1.5485988855361938,1.533206820487976,0.36538461538461536,0.8269230769230769,0.21428571428571427,0.8571428571428571,0.002735270783296286
99,1.538004755973816,1.5328648090362549,0.36538461538461536,0.8269230769230769,0.21428571428571427,0.8571428571428571,0.0026569762988232835
100,1.576203465461731,1.532766342163086,0.36538461538461536,0.8269230769230769,0.21428571428571427,0.8571428571428571,0.0025785268976953207
101,1.5310696363449097,1.5307883024215698,0.36538461538461536,0.8269230769230769,0.21428571428571427,0.8571428571428571,0.0025
102,1.55965256690979,1.535811185836792,0.36538461538461536,0.8269230769230769,0.21428571428571427,0.8571428571428571,0.0024214731023046794
103,1.53608238697052,1.531351089477539,0.36538461538461536,0.8269230769230769,0.21428571428571427,0.8571428571428571,0.0023430237011767166
104,1.5618277192115784,1.5402698516845703,0.36538461538461536,0.8269230769230769,0.21428571428571427,0.8571428571428571,0.002264729216703714
105,1.5572592616081238,1.5317720174789429,0.36538461538461536,0.8269230769230769,0.21428571428571427,0.8571428571428571,0.0021866669160892395
106,1.5481712222099304,1.5364222526550293,0.36538461538461536,0.8269230769230769,0.21428571428571427,0.8571428571428571,0.002108913837399423
107,1.559643566608429,1.534166932106018,0.36538461538461536,0.8269230769230769,0.21428571428571427,0.8571428571428571,0.0020315467135356884
108,1.5595169067382812,1.556979775428772,0.36538461538461536,0.8269230769230769,0.21428571428571427,0.8571428571428571,0.0019546418965086442
109,1.5583449006080627,1.5382680892944336,0.36538461538461536,0.8269230769230769,0.21428571428571427,0.8571428571428571,0.0018782752820878628
110,1.5391972064971924,1.5534238815307617,0.36538461538461536,0.8269230769230769,0.21428571428571427,0.8571428571428571,0.001802522234901927
111,1.5780225992202759,1.5410873889923096,0.36538461538461536,0.8269230769230769,0.21428571428571427,0.8571428571428571,0.0017274575140626323
112,1.558678388595581,1.5419925451278687,0.36538461538461536,0.8269230769230769,0.21428571428571427,0.8571428571428571,0.0016531551993867715
113,1.5231263637542725,1.553338646888733,0.36538461538461536,0.8269230769230769,0.21428571428571427,0.8571428571428571,0.0015796886182883059
114,1.5835440158843994,1.5395711660385132,0.36538461538461536,0.8269230769230769,0.21428571428571427,0.8571428571428571,0.0015071302734130482
115,1.5808537602424622,1.5404107570648193,0.36538461538461536,0.8269230769230769,0.21428571428571427,0.8571428571428571,0.0014355517710873183
116,1.594181776046753,1.5390093326568604,0.34615384615384615,0.8269230769230769,0.21428571428571427,0.8571428571428571,0.0013650237506511332
117,1.5429515838623047,1.5331969261169434,0.36538461538461536,0.8269230769230769,0.21428571428571427,0.8571428571428571,0.0012956158147457114
118,1.518770694732666,1.538798451423645,0.36538461538461536,0.8269230769230769,0.21428571428571427,0.8571428571428571,0.0012273964606240718
119,1.5632277727127075,1.5338765382766724,0.36538461538461536,0.8269230769230769,0.21428571428571427,0.8571428571428571,0.0011604330125525079
120,1.5984867811203003,1.5373011827468872,0.36538461538461536,0.8269230769230769,0.21428571428571427,0.8571428571428571,0.0010947915553696733
121,1.570378065109253,1.5286784172058105,0.4423076923076923,0.8269230769230769,0.2857142857142857,0.8571428571428571,0.0010305368692688174
122,1.54034024477005,1.5145900249481201,0.4423076923076923,0.8269230769230769,0.35714285714285715,0.8571428571428571,0.0009677323658675585
123,1.5507200360298157,1.528173804283142,0.3269230769230769,0.8269230769230769,0.42857142857142855,0.8571428571428571,0.0009064400256282757
124,1.5566487312316895,1.5583136081695557,0.2692307692307692,0.8269230769230769,0.35714285714285715,0.8571428571428571,0.0008467203366908707
125,1.5518782138824463,1.527577519416809,0.3269230769230769,0.8269230769230769,0.2857142857142857,0.8571428571428571,0.0007886322351782782
126,1.5376473665237427,1.5241612195968628,0.36538461538461536,0.8269230769230769,0.35714285714285715,0.8571428571428571,0.0007322330470336313
127,1.545457661151886,1.5204026699066162,0.36538461538461536,0.8269230769230769,0.35714285714285715,0.8571428571428571,0.0006775784314464717
128,1.5253656506538391,1.5738589763641357,0.38461538461538464,0.8269230769230769,0.21428571428571427,0.8571428571428571,0.0006247223259238514
129,1.580479919910431,1.5375030040740967,0.3076923076923077,0.8269230769230769,0.21428571428571427,0.8571428571428571,0.0005737168930605272
130,1.5336769819259644,1.517928957939148,0.34615384615384615,0.8269230769230769,0.2857142857142857,0.8571428571428571,0.000524612469060774
131,1.5462069511413574,1.4617969989776611,0.23076923076923078,0.8269230769230769,0.2857142857142857,0.8571428571428571,0.00047745751406263163
132,1.5469653606414795,1.5299956798553467,0.40384615384615385,0.8269230769230769,0.2857142857142857,0.8571428571428571,0.000432298564313596
133,1.543533205986023,1.520409107208252,0.36538461538461536,0.8269230769230769,0.21428571428571427,0.8571428571428571,0.00038918018624496285
134,1.5328721404075623,1.5126534700393677,0.34615384615384615,0.8269230769230769,0.21428571428571427,0.8571428571428571,0.0003481449324901406
135,1.5463827848434448,1.5334203243255615,0.36538461538461536,0.8269230769230769,0.21428571428571427,0.8571428571428571,0.00030923329989034103
136,1.53565913438797,1.5297191143035889,0.36538461538461536,0.8269230769230769,0.21428571428571427,0.8571428571428571,0.00027248368952908055
137,1.576540231704712,1.5277440547943115,0.34615384615384615,0.8269230769230769,0.21428571428571427,0.8571428571428571,0.00023793236883495162
138,1.5576130747795105,1.5407474040985107,0.36538461538461536,0.8269230769230769,0.21428571428571427,0.8571428571428571,0.0002056134357900477
139,1.5434741377830505,1.531699538230896,0.36538461538461536,0.8269230769230769,0.21428571428571427,0.8571428571428571,0.00017555878527937164
140,1.5664311647415161,1.5390907526016235,0.36538461538461536,0.8269230769230769,0.21428571428571427,0.8571428571428571,0.00014779807761443637
141,1.5255685448646545,1.5197138786315918,0.34615384615384615,0.8269230769230769,0.21428571428571427,0.8571428571428571,0.00012235870926211617
142,1.5394166707992554,1.4544882774353027,0.36538461538461536,0.8269230769230769,0.21428571428571427,0.8571428571428571,9.926578580764262e-05
143,1.5510877966880798,1.517861247062683,0.36538461538461536,0.8269230769230769,0.21428571428571427,0.8571428571428571,7.854209717842258e-05
144,1.5517234802246094,1.543628215789795,0.36538461538461536,0.8269230769230769,0.21428571428571427,0.8571428571428571,6.0208095153131695e-05
145,1.5065565705299377,1.5286476612091064,0.36538461538461536,0.8269230769230769,0.21428571428571427,0.8571428571428571,4.4281873178278196e-05
146,1.552141785621643,1.5228276252746582,0.36538461538461536,0.8269230769230769,0.21428571428571427,0.8571428571428571,3.077914851215585e-05
147,1.5437182784080505,1.5340263843536377,0.36538461538461536,0.8269230769230769,0.21428571428571427,0.8571428571428571,1.9713246713805587e-05
148,1.554318368434906,1.5084456205368042,0.36538461538461536,0.8269230769230769,0.21428571428571427,0.8571428571428571,1.109508849230001e-05
149,1.5610679388046265,1.5373570919036865,0.36538461538461536,0.8269230769230769,0.21428571428571427,0.8571428571428571,4.933178929321102e-06
150,1.5152764916419983,1.4628957509994507,0.38461538461538464,0.8269230769230769,0.21428571428571427,0.8571428571428571,1.233599085671e-06
151,1.552308201789856,1.5269298553466797,0.36538461538461536,0.8269230769230769,0.21428571428571427,0.8571428571428571,0.005
152,1.5114179849624634,1.539133071899414,0.36538461538461536,0.8269230769230769,0.21428571428571427,0.8571428571428571,0.004999691581204151
153,1.5834011435508728,1.5310806035995483,0.36538461538461536,0.8269230769230769,0.21428571428571427,0.8571428571428571,0.0049987664009143295
154,1.5347116589546204,1.5316417217254639,0.36538461538461536,0.8269230769230769,0.21428571428571427,0.8571428571428571,0.004997224687404925
155,1.5669136047363281,1.5507653951644897,0.36538461538461536,0.8269230769230769,0.21428571428571427,0.8571428571428571,0.004995066821070679
156,1.566782295703888,1.5040639638900757,0.36538461538461536,0.8269230769230769,0.2857142857142857,0.8571428571428571,0.00499229333433282
157,1.5660048127174377,1.512695550918579,0.40384615384615385,0.8269230769230769,0.21428571428571427,0.8571428571428571,0.0049889049115077
158,1.5965186953544617,1.4984333515167236,0.34615384615384615,0.8269230769230769,0.6428571428571429,0.8571428571428571,0.004984902388637949
159,1.5802940726280212,1.5075743198394775,0.3269230769230769,0.8269230769230769,0.35714285714285715,0.8571428571428571,0.004980286753286195
160,1.6124320030212402,1.5207982063293457,0.3269230769230769,0.8269230769230769,0.35714285714285715,0.8571428571428571,0.004975059144291394
161,1.5499194264411926,1.5253801345825195,0.3269230769230769,0.8269230769230769,0.35714285714285715,0.8571428571428571,0.0049692208514878445
162,1.5840482711791992,1.5336188077926636,0.3269230769230769,0.8269230769230769,0.35714285714285715,0.8571428571428571,0.004962773315386935
163,1.5602763891220093,1.5338499546051025,0.3269230769230769,0.8269230769230769,0.35714285714285715,0.8571428571428571,0.004955718126821722
164,1.5650307536125183,1.5399372577667236,0.3076923076923077,0.8269230769230769,0.42857142857142855,0.8571428571428571,0.0049480570265544145
165,1.5550042986869812,1.5523087978363037,0.3076923076923077,0.8269230769230769,0.21428571428571427,0.8571428571428571,0.004939791904846869
166,1.5807653069496155,1.5676515102386475,0.34615384615384615,0.8269230769230769,0.21428571428571427,0.8571428571428571,0.004930924800994192
167,1.5650851726531982,1.5429728031158447,0.36538461538461536,0.8269230769230769,0.21428571428571427,0.8571428571428571,0.004921457902821578
168,1.5535452365875244,1.5402146577835083,0.36538461538461536,0.8269230769230769,0.21428571428571427,0.8571428571428571,0.004911393546144495
169,1.604868471622467,1.5516797304153442,0.36538461538461536,0.8269230769230769,0.21428571428571427,0.8571428571428571,0.004900734214192358
170,1.558138132095337,1.5280042886734009,0.36538461538461536,0.8269230769230769,0.21428571428571427,0.8571428571428571,0.004889482536995825
171,1.5649954676628113,1.5237432718276978,0.3269230769230769,0.8269230769230769,0.21428571428571427,0.8571428571428571,0.0048776412907378846
172,1.5869197249412537,1.5152878761291504,0.38461538461538464,0.8269230769230769,0.2857142857142857,0.8571428571428571,0.004865213397068863
173,1.5571569800376892,1.5173195600509644,0.3269230769230769,0.8269230769230769,0.5,0.8571428571428571,0.004852201922385564
174,1.5878430604934692,1.5179089307785034,0.3269230769230769,0.8269230769230769,0.2857142857142857,0.8571428571428571,0.004838610077074669
175,1.5653703808784485,1.521545171737671,0.38461538461538464,0.8269230769230769,0.35714285714285715,0.8571428571428571,0.004824441214720628
176,1.550601303577423,1.5313305854797363,0.3269230769230769,0.8269230769230769,0.35714285714285715,0.8571428571428571,0.004809698831278217
177,1.5577656626701355,1.5533591508865356,0.3269230769230769,0.8269230769230769,0.35714285714285715,0.8571428571428571,0.0047943865642099525
178,1.5570274591445923,1.5598891973495483,0.36538461538461536,0.8269230769230769,0.21428571428571427,0.8571428571428571,0.004778508191588613
179,1.5670910477638245,1.582654595375061,0.36538461538461536,0.8269230769230769,0.21428571428571427,0.8571428571428571,0.004762067631165049
180,1.5444205403327942,1.5925068855285645,0.36538461538461536,0.8269230769230769,0.21428571428571427,0.8571428571428571,0.004745068939401539
181,1.559428334236145,1.5788873434066772,0.36538461538461536,0.8269230769230769,0.21428571428571427,0.8571428571428571,0.00472751631047092
182,1.5539832711219788,1.580862283706665,0.36538461538461536,0.8269230769230769,0.21428571428571427,0.8571428571428571,0.004709414075221734
183,1.5774322748184204,1.5480427742004395,0.36538461538461536,0.8269230769230769,0.21428571428571427,0.8571428571428571,0.0046907667001096585
184,1.5881059169769287,1.5315876007080078,0.36538461538461536,0.8269230769230769,0.21428571428571427,0.8571428571428571,0.004671578786095479
185,1.5369665026664734,1.5189930200576782,0.36538461538461536,0.8269230769230769,0.21428571428571427,0.8571428571428571,0.0046518550675098596
186,1.5229738354682922,1.508798599243164,0.36538461538461536,0.8269230769230769,0.5,0.8571428571428571,0.004631600410885231
187,1.5411120653152466,1.5117566585540771,0.28846153846153844,0.8269230769230769,0.5714285714285714,0.8571428571428571,0.004610819813755038
188,1.5702903866767883,1.5109657049179077,0.3076923076923077,0.8269230769230769,0.42857142857142855,0.8571428571428571,0.004589518403420676
189,1.5672650337219238,1.5113468170166016,0.38461538461538464,0.8269230769230769,0.21428571428571427,0.8571428571428571,0.004567701435686404
190,1.5490124225616455,1.5371787548065186,0.36538461538461536,0.8269230769230769,0.21428571428571427,0.8571428571428571,0.004545374293562558
191,1.5729488730430603,1.5372509956359863,0.36538461538461536,0.8269230769230769,0.21428571428571427,0.8571428571428571,0.0045225424859373685
192,1.564415991306305,1.5405101776123047,0.36538461538461536,0.8269230769230769,0.21428571428571427,0.8571428571428571,0.004499211646217727
193,1.5388774275779724,1.553314447402954,0.36538461538461536,0.8269230769230769,0.21428571428571427,0.8571428571428571,0.0044753875309392266
194,1.5478537678718567,1.5474227666854858,0.36538461538461536,0.8269230769230769,0.21428571428571427,0.8571428571428571,0.004451076018345824
195,1.548908770084381,1.5394384860992432,0.36538461538461536,0.8269230769230769,0.21428571428571427,0.8571428571428571,0.004426283106939473
196,1.5593138933181763,1.5509600639343262,0.36538461538461536,0.8269230769230769,0.21428571428571427,0.8571428571428571,0.004401014914000078
197,1.5538469552993774,1.5477116107940674,0.36538461538461536,0.8269230769230769,0.21428571428571427,0.8571428571428571,0.004375277674076149
198,1.5363937020301819,1.5433626174926758,0.36538461538461536,0.8269230769230769,0.21428571428571427,0.8571428571428571,0.004349077737446524
199,1.541170358657837,1.541445255279541,0.36538461538461536,0.8269230769230769,0.21428571428571427,0.8571428571428571,0.004322421568553529
200,1.5503275394439697,1.5456055402755737,0.36538461538461536,0.8269230769230769,0.21428571428571427,0.8571428571428571,0.004295315744407973
201,1.547189712524414,1.529833197593689,0.36538461538461536,0.8269230769230769,0.21428571428571427,0.8571428571428571,0.004267766952966369
202,1.568969964981079,1.5376925468444824,0.36538461538461536,0.8269230769230769,0.21428571428571427,0.8571428571428571,0.004239781991480785
203,1.556975781917572,1.5131899118423462,0.36538461538461536,0.8269230769230769,0.21428571428571427,0.8571428571428571,0.004211367764821722
204,1.5457873940467834,1.516844391822815,0.36538461538461536,0.8269230769230769,0.21428571428571427,0.8571428571428571,0.004182531283774433
205,1.5312307476997375,1.5163865089416504,0.36538461538461536,0.8269230769230769,0.21428571428571427,0.8571428571428571,0.00415327966330913
206,1.5581128597259521,1.5069564580917358,0.36538461538461536,0.8269230769230769,0.21428571428571427,0.8571428571428571,0.00412362012082546
207,1.5564454197883606,1.505232810974121,0.34615384615384615,0.8269230769230769,0.21428571428571427,0.8571428571428571,0.004093559974371724
208,1.5562422275543213,1.5508501529693604,0.36538461538461536,0.8269230769230769,0.21428571428571427,0.8571428571428571,0.004063106640839263
209,1.5197714567184448,1.5289182662963867,0.38461538461538464,0.8269230769230769,0.2857142857142857,0.8571428571428571,0.004032267634132442
210,1.5599530935287476,1.522928237915039,0.3269230769230769,0.8269230769230769,0.35714285714285715,0.8571428571428571,0.004001050563314711
211,1.5577720999717712,1.552778959274292,0.4230769230769231,0.8269230769230769,0.2857142857142857,0.8571428571428571,0.003969463130731183
212,1.5291885137557983,1.5300235748291016,0.34615384615384615,0.8269230769230769,0.14285714285714285,0.8571428571428571,0.003937513130108197
213,1.5765164494514465,1.520423173904419,0.2692307692307692,0.8269230769230769,0.35714285714285715,0.8571428571428571,0.003905208444630327
214,1.542306900024414,1.5274385213851929,0.3269230769230769,0.8269230769230769,0.2857142857142857,0.8571428571428571,0.0038725570449953295
215,1.5730227828025818,1.5787451267242432,0.28846153846153844,0.8269230769230769,0.14285714285714285,0.8571428571428571,0.0038395669874474914
216,1.5937532782554626,1.5498119592666626,0.36538461538461536,0.8269230769230769,0.21428571428571427,0.8571428571428571,0.0038062464117898723
217,1.5628604888916016,1.5310463905334473,0.34615384615384615,0.8269230769230769,0.21428571428571427,0.8571428571428571,0.0037726035393759283
218,1.539399802684784,1.5387895107269287,0.36538461538461536,0.8269230769230769,0.21428571428571427,0.8571428571428571,0.003738646671081019
219,1.5743770003318787,1.5139505863189697,0.34615384615384615,0.8269230769230769,0.21428571428571427,0.8571428571428571,0.0037043841852542883
220,1.5315901637077332,1.8008701801300049,0.36538461538461536,0.8269230769230769,0.2857142857142857,0.8571428571428571,0.0036698245356514337
221,1.5637304782867432,1.5449795722961426,0.34615384615384615,0.8269230769230769,0.21428571428571427,0.8571428571428571,0.003634976249348867
222,1.5652355551719666,1.7464879751205444,0.38461538461538464,0.8269230769230769,0.35714285714285715,0.8571428571428571,0.0035998479246397877
223,1.5838951468467712,1.5428074598312378,0.2692307692307692,0.8269230769230769,0.35714285714285715,0.8571428571428571,0.003564448228912682
224,1.5825717449188232,1.5214121341705322,0.36538461538461536,0.8269230769230769,0.35714285714285715,0.8571428571428571,0.0035287858965127724
225,1.5768271684646606,1.5407650470733643,0.3269230769230769,0.8269230769230769,0.2857142857142857,0.8571428571428571,0.003492869726586951
226,1.5586740970611572,1.5477848052978516,0.34615384615384615,0.8269230769230769,0.35714285714285715,0.8571428571428571,0.003456708580912725
227,1.570898711681366,1.5384800434112549,0.34615384615384615,0.8269230769230769,0.35714285714285715,0.8571428571428571,0.0034203113817116953
228,1.5905345678329468,1.5822092294692993,0.3269230769230769,0.8269230769230769,0.2857142857142857,0.8571428571428571,0.003383687109448143
229,1.5650342106819153,1.5408718585968018,0.34615384615384615,0.8269230769230769,0.42857142857142855,0.8571428571428571,0.0033468448006132292
230,1.5711292028427124,1.5442696809768677,0.38461538461538464,0.8269230769230769,0.2857142857142857,0.8571428571428571,0.003309793545495374
231,1.5668111443519592,1.5417495965957642,0.34615384615384615,0.8269230769230769,0.21428571428571427,0.8571428571428571,0.0032725424859373687
232,1.528217852115631,1.5375912189483643,0.36538461538461536,0.8269230769230769,0.21428571428571427,0.8571428571428571,0.00323510081308076
233,1.5671659708023071,1.5434978008270264,0.36538461538461536,0.8269230769230769,0.21428571428571427,0.8571428571428571,0.0031974777650980737
234,1.5457640290260315,1.5566105842590332,0.36538461538461536,0.8269230769230769,0.21428571428571427,0.8571428571428571,0.003159682624913432
235,1.557827353477478,1.5549383163452148,0.36538461538461536,0.8269230769230769,0.21428571428571427,0.8571428571428571,0.0031217247179121366
236,1.5972675681114197,1.5582259893417358,0.36538461538461536,0.8269230769230769,0.21428571428571427,0.8571428571428571,0.0030836134096397638
237,1.5307093858718872,1.5718632936477661,0.36538461538461536,0.8269230769230769,0.21428571428571427,0.8571428571428571,0.0030453581034913567
238,1.6029295325279236,1.5436246395111084,0.36538461538461536,0.8269230769230769,0.21428571428571427,0.8571428571428571,0.0030069682383912816
239,1.5574966073036194,1.552315354347229,0.36538461538461536,0.8269230769230769,0.21428571428571427,0.8571428571428571,0.002968453286464312
240,1.5424421429634094,1.5833162069320679,0.36538461538461536,0.8269230769230769,0.21428571428571427,0.8571428571428571,0.0029298227506985236
241,1.5578434467315674,1.51720130443573,0.36538461538461536,0.8269230769230769,0.21428571428571427,0.8571428571428571,0.0028910861626005773
242,1.5384929776191711,1.553410291671753,0.36538461538461536,0.8269230769230769,0.21428571428571427,0.8571428571428571,0.0028522530798439573
243,1.4922617673873901,1.5263535976409912,0.36538461538461536,0.8269230769230769,0.21428571428571427,0.8571428571428571,0.002813333083910761
244,1.5038422346115112,1.5064451694488525,0.36538461538461536,0.8269230769230769,0.21428571428571427,0.8571428571428571,0.0027743357777276134
245,1.5662540793418884,1.533494234085083,0.36538461538461536,0.8269230769230769,0.21428571428571427,0.8571428571428571,0.002735270783296286
246,1.5711936354637146,1.5257823467254639,0.36538461538461536,0.8269230769230769,0.21428571428571427,0.8571428571428571,0.0026961477393196128
247,1.5359556674957275,1.5180720090866089,0.36538461538461536,0.8269230769230769,0.21428571428571427,0.8571428571428571,0.0026569762988232835
248,1.5325464606285095,1.5463042259216309,0.36538461538461536,0.8269230769230769,0.21428571428571427,0.8571428571428571,0.0026177661267741065
249,1.5293400883674622,1.5265625715255737,0.36538461538461536,0.8269230769230769,0.21428571428571427,0.8571428571428571,0.0025785268976953207
250,1.5361586213111877,1.497658133506775,0.34615384615384615,0.8269230769230769,0.2857142857142857,0.8571428571428571,0.002539268293279552
251,1.5557950139045715,1.4724774360656738,0.2692307692307692,0.8269230769230769,0.35714285714285715,0.8571428571428571,0.0025
252,1.5285984873771667,1.5005109310150146,0.38461538461538464,0.8269230769230769,0.35714285714285715,0.8571428571428571,0.002460731706720449
253,1.5232970118522644,1.5102245807647705,0.3269230769230769,0.8269230769230769,0.14285714285714285,0.8571428571428571,0.0024214731023046794
254,1.5281562209129333,1.5593703985214233,0.34615384615384615,0.8269230769230769,0.21428571428571427,0.8571428571428571,0.0023822338732258936
255,1.496802806854248,1.565909743309021,0.36538461538461536,0.8269230769230769,0.21428571428571427,0.8571428571428571,0.0023430237011767166
256,1.5730827450752258,1.523036003112793,0.36538461538461536,0.8269230769230769,0.21428571428571427,0.8571428571428571,0.002303852260680388
257,1.507005512714386,1.5352914333343506,0.36538461538461536,0.8269230769230769,0.21428571428571427,0.8571428571428571,0.002264729216703714
258,1.5180637836456299,1.5252387523651123,0.36538461538461536,0.8269230769230769,0.21428571428571427,0.8571428571428571,0.0022256642222723867
259,1.506066083908081,1.467306137084961,0.34615384615384615,0.8269230769230769,0.21428571428571427,0.8571428571428571,0.0021866669160892395
260,1.57411527633667,1.5332295894622803,0.38461538461538464,0.8269230769230769,0.21428571428571427,0.8571428571428571,0.002147746920156044
261,1.5483760833740234,1.5339378118515015,0.36538461538461536,0.8269230769230769,0.21428571428571427,0.8571428571428571,0.002108913837399423
262,1.5202692747116089,1.5336198806762695,0.34615384615384615,0.8269230769230769,0.2857142857142857,0.8571428571428571,0.002070177249301476
263,1.6099123358726501,1.5022636651992798,0.34615384615384615,0.8269230769230769,0.21428571428571427,0.8571428571428571,0.0020315467135356884
264,1.5432846546173096,1.5152106285095215,0.34615384615384615,0.8269230769230769,0.21428571428571427,0.8571428571428571,0.001993031761608719
265,1.5490710139274597,1.5290851593017578,0.36538461538461536,0.8269230769230769,0.2857142857142857,0.8571428571428571,0.0019546418965086442
266,1.5567049384117126,1.481485366821289,0.40384615384615385,0.8269230769230769,0.14285714285714285,0.8571428571428571,0.0019163865903602361
267,1.5214597582817078,1.537632703781128,0.3269230769230769,0.8269230769230769,0.2857142857142857,0.8571428571428571,0.0018782752820878628
268,1.5610979795455933,1.4951891899108887,0.34615384615384615,0.8269230769230769,0.2857142857142857,0.8571428571428571,0.0018403173750865679
269,1.56922847032547,1.5016849040985107,0.34615384615384615,0.8269230769230769,0.21428571428571427,0.8571428571428571,0.001802522234901927
270,1.54566890001297,1.4990633726119995,0.36538461538461536,0.8269230769230769,0.2857142857142857,0.8571428571428571,0.0017648991869192404
271,1.5802720785140991,1.504579782485962,0.38461538461538464,0.8269230769230769,0.21428571428571427,0.8571428571428571,0.0017274575140626323
272,1.5334084033966064,1.5072917938232422,0.36538461538461536,0.8269230769230769,0.21428571428571427,0.8571428571428571,0.0016902064545046263
273,1.5765730738639832,1.46490478515625,0.36538461538461536,0.8269230769230769,0.21428571428571427,0.8571428571428571,0.0016531551993867715
274,1.5383416414260864,1.5583980083465576,0.3269230769230769,0.8269230769230769,0.2857142857142857,0.8571428571428571,0.0016163128905518577
275,1.5918959379196167,1.520991563796997,0.38461538461538464,0.8269230769230769,0.21428571428571427,0.8571428571428571,0.0015796886182883059
276,1.5654177069664001,1.5139741897583008,0.34615384615384615,0.8269230769230769,0.2857142857142857,0.8571428571428571,0.0015432914190872762
277,1.533206582069397,1.4507675170898438,0.36538461538461536,0.8269230769230769,0.42857142857142855,0.8571428571428571,0.0015071302734130482
278,1.5366857051849365,1.5138647556304932,0.4423076923076923,0.8269230769230769,0.2857142857142857,0.8571428571428571,0.001471214103487228
279,1.5379604697227478,1.5161069631576538,0.4230769230769231,0.8269230769230769,0.21428571428571427,0.8571428571428571,0.0014355517710873183
280,1.51545912027359,1.5595499277114868,0.46153846153846156,0.8269230769230769,0.14285714285714285,0.8571428571428571,0.001400152075360212
281,1.5056666731834412,1.4230751991271973,0.36538461538461536,0.8269230769230769,0.5714285714285714,0.8571428571428571,0.0013650237506511332
282,1.5705456733703613,1.567184329032898,0.38461538461538464,0.8269230769230769,0.2857142857142857,0.8571428571428571,0.001330175464348567
283,1.559265375137329,1.5606040954589844,0.3269230769230769,0.8269230769230769,0.14285714285714285,0.8571428571428571,0.0012956158147457114
284,1.5308555364608765,1.4546602964401245,0.4230769230769231,0.8269230769230769,0.35714285714285715,0.8571428571428571,0.001261353328918981
285,1.5037348866462708,1.4872403144836426,0.3076923076923077,0.8269230769230769,0.42857142857142855,0.8571428571428571,0.0012273964606240718
286,1.5159568190574646,1.523612380027771,0.4423076923076923,0.8269230769230769,0.2857142857142857,0.8571428571428571,0.001193753588210128
287,1.525835931301117,1.5694427490234375,0.34615384615384615,0.8269230769230769,0.21428571428571427,0.8571428571428571,0.0011604330125525079
288,1.5126533508300781,1.583336591720581,0.40384615384615385,0.8269230769230769,0.21428571428571427,0.8571428571428571,0.0011274429550046702
289,1.5562356114387512,1.5747112035751343,0.36538461538461536,0.8269230769230769,0.21428571428571427,0.8571428571428571,0.0010947915553696733
290,1.5428298115730286,1.5613380670547485,0.38461538461538464,0.8269230769230769,0.35714285714285715,0.8571428571428571,0.0010624868698918036
291,1.5323197841644287,1.493652582168579,0.38461538461538464,0.8269230769230769,0.2857142857142857,0.8571428571428571,0.0010305368692688174
292,1.4953447580337524,1.5777099132537842,0.5,0.8269230769230769,0.2857142857142857,0.8571428571428571,0.0009989494366852902
293,1.5618831515312195,1.5311541557312012,0.4807692307692308,0.8269230769230769,0.2857142857142857,0.8571428571428571,0.0009677323658675585
294,1.529052734375,1.555269479751587,0.4423076923076923,0.8269230769230769,0.21428571428571427,0.8571428571428571,0.000936893359160737
295,1.5218424797058105,1.5773649215698242,0.40384615384615385,0.8269230769230769,0.14285714285714285,0.8571428571428571,0.0009064400256282757
296,1.5362237095832825,1.4908311367034912,0.4230769230769231,0.8269230769230769,0.2857142857142857,0.8571428571428571,0.0008763798791745412
297,1.5219451785087585,1.5397758483886719,0.2692307692307692,0.8269230769230769,0.2857142857142857,0.8571428571428571,0.0008467203366908707
298,1.5784530639648438,1.4973078966140747,0.36538461538461536,0.8269230769230769,0.21428571428571427,0.8571428571428571,0.0008174687162255665
299,1.508652925491333,1.5359516143798828,0.34615384615384615,0.8269230769230769,0.21428571428571427,0.8571428571428571,0.0007886322351782782
300,1.5056250095367432,1.5757672786712646,0.4230769230769231,0.8269230769230769,0.2857142857142857,0.8571428571428571,0.0007602180085192142
301,1.53971928358078,1.863502025604248,0.46153846153846156,0.8269230769230769,0.21428571428571427,0.8571428571428571,0.0007322330470336313
302,1.5442323088645935,1.4419158697128296,0.3269230769230769,0.8269230769230769,0.35714285714285715,0.8571428571428571,0.0007046842555920282
303,1.5737411975860596,1.5668936967849731,0.36538461538461536,0.8269230769230769,0.35714285714285715,0.8571428571428571,0.0006775784314464717
304,1.525595247745514,1.8325932025909424,0.4423076923076923,0.8269230769230769,0.21428571428571427,0.8571428571428571,0.0006509222625534758
305,1.512260615825653,1.475605845451355,0.38461538461538464,0.8269230769230769,0.42857142857142855,0.8571428571428571,0.0006247223259238514
306,1.5331127643585205,1.5061664581298828,0.36538461538461536,0.8269230769230769,0.35714285714285715,0.8571428571428571,0.0005989850859999227
307,1.5761283040046692,1.4924566745758057,0.34615384615384615,0.8269230769230769,0.35714285714285715,0.8571428571428571,0.0005737168930605272
308,1.5521636605262756,1.6487101316452026,0.3269230769230769,0.8269230769230769,0.35714285714285715,0.8571428571428571,0.000548923981654176
309,1.52022385597229,1.5530022382736206,0.40384615384615385,0.8269230769230769,0.2857142857142857,0.8571428571428571,0.000524612469060774
310,1.537434458732605,1.5187065601348877,0.4230769230769231,0.8269230769230769,0.35714285714285715,0.8571428571428571,0.0005007883537822738
311,1.5175524950027466,1.5080105066299438,0.4230769230769231,0.8269230769230769,0.35714285714285715,0.8571428571428571,0.00047745751406263163
312,1.5013681054115295,1.5566774606704712,0.36538461538461536,0.8269230769230769,0.2857142857142857,0.8571428571428571,0.00045462570643744175
313,1.497011661529541,1.8216835260391235,0.4230769230769231,0.8269230769230769,0.21428571428571427,0.8571428571428571,0.000432298564313596
314,1.5119251608848572,1.7959473133087158,0.40384615384615385,0.8269230769230769,0.14285714285714285,0.8571428571428571,0.00041048159657932487
315,1.5297966599464417,1.5456446409225464,0.40384615384615385,0.8269230769230769,0.42857142857142855,0.8571428571428571,0.00038918018624496285
316,1.4929107427597046,1.572479248046875,0.5,0.8269230769230769,0.2857142857142857,0.8571428571428571,0.00036839958911477014
317,1.5197340846061707,1.75687575340271,0.34615384615384615,0.8269230769230769,0.35714285714285715,0.8571428571428571,0.0003481449324901406
318,1.5168518424034119,1.4777244329452515,0.38461538461538464,0.8269230769230769,0.35714285714285715,0.8571428571428571,0.0003284212139045217
319,1.5559207201004028,1.5283769369125366,0.5,0.8269230769230769,0.35714285714285715,0.8571428571428571,0.00030923329989034103
320,1.4710195660591125,1.5673012733459473,0.5,0.8269230769230769,0.35714285714285715,0.8571428571428571,0.00029058592477826633
321,1.505165457725525,1.5160613059997559,0.36538461538461536,0.8269230769230769,0.21428571428571427,0.8571428571428571,0.00027248368952908055
322,1.5359658002853394,1.5524542331695557,0.36538461538461536,0.8269230769230769,0.35714285714285715,0.8571428571428571,0.00025493106059846116
323,1.55326247215271,1.5258100032806396,0.4423076923076923,0.8269230769230769,0.2857142857142857,0.8571428571428571,0.00023793236883495162
324,1.5083307027816772,1.5135897397994995,0.36538461538461536,0.8269230769230769,0.2857142857142857,0.8571428571428571,0.00022149180841138732
325,1.5958858728408813,1.530875563621521,0.34615384615384615,0.8269230769230769,0.2857142857142857,0.8571428571428571,0.0002056134357900477
326,1.522806167602539,1.5869297981262207,0.38461538461538464,0.8269230769230769,0.35714285714285715,0.8571428571428571,0.0001903011687217837
327,1.547168493270874,1.4696857929229736,0.38461538461538464,0.8269230769230769,0.5,0.8571428571428571,0.00017555878527937164
328,1.5257761478424072,1.5309087038040161,0.2692307692307692,0.8269230769230769,0.21428571428571427,0.8571428571428571,0.00016138992292533155
329,1.5256208181381226,1.5774834156036377,0.4423076923076923,0.8269230769230769,0.2857142857142857,0.8571428571428571,0.00014779807761443637
330,1.5318853855133057,1.5083062648773193,0.38461538461538464,0.8269230769230769,0.2857142857142857,0.8571428571428571,0.00013478660293113676
331,1.5107739567756653,1.472372055053711,0.4423076923076923,0.8269230769230769,0.2857142857142857,0.8571428571428571,0.00012235870926211617
332,1.543257474899292,1.5106464624404907,0.3269230769230769,0.8269230769230769,0.14285714285714285,0.8571428571428571,0.0001105174630041747
333,1.5472532510757446,1.476203203201294,0.46153846153846156,0.8269230769230769,0.35714285714285715,0.8571428571428571,9.926578580764262e-05
334,1.542968511581421,1.4986718893051147,0.36538461538461536,0.8269230769230769,0.2857142857142857,0.8571428571428571,8.860645385550508e-05
335,1.540531039237976,1.506050944328308,0.34615384615384615,0.8269230769230769,0.2857142857142857,0.8571428571428571,7.854209717842258e-05
336,1.5225700736045837,1.5282461643218994,0.4230769230769231,0.8269230769230769,0.42857142857142855,0.8571428571428571,6.90751990058086e-05
337,1.532671570777893,1.4953737258911133,0.28846153846153844,0.8269230769230769,0.2857142857142857,0.8571428571428571,6.0208095153131695e-05
338,1.5248234272003174,1.4976317882537842,0.3269230769230769,0.8269230769230769,0.35714285714285715,0.8571428571428571,5.194297344558535e-05
339,1.5176076292991638,1.5193755626678467,0.36538461538461536,0.8269230769230769,0.2857142857142857,0.8571428571428571,4.4281873178278196e-05
340,1.496519684791565,1.4620530605316162,0.36538461538461536,0.8269230769230769,0.42857142857142855,0.8571428571428571,3.7226684613065334e-05
341,1.5172154903411865,1.4881629943847656,0.34615384615384615,0.8269230769230769,0.35714285714285715,0.8571428571428571,3.077914851215585e-05
342,1.530563771724701,1.5981178283691406,0.36538461538461536,0.8269230769230769,0.2857142857142857,0.8571428571428571,2.4940855708606158e-05
343,1.5324308276176453,1.53844153881073,0.4423076923076923,0.8269230769230769,0.2857142857142857,0.8571428571428571,1.9713246713805587e-05
344,1.4917842149734497,1.4703147411346436,0.34615384615384615,0.8269230769230769,0.35714285714285715,0.8571428571428571,1.5097611362051012e-05
345,1.536340355873108,1.5010826587677002,0.34615384615384615,0.8269230769230769,0.2857142857142857,0.8571428571428571,1.109508849230001e-05
346,1.4981841444969177,1.511671781539917,0.4230769230769231,0.8269230769230769,0.35714285714285715,0.8571428571428571,7.70666566718009e-06
347,1.5284903049468994,1.5184218883514404,0.3269230769230769,0.8269230769230769,0.35714285714285715,0.8571428571428571,4.933178929321102e-06
348,1.5445990562438965,1.57598876953125,0.3076923076923077,0.8269230769230769,0.2857142857142857,0.8571428571428571,2.775312595075241e-06
349,1.5378066897392273,1.5275912284851074,0.4807692307692308,0.8269230769230769,0.21428571428571427,0.8571428571428571,1.233599085671e-06
350,1.4809659123420715,1.7901718616485596,0.4423076923076923,0.8269230769230769,0.21428571428571427,0.8571428571428571,3.0841879584853074e-07
