epoch,train_loss,val_loss,train_acc_action,train_acc_status,val_acc_action,val_acc_status,learning_rate
1,1.7754968404769897,1.5853160619735718,0.25,0.4423076923076923,0.35714285714285715,0.8571428571428571,0.0004
2,1.5528725981712341,1.6377549171447754,0.4230769230769231,0.8269230769230769,0.21428571428571427,0.8571428571428571,0.0004
3,1.5825287103652954,1.6060328483581543,0.36538461538461536,0.8269230769230769,0.21428571428571427,0.8571428571428571,0.0004
4,1.6000967025756836,1.5484143495559692,0.36538461538461536,0.8269230769230769,0.21428571428571427,0.8571428571428571,0.0004
5,1.5455026030540466,1.5090000629425049,0.34615384615384615,0.8269230769230769,0.42857142857142855,0.8571428571428571,0.0004
6,1.5798794031143188,1.4930856227874756,0.3076923076923077,0.8269230769230769,0.42857142857142855,0.8571428571428571,0.0004
7,1.5875778198242188,1.4913142919540405,0.3076923076923077,0.8269230769230769,0.42857142857142855,0.8571428571428571,0.0004
8,1.5770651698112488,1.5053026676177979,0.2692307692307692,0.8269230769230769,0.35714285714285715,0.8571428571428571,0.0004
9,1.587565302848816,1.5280617475509644,0.3076923076923077,0.8269230769230769,0.35714285714285715,0.8571428571428571,0.0004
10,1.583396315574646,1.5514618158340454,0.25,0.8269230769230769,0.35714285714285715,0.8571428571428571,0.0004
11,1.5529265403747559,1.5675874948501587,0.34615384615384615,0.8269230769230769,0.21428571428571427,0.8571428571428571,0.0004
12,1.5761559009552002,1.5748438835144043,0.3269230769230769,0.8269230769230769,0.21428571428571427,0.8571428571428571,0.0004
13,1.5799833536148071,1.5815746784210205,0.36538461538461536,0.8269230769230769,0.21428571428571427,0.8571428571428571,0.0004
14,1.5498660802841187,1.5752615928649902,0.36538461538461536,0.8269230769230769,0.21428571428571427,0.8571428571428571,0.0004
15,1.5817574858665466,1.564109206199646,0.36538461538461536,0.8269230769230769,0.21428571428571427,0.8571428571428571,0.0004
16,1.5561119318008423,1.5512499809265137,0.38461538461538464,0.8269230769230769,0.21428571428571427,0.8571428571428571,0.0004
17,1.6128909587860107,1.5376445055007935,0.34615384615384615,0.8269230769230769,0.21428571428571427,0.8571428571428571,0.0004
18,1.5330710411071777,1.5287892818450928,0.3076923076923077,0.8269230769230769,0.21428571428571427,0.8571428571428571,0.0004
19,1.58162122964859,1.5232551097869873,0.28846153846153844,0.8269230769230769,0.21428571428571427,0.8571428571428571,0.0004
20,1.572974681854248,1.5178563594818115,0.38461538461538464,0.8269230769230769,0.21428571428571427,0.8571428571428571,0.0004
21,1.5355557203292847,1.5174363851547241,0.40384615384615385,0.8269230769230769,0.21428571428571427,0.8571428571428571,0.0004
22,1.5834792256355286,1.5178406238555908,0.34615384615384615,0.8269230769230769,0.21428571428571427,0.8571428571428571,0.0004
23,1.5418152213096619,1.5205904245376587,0.40384615384615385,0.8269230769230769,0.21428571428571427,0.8571428571428571,0.0004
24,1.5517295598983765,1.5224159955978394,0.36538461538461536,0.8269230769230769,0.21428571428571427,0.8571428571428571,0.0004
25,1.5531824827194214,1.5268454551696777,0.34615384615384615,0.8269230769230769,0.21428571428571427,0.8571428571428571,0.0004
26,1.5571237206459045,1.531606912612915,0.36538461538461536,0.8269230769230769,0.21428571428571427,0.8571428571428571,0.0004
27,1.5365518927574158,1.5347895622253418,0.36538461538461536,0.8269230769230769,0.21428571428571427,0.8571428571428571,0.0004
28,1.5944032073020935,1.5391501188278198,0.36538461538461536,0.8269230769230769,0.21428571428571427,0.8571428571428571,0.0004
29,1.556680142879486,1.5384745597839355,0.36538461538461536,0.8269230769230769,0.21428571428571427,0.8571428571428571,0.0004
30,1.569914996623993,1.5357530117034912,0.36538461538461536,0.8269230769230769,0.21428571428571427,0.8571428571428571,0.0004
31,1.5475043058395386,1.5370476245880127,0.36538461538461536,0.8269230769230769,0.21428571428571427,0.8571428571428571,0.0004
32,1.5757043957710266,1.5365941524505615,0.36538461538461536,0.8269230769230769,0.21428571428571427,0.8571428571428571,0.0004
33,1.5539742708206177,1.5367907285690308,0.36538461538461536,0.8269230769230769,0.21428571428571427,0.8571428571428571,0.0004
34,1.5517314076423645,1.5363985300064087,0.40384615384615385,0.8269230769230769,0.21428571428571427,0.8571428571428571,0.0004
35,1.545703411102295,1.5372810363769531,0.40384615384615385,0.8269230769230769,0.21428571428571427,0.8571428571428571,0.0004
36,1.603950023651123,1.5343713760375977,0.38461538461538464,0.8269230769230769,0.21428571428571427,0.8571428571428571,0.0004
37,1.5530540943145752,1.53587806224823,0.3076923076923077,0.8269230769230769,0.21428571428571427,0.8571428571428571,0.0004
38,1.5819199085235596,1.5363963842391968,0.36538461538461536,0.8269230769230769,0.21428571428571427,0.8571428571428571,0.0004
39,1.5942092537879944,1.5342965126037598,0.3076923076923077,0.8269230769230769,0.21428571428571427,0.8571428571428571,0.0004
40,1.5346734523773193,1.5328223705291748,0.34615384615384615,0.8269230769230769,0.21428571428571427,0.8571428571428571,0.0004
41,1.5781590342521667,1.5360170602798462,0.40384615384615385,0.8269230769230769,0.21428571428571427,0.8571428571428571,0.0004
42,1.5596153736114502,1.5382602214813232,0.36538461538461536,0.8269230769230769,0.21428571428571427,0.8571428571428571,0.0004
43,1.5579295754432678,1.542314887046814,0.36538461538461536,0.8269230769230769,0.21428571428571427,0.8571428571428571,0.0004
44,1.540604829788208,1.5470918416976929,0.36538461538461536,0.8269230769230769,0.21428571428571427,0.8571428571428571,0.0004
45,1.5385448932647705,1.5530738830566406,0.36538461538461536,0.8269230769230769,0.21428571428571427,0.8571428571428571,0.0004
46,1.5664987564086914,1.5528196096420288,0.36538461538461536,0.8269230769230769,0.21428571428571427,0.8571428571428571,0.0004
47,1.563381850719452,1.5500357151031494,0.36538461538461536,0.8269230769230769,0.21428571428571427,0.8571428571428571,0.0004
48,1.5216041803359985,1.545634388923645,0.36538461538461536,0.8269230769230769,0.21428571428571427,0.8571428571428571,0.0004
49,1.5684589743614197,1.542873501777649,0.36538461538461536,0.8269230769230769,0.21428571428571427,0.8571428571428571,0.0004
50,1.5264120697975159,1.5389814376831055,0.36538461538461536,0.8269230769230769,0.21428571428571427,0.8571428571428571,0.0004
51,1.593740165233612,1.5380501747131348,0.36538461538461536,0.8269230769230769,0.21428571428571427,0.8571428571428571,0.0004
52,1.5381709933280945,1.534456729888916,0.36538461538461536,0.8269230769230769,0.21428571428571427,0.8571428571428571,0.0004
53,1.587489128112793,1.5353660583496094,0.36538461538461536,0.8269230769230769,0.21428571428571427,0.8571428571428571,0.0004
54,1.5581954717636108,1.5390582084655762,0.36538461538461536,0.8269230769230769,0.21428571428571427,0.8571428571428571,0.0004
55,1.5493388175964355,1.5411310195922852,0.36538461538461536,0.8269230769230769,0.21428571428571427,0.8571428571428571,0.0004
56,1.5463995337486267,1.543938159942627,0.36538461538461536,0.8269230769230769,0.21428571428571427,0.8571428571428571,0.0004
57,1.5428975820541382,1.5418422222137451,0.36538461538461536,0.8269230769230769,0.21428571428571427,0.8571428571428571,0.0004
58,1.5421794652938843,1.5391569137573242,0.36538461538461536,0.8269230769230769,0.21428571428571427,0.8571428571428571,0.0004
59,1.5692989230155945,1.5378724336624146,0.36538461538461536,0.8269230769230769,0.21428571428571427,0.8571428571428571,0.0004
60,1.5806066989898682,1.5343923568725586,0.36538461538461536,0.8269230769230769,0.21428571428571427,0.8571428571428571,0.0004
61,1.5580175518989563,1.5326536893844604,0.34615384615384615,0.8269230769230769,0.21428571428571427,0.8571428571428571,0.0004
62,1.5268927812576294,1.5295335054397583,0.3269230769230769,0.8269230769230769,0.21428571428571427,0.8571428571428571,0.0004
63,1.531740427017212,1.530348300933838,0.2692307692307692,0.8269230769230769,0.21428571428571427,0.8571428571428571,0.0004
64,1.581261396408081,1.5298655033111572,0.38461538461538464,0.8269230769230769,0.21428571428571427,0.8571428571428571,0.0004
65,1.5790507793426514,1.5285167694091797,0.38461538461538464,0.8269230769230769,0.21428571428571427,0.8571428571428571,0.0004
66,1.5834689140319824,1.529854416847229,0.36538461538461536,0.8269230769230769,0.21428571428571427,0.8571428571428571,0.0004
67,1.5520711541175842,1.5328805446624756,0.3076923076923077,0.8269230769230769,0.21428571428571427,0.8571428571428571,0.0004
68,1.5185328125953674,1.5354543924331665,0.36538461538461536,0.8269230769230769,0.21428571428571427,0.8571428571428571,0.0004
69,1.566517949104309,1.5376803874969482,0.36538461538461536,0.8269230769230769,0.21428571428571427,0.8571428571428571,0.0004
70,1.599735975265503,1.533041000366211,0.36538461538461536,0.8269230769230769,0.21428571428571427,0.8571428571428571,0.0004
71,1.5469937324523926,1.5278301239013672,0.36538461538461536,0.8269230769230769,0.21428571428571427,0.8571428571428571,0.0004
72,1.551522135734558,1.5258138179779053,0.36538461538461536,0.8269230769230769,0.21428571428571427,0.8571428571428571,0.0004
73,1.5389641523361206,1.52262282371521,0.36538461538461536,0.8269230769230769,0.21428571428571427,0.8571428571428571,0.0004
74,1.5208677053451538,1.522239327430725,0.36538461538461536,0.8269230769230769,0.21428571428571427,0.8571428571428571,0.0004
75,1.5899468064308167,1.5264818668365479,0.38461538461538464,0.8269230769230769,0.21428571428571427,0.8571428571428571,0.0004
76,1.5602039694786072,1.531354546546936,0.28846153846153844,0.8269230769230769,0.21428571428571427,0.8571428571428571,0.0004
77,1.5202189683914185,1.534674048423767,0.40384615384615385,0.8269230769230769,0.21428571428571427,0.8571428571428571,0.0004
78,1.5784034729003906,1.536686897277832,0.36538461538461536,0.8269230769230769,0.21428571428571427,0.8571428571428571,0.0004
79,1.565609335899353,1.5374784469604492,0.36538461538461536,0.8269230769230769,0.21428571428571427,0.8571428571428571,0.0004
80,1.6041690111160278,1.5395232439041138,0.36538461538461536,0.8269230769230769,0.21428571428571427,0.8571428571428571,0.0004
81,1.5461700558662415,1.5413274765014648,0.36538461538461536,0.8269230769230769,0.21428571428571427,0.8571428571428571,0.0004
82,1.5659353137016296,1.5417753458023071,0.3269230769230769,0.8269230769230769,0.21428571428571427,0.8571428571428571,0.0004
83,1.5773624181747437,1.5438371896743774,0.38461538461538464,0.8269230769230769,0.21428571428571427,0.8571428571428571,0.0004
84,1.5796774625778198,1.5436936616897583,0.34615384615384615,0.8269230769230769,0.21428571428571427,0.8571428571428571,0.0004
85,1.568668782711029,1.542943000793457,0.34615384615384615,0.8269230769230769,0.21428571428571427,0.8571428571428571,0.0004
86,1.5530902743339539,1.5396041870117188,0.34615384615384615,0.8269230769230769,0.21428571428571427,0.8571428571428571,0.0004
87,1.5415782928466797,1.5383625030517578,0.38461538461538464,0.8269230769230769,0.21428571428571427,0.8571428571428571,0.0004
88,1.5351582765579224,1.5416057109832764,0.34615384615384615,0.8269230769230769,0.21428571428571427,0.8571428571428571,0.0004
89,1.5557371377944946,1.5449395179748535,0.38461538461538464,0.8269230769230769,0.21428571428571427,0.8571428571428571,0.0004
90,1.556228220462799,1.5442520380020142,0.36538461538461536,0.8269230769230769,0.21428571428571427,0.8571428571428571,0.0004
91,1.597150444984436,1.5443243980407715,0.36538461538461536,0.8269230769230769,0.21428571428571427,0.8571428571428571,0.0004
92,1.5439082384109497,1.5467915534973145,0.36538461538461536,0.8269230769230769,0.21428571428571427,0.8571428571428571,0.0004
93,1.5697383284568787,1.5472007989883423,0.36538461538461536,0.8269230769230769,0.21428571428571427,0.8571428571428571,0.0004
94,1.561133325099945,1.545219898223877,0.38461538461538464,0.8269230769230769,0.21428571428571427,0.8571428571428571,0.0004
95,1.5248214602470398,1.5392324924468994,0.36538461538461536,0.8269230769230769,0.21428571428571427,0.8571428571428571,0.0004
96,1.5169366002082825,1.53593909740448,0.36538461538461536,0.8269230769230769,0.21428571428571427,0.8571428571428571,0.0004
97,1.5160961151123047,1.533203363418579,0.36538461538461536,0.8269230769230769,0.21428571428571427,0.8571428571428571,0.0004
98,1.5708813071250916,1.53348708152771,0.36538461538461536,0.8269230769230769,0.21428571428571427,0.8571428571428571,0.0004
99,1.5348541736602783,1.5308858156204224,0.36538461538461536,0.8269230769230769,0.21428571428571427,0.8571428571428571,0.0004
100,1.5632365942001343,1.530154824256897,0.36538461538461536,0.8269230769230769,0.21428571428571427,0.8571428571428571,0.0004
101,1.5410290360450745,1.5288047790527344,0.36538461538461536,0.8269230769230769,0.21428571428571427,0.8571428571428571,0.0004
102,1.5647623538970947,1.530508279800415,0.36538461538461536,0.8269230769230769,0.21428571428571427,0.8571428571428571,0.0004
103,1.5502456426620483,1.52511727809906,0.36538461538461536,0.8269230769230769,0.21428571428571427,0.8571428571428571,0.0004
104,1.6035082340240479,1.5269732475280762,0.3269230769230769,0.8269230769230769,0.21428571428571427,0.8571428571428571,0.0004
105,1.550770878791809,1.525805950164795,0.36538461538461536,0.8269230769230769,0.21428571428571427,0.8571428571428571,0.0004
106,1.542624831199646,1.5227713584899902,0.38461538461538464,0.8269230769230769,0.21428571428571427,0.8571428571428571,0.0004
107,1.5516053438186646,1.5234355926513672,0.36538461538461536,0.8269230769230769,0.21428571428571427,0.8571428571428571,0.0004
108,1.5359433889389038,1.5263657569885254,0.3076923076923077,0.8269230769230769,0.21428571428571427,0.8571428571428571,0.0004
109,1.5564188361167908,1.5322165489196777,0.34615384615384615,0.8269230769230769,0.21428571428571427,0.8571428571428571,0.0004
110,1.5362980961799622,1.538306713104248,0.40384615384615385,0.8269230769230769,0.21428571428571427,0.8571428571428571,0.0004
111,1.588423728942871,1.5462818145751953,0.34615384615384615,0.8269230769230769,0.21428571428571427,0.8571428571428571,0.0004
112,1.5287370681762695,1.5491385459899902,0.34615384615384615,0.8269230769230769,0.21428571428571427,0.8571428571428571,0.0004
113,1.57046639919281,1.5489989519119263,0.36538461538461536,0.8269230769230769,0.21428571428571427,0.8571428571428571,0.0004
114,1.548869252204895,1.5444906949996948,0.34615384615384615,0.8269230769230769,0.21428571428571427,0.8571428571428571,0.0004
115,1.549579679965973,1.5380979776382446,0.36538461538461536,0.8269230769230769,0.21428571428571427,0.8571428571428571,0.0004
116,1.551660418510437,1.5358582735061646,0.38461538461538464,0.8269230769230769,0.21428571428571427,0.8571428571428571,0.0004
117,1.536090612411499,1.529876470565796,0.36538461538461536,0.8269230769230769,0.21428571428571427,0.8571428571428571,0.0004
118,1.5962227582931519,1.520938754081726,0.4230769230769231,0.8269230769230769,0.21428571428571427,0.8571428571428571,0.0004
119,1.5863358974456787,1.5182151794433594,0.34615384615384615,0.8269230769230769,0.21428571428571427,0.8571428571428571,0.0004
120,1.5611162185668945,1.5148805379867554,0.34615384615384615,0.8269230769230769,0.21428571428571427,0.8571428571428571,0.0004
121,1.5889145135879517,1.5158038139343262,0.4230769230769231,0.8269230769230769,0.21428571428571427,0.8571428571428571,0.0004
122,1.5912377834320068,1.5139148235321045,0.34615384615384615,0.8269230769230769,0.21428571428571427,0.8571428571428571,0.0004
123,1.5488218069076538,1.5160560607910156,0.4423076923076923,0.8269230769230769,0.21428571428571427,0.8571428571428571,0.0004
124,1.5475408434867859,1.5182900428771973,0.40384615384615385,0.8269230769230769,0.21428571428571427,0.8571428571428571,0.0004
125,1.5569402575492859,1.5224391222000122,0.3076923076923077,0.8269230769230769,0.21428571428571427,0.8571428571428571,0.0004
126,1.572387933731079,1.5245119333267212,0.3076923076923077,0.8269230769230769,0.21428571428571427,0.8571428571428571,0.0004
127,1.5450259447097778,1.5234003067016602,0.36538461538461536,0.8269230769230769,0.21428571428571427,0.8571428571428571,0.0004
128,1.544209897518158,1.5311858654022217,0.34615384615384615,0.8269230769230769,0.21428571428571427,0.8571428571428571,0.0004
129,1.5479381084442139,1.5412909984588623,0.3269230769230769,0.8269230769230769,0.21428571428571427,0.8571428571428571,0.0004
130,1.5656702518463135,1.5490365028381348,0.36538461538461536,0.8269230769230769,0.21428571428571427,0.8571428571428571,0.0004
131,1.5563141107559204,1.5547245740890503,0.34615384615384615,0.8269230769230769,0.21428571428571427,0.8571428571428571,0.0004
132,1.5022942423820496,1.550643801689148,0.38461538461538464,0.8269230769230769,0.21428571428571427,0.8571428571428571,0.0004
133,1.5556657910346985,1.5408037900924683,0.34615384615384615,0.8269230769230769,0.21428571428571427,0.8571428571428571,0.0004
134,1.5280535817146301,1.5293025970458984,0.40384615384615385,0.8269230769230769,0.21428571428571427,0.8571428571428571,0.0004
135,1.5451911687850952,1.5196541547775269,0.38461538461538464,0.8269230769230769,0.21428571428571427,0.8571428571428571,0.0004
136,1.5511592030525208,1.5133733749389648,0.28846153846153844,0.8269230769230769,0.21428571428571427,0.8571428571428571,0.0004
137,1.5308921933174133,1.518730640411377,0.36538461538461536,0.8269230769230769,0.21428571428571427,0.8571428571428571,0.0004
138,1.537164032459259,1.51069176197052,0.36538461538461536,0.8269230769230769,0.21428571428571427,0.8571428571428571,0.0004
139,1.559453308582306,1.5296270847320557,0.38461538461538464,0.8269230769230769,0.21428571428571427,0.8571428571428571,0.0004
140,1.5306155681610107,1.531235694885254,0.38461538461538464,0.8269230769230769,0.21428571428571427,0.8571428571428571,0.0004
141,1.525787115097046,1.5093599557876587,0.38461538461538464,0.8269230769230769,0.2857142857142857,0.8571428571428571,0.0004
142,1.5264567136764526,1.4979710578918457,0.38461538461538464,0.8269230769230769,0.2857142857142857,0.8571428571428571,0.0004
143,1.5016671419143677,1.5097384452819824,0.3269230769230769,0.8269230769230769,0.14285714285714285,0.8571428571428571,0.0004
144,1.5257183909416199,1.4797497987747192,0.38461538461538464,0.8269230769230769,0.42857142857142855,0.8571428571428571,0.0004
145,1.4871399998664856,1.4614802598953247,0.40384615384615385,0.8269230769230769,0.35714285714285715,0.8571428571428571,0.0004
146,1.4922333359718323,1.465378761291504,0.40384615384615385,0.8269230769230769,0.2857142857142857,0.8571428571428571,0.0004
147,1.4685388207435608,1.4249343872070312,0.5,0.8269230769230769,0.35714285714285715,0.8571428571428571,0.0004
148,1.5136414766311646,1.4765571355819702,0.3269230769230769,0.8269230769230769,0.42857142857142855,0.8571428571428571,0.0004
149,1.482810914516449,1.4533413648605347,0.40384615384615385,0.8269230769230769,0.42857142857142855,0.8571428571428571,0.0004
150,1.5742278695106506,1.4569532871246338,0.40384615384615385,0.8269230769230769,0.42857142857142855,0.8571428571428571,0.0004
151,1.4181628823280334,1.4726935625076294,0.4423076923076923,0.8269230769230769,0.35714285714285715,0.8571428571428571,0.0004
152,1.5399541854858398,1.420873761177063,0.40384615384615385,0.8269230769230769,0.5714285714285714,0.8571428571428571,0.0004
153,1.4126972556114197,1.4544734954833984,0.5384615384615384,0.8269230769230769,0.42857142857142855,0.8571428571428571,0.0004
154,1.4626092314720154,1.4592846632003784,0.40384615384615385,0.8269230769230769,0.5,0.8571428571428571,0.0004
155,1.5122779607772827,1.4698418378829956,0.46153846153846156,0.8269230769230769,0.5,0.8571428571428571,0.0004
156,1.4650474190711975,1.4655482769012451,0.5,0.8269230769230769,0.35714285714285715,0.8571428571428571,0.0004
157,1.4962466955184937,1.487200379371643,0.38461538461538464,0.8269230769230769,0.2857142857142857,0.8571428571428571,0.0004
158,1.5260514616966248,1.4262170791625977,0.38461538461538464,0.8269230769230769,0.6428571428571429,0.8571428571428571,0.0004
159,1.473906934261322,1.4612606763839722,0.46153846153846156,0.8269230769230769,0.42857142857142855,0.8571428571428571,0.0004
160,1.4746744632720947,1.376839518547058,0.40384615384615385,0.8269230769230769,0.5,0.8571428571428571,0.0004
161,1.467630386352539,1.4394100904464722,0.4423076923076923,0.8269230769230769,0.5,0.8571428571428571,0.0004
162,1.5170705914497375,1.4946885108947754,0.4807692307692308,0.8269230769230769,0.21428571428571427,0.8571428571428571,0.0004
163,1.4821113348007202,1.4505572319030762,0.4230769230769231,0.8269230769230769,0.5,0.8571428571428571,0.0004
164,1.4532103538513184,1.4356365203857422,0.5384615384615384,0.8269230769230769,0.5,0.8571428571428571,0.0004
165,1.3967739343643188,1.515776515007019,0.5,0.8269230769230769,0.5714285714285714,0.8571428571428571,0.0004
166,1.393589973449707,1.4888077974319458,0.5192307692307693,0.8269230769230769,0.5714285714285714,0.8571428571428571,0.0004
167,1.522154450416565,1.3598707914352417,0.40384615384615385,0.8269230769230769,0.5714285714285714,0.8571428571428571,0.0004
168,1.4927235841751099,1.3906660079956055,0.5192307692307693,0.8269230769230769,0.6428571428571429,0.8571428571428571,0.0004
169,1.3874077796936035,1.417116403579712,0.5,0.8269230769230769,0.42857142857142855,0.8571428571428571,0.0004
170,1.5040060877799988,1.3803424835205078,0.38461538461538464,0.8269230769230769,0.5,0.8571428571428571,0.0004
171,1.500612199306488,1.3858968019485474,0.4230769230769231,0.8269230769230769,0.5,0.8571428571428571,0.0004
172,1.5130285024642944,1.3803805112838745,0.4807692307692308,0.8269230769230769,0.5714285714285714,0.8571428571428571,0.0004
173,1.4854015707969666,1.3853182792663574,0.4230769230769231,0.8269230769230769,0.5,0.8571428571428571,0.0004
174,1.5325433611869812,1.340397834777832,0.36538461538461536,0.8269230769230769,0.6428571428571429,0.8571428571428571,0.0004
175,1.461859405040741,1.5823826789855957,0.46153846153846156,0.8269230769230769,0.42857142857142855,0.8571428571428571,0.0004
176,1.4148724675178528,1.3204147815704346,0.4807692307692308,0.8269230769230769,0.5714285714285714,0.8571428571428571,0.0004
177,1.3408402800559998,1.4904794692993164,0.5384615384615384,0.8269230769230769,0.5714285714285714,0.8571428571428571,0.0004
178,1.4812141060829163,1.2907541990280151,0.40384615384615385,0.8269230769230769,0.5714285714285714,0.8571428571428571,0.0004
179,1.445473074913025,1.5140031576156616,0.4230769230769231,0.8269230769230769,0.5,0.8571428571428571,0.0004
180,1.3963106870651245,1.4958302974700928,0.5,0.8269230769230769,0.5714285714285714,0.8571428571428571,0.0004
181,1.5215076804161072,1.50371515750885,0.40384615384615385,0.8269230769230769,0.5,0.8571428571428571,0.0004
182,1.4052087664604187,1.4989993572235107,0.5576923076923077,0.8269230769230769,0.35714285714285715,0.8571428571428571,0.0004
183,1.4483675360679626,1.275019884109497,0.5576923076923077,0.8269230769230769,0.7857142857142857,0.8571428571428571,0.0004
184,1.390734612941742,1.344655990600586,0.5384615384615384,0.8269230769230769,0.5714285714285714,0.8571428571428571,0.0004
185,1.3661930561065674,1.2627992630004883,0.5192307692307693,0.8269230769230769,0.6428571428571429,0.8571428571428571,0.0004
186,1.4122169613838196,1.5402066707611084,0.5576923076923077,0.8269230769230769,0.5,0.8571428571428571,0.0004
187,1.4955793023109436,1.467090129852295,0.46153846153846156,0.8269230769230769,0.42857142857142855,0.8571428571428571,0.0004
188,1.3096556663513184,1.5167100429534912,0.5576923076923077,0.8269230769230769,0.5714285714285714,0.8571428571428571,0.0004
189,1.4248018264770508,1.2794958353042603,0.5,0.8269230769230769,0.7142857142857143,0.8571428571428571,0.0004
190,1.338707149028778,1.465376853942871,0.5769230769230769,0.8269230769230769,0.5714285714285714,0.8571428571428571,0.0004
191,1.4151859879493713,1.3727368116378784,0.5,0.8269230769230769,0.5,0.8571428571428571,0.0004
192,1.3793028593063354,1.4315662384033203,0.4807692307692308,0.8269230769230769,0.5714285714285714,0.8571428571428571,0.0004
193,1.3000868558883667,1.329810380935669,0.5576923076923077,0.8269230769230769,0.5714285714285714,0.8571428571428571,0.0004
194,1.355499029159546,1.1155046224594116,0.5,0.8269230769230769,0.6428571428571429,0.8571428571428571,0.0004
195,1.4451984167099,1.5670585632324219,0.4230769230769231,0.8269230769230769,0.5,0.8571428571428571,0.0004
196,1.4191968441009521,1.4450392723083496,0.4807692307692308,0.8269230769230769,0.5,0.8571428571428571,0.0004
197,1.4788002371788025,1.3659518957138062,0.46153846153846156,0.8269230769230769,0.6428571428571429,0.8571428571428571,0.0004
198,1.4488846063613892,1.3653404712677002,0.4423076923076923,0.8269230769230769,0.6428571428571429,0.8571428571428571,0.0004
199,1.4006226062774658,1.3299682140350342,0.5,0.8269230769230769,0.6428571428571429,0.8571428571428571,0.0004
200,1.4454165697097778,1.4324090480804443,0.5,0.8269230769230769,0.5,0.8571428571428571,0.0004
201,1.3454862236976624,1.4291353225708008,0.5384615384615384,0.8269230769230769,0.42857142857142855,0.8571428571428571,0.0004
202,1.3246005773544312,1.3010905981063843,0.5576923076923077,0.8269230769230769,0.7142857142857143,0.8571428571428571,0.0004
203,1.3239490985870361,1.562280535697937,0.5576923076923077,0.8269230769230769,0.42857142857142855,0.8571428571428571,0.0004
204,1.3834702372550964,1.3997905254364014,0.5192307692307693,0.8269230769230769,0.7142857142857143,0.8571428571428571,0.0004
205,1.3317599296569824,1.2954068183898926,0.5961538461538461,0.8269230769230769,0.5,0.8571428571428571,0.0004
206,1.3443790078163147,1.3046057224273682,0.5,0.8269230769230769,0.6428571428571429,0.8571428571428571,0.0004
207,1.3555368185043335,1.4472105503082275,0.5192307692307693,0.8269230769230769,0.6428571428571429,0.8571428571428571,0.0004
208,1.3395265340805054,1.2669060230255127,0.6153846153846154,0.8269230769230769,0.5714285714285714,0.8571428571428571,0.0004
209,1.3721466660499573,1.3613914251327515,0.5,0.8269230769230769,0.5714285714285714,0.8571428571428571,0.0004
210,1.474791407585144,1.440147876739502,0.46153846153846156,0.8269230769230769,0.5714285714285714,0.8571428571428571,0.0004
211,1.4388245940208435,1.5647711753845215,0.5192307692307693,0.8269230769230769,0.5,0.8571428571428571,0.0004
212,1.3707160949707031,1.4741257429122925,0.5192307692307693,0.8269230769230769,0.42857142857142855,0.8571428571428571,0.0004
213,1.4016494154930115,1.3448728322982788,0.5,0.8269230769230769,0.6428571428571429,0.8571428571428571,0.0004
214,1.2664541602134705,1.279686689376831,0.6346153846153846,0.8269230769230769,0.6428571428571429,0.8571428571428571,0.0004
215,1.3979368805885315,1.77378249168396,0.5,0.8269230769230769,0.35714285714285715,0.8571428571428571,0.0004
216,1.3145575523376465,1.786757469177246,0.6346153846153846,0.8269230769230769,0.35714285714285715,0.8571428571428571,0.0004
217,1.266528606414795,1.3108786344528198,0.5576923076923077,0.8269230769230769,0.5,0.8571428571428571,0.0004
218,1.3078203797340393,1.6694018840789795,0.5,0.8269230769230769,0.35714285714285715,0.8571428571428571,0.0004
219,1.417395830154419,1.6069166660308838,0.6538461538461539,0.8269230769230769,0.35714285714285715,0.8571428571428571,0.0004
220,1.4202404618263245,1.3172334432601929,0.5,0.8269230769230769,0.6428571428571429,0.8571428571428571,0.0004
221,1.396996021270752,1.3182482719421387,0.46153846153846156,0.8269230769230769,0.6428571428571429,0.8571428571428571,0.0004
222,1.2380613088607788,1.3598929643630981,0.5576923076923077,0.8269230769230769,0.5714285714285714,0.8571428571428571,0.0004
223,1.23105388879776,1.5608800649642944,0.5769230769230769,0.8269230769230769,0.42857142857142855,0.8571428571428571,0.0004
224,1.4469621181488037,1.7812080383300781,0.5192307692307693,0.8269230769230769,0.42857142857142855,0.8571428571428571,0.0004
225,1.3932780623435974,1.417210578918457,0.4807692307692308,0.8269230769230769,0.5,0.8571428571428571,0.0004
226,1.3140093684196472,1.3125433921813965,0.5576923076923077,0.8269230769230769,0.5714285714285714,0.8571428571428571,0.0004
227,1.2598443627357483,1.5394864082336426,0.6153846153846154,0.8269230769230769,0.5714285714285714,0.8571428571428571,0.0004
228,1.5010626912117004,1.2627074718475342,0.5,0.8269230769230769,0.6428571428571429,0.8571428571428571,0.0004
229,1.3628546595573425,1.7578692436218262,0.5769230769230769,0.8269230769230769,0.42857142857142855,0.8571428571428571,0.0004
230,1.2952320575714111,1.2846022844314575,0.5576923076923077,0.8269230769230769,0.5714285714285714,0.8571428571428571,0.0004
231,1.3232773542404175,1.7594447135925293,0.5576923076923077,0.8269230769230769,0.35714285714285715,0.8571428571428571,0.0004
232,1.2752358317375183,1.2513632774353027,0.6538461538461539,0.8269230769230769,0.7142857142857143,0.8571428571428571,0.0004
233,1.4122121930122375,1.3928358554840088,0.5384615384615384,0.8269230769230769,0.7142857142857143,0.8571428571428571,0.0004
234,1.1956491470336914,1.1855379343032837,0.6538461538461539,0.8269230769230769,0.6428571428571429,0.8571428571428571,0.0004
235,1.2994070649147034,1.298210620880127,0.5769230769230769,0.8269230769230769,0.5714285714285714,0.8571428571428571,0.0004
236,1.3140389919281006,1.1682149171829224,0.6538461538461539,0.8269230769230769,0.6428571428571429,0.8571428571428571,0.0004
237,1.3871938586235046,1.5160858631134033,0.5384615384615384,0.8269230769230769,0.7142857142857143,0.8571428571428571,0.0004
238,1.1829692125320435,0.9767976999282837,0.6153846153846154,0.8269230769230769,0.7857142857142857,0.8571428571428571,0.0004
239,1.4447247385978699,1.3872835636138916,0.4807692307692308,0.8269230769230769,0.5,0.8571428571428571,0.0004
240,1.3975984454154968,1.6618319749832153,0.5384615384615384,0.8269230769230769,0.42857142857142855,0.8571428571428571,0.0004
241,1.1812700033187866,1.3288393020629883,0.6730769230769231,0.8269230769230769,0.5714285714285714,0.8571428571428571,0.0004
242,1.3136414885520935,1.019242286682129,0.6153846153846154,0.8269230769230769,0.7857142857142857,0.8571428571428571,0.0004
243,1.3688949346542358,1.3409547805786133,0.4807692307692308,0.8269230769230769,0.6428571428571429,0.8571428571428571,0.0004
244,1.288636326789856,1.5674043893814087,0.6538461538461539,0.8269230769230769,0.35714285714285715,0.8571428571428571,0.0004
245,1.4031968712806702,1.3974740505218506,0.5192307692307693,0.8269230769230769,0.5714285714285714,0.8571428571428571,0.0004
246,1.3026178479194641,1.2669386863708496,0.6538461538461539,0.8269230769230769,0.6428571428571429,0.8571428571428571,0.0004
247,1.320997178554535,1.4935829639434814,0.5961538461538461,0.8269230769230769,0.5,0.8571428571428571,0.0004
248,1.203079104423523,1.3545308113098145,0.7115384615384616,0.8269230769230769,0.7857142857142857,0.8571428571428571,0.0004
249,1.393596351146698,1.6744320392608643,0.5576923076923077,0.8269230769230769,0.2857142857142857,0.8571428571428571,0.0004
250,1.261589229106903,1.3877235651016235,0.7307692307692307,0.8269230769230769,0.5,0.8571428571428571,0.0004
251,1.1850496530532837,1.1706657409667969,0.6538461538461539,0.8269230769230769,0.7142857142857143,0.8571428571428571,0.0004
252,1.261634111404419,1.2429983615875244,0.5961538461538461,0.8269230769230769,0.5,0.8571428571428571,0.0004
253,1.306348443031311,1.22919762134552,0.5961538461538461,0.8269230769230769,0.7857142857142857,0.8571428571428571,0.0004
254,1.3516435623168945,1.5515589714050293,0.5769230769230769,0.8269230769230769,0.42857142857142855,0.8571428571428571,0.0004
255,1.200721025466919,1.7481951713562012,0.6346153846153846,0.8269230769230769,0.35714285714285715,0.8571428571428571,0.0004
256,1.327690303325653,1.5492074489593506,0.5576923076923077,0.8269230769230769,0.42857142857142855,0.8571428571428571,0.0004
257,1.1989552974700928,1.5351800918579102,0.5769230769230769,0.8269230769230769,0.42857142857142855,0.8571428571428571,0.0004
258,1.2407721877098083,1.2257933616638184,0.6730769230769231,0.8269230769230769,0.6428571428571429,0.8571428571428571,0.0004
259,1.286888837814331,1.3419458866119385,0.5961538461538461,0.8269230769230769,0.7142857142857143,0.8571428571428571,0.0004
260,1.137595295906067,1.498553991317749,0.6346153846153846,0.8269230769230769,0.5714285714285714,0.8571428571428571,0.0004
261,1.1641668677330017,1.4740914106369019,0.5961538461538461,0.8269230769230769,0.42857142857142855,0.8571428571428571,0.0004
262,1.2205350399017334,1.6809213161468506,0.5961538461538461,0.8269230769230769,0.35714285714285715,0.8571428571428571,0.0004
263,1.1840680837631226,1.0335838794708252,0.6538461538461539,0.8269230769230769,0.7142857142857143,0.8571428571428571,0.0004
264,1.2183707356452942,1.9100807905197144,0.5961538461538461,0.8269230769230769,0.35714285714285715,0.8571428571428571,0.0004
265,1.368783712387085,1.7780410051345825,0.6538461538461539,0.8269230769230769,0.42857142857142855,0.8571428571428571,0.0004
266,1.192546546459198,1.7894840240478516,0.6346153846153846,0.8269230769230769,0.35714285714285715,0.8571428571428571,0.0004
267,1.2188419103622437,2.131681442260742,0.6346153846153846,0.8269230769230769,0.2857142857142857,0.8571428571428571,0.0004
268,1.2366753816604614,1.2851898670196533,0.6346153846153846,0.8269230769230769,0.6428571428571429,0.8571428571428571,0.0004
269,1.2169304490089417,1.2728846073150635,0.5961538461538461,0.8269230769230769,0.6428571428571429,0.8571428571428571,0.0004
270,1.3722742795944214,1.1446832418441772,0.5,0.8269230769230769,0.7142857142857143,0.8571428571428571,0.0004
271,1.1135747730731964,1.5336838960647583,0.7307692307692307,0.8269230769230769,0.5,0.8571428571428571,0.0004
272,1.193875789642334,1.7334580421447754,0.5576923076923077,0.8269230769230769,0.42857142857142855,0.8571428571428571,0.0004
273,1.1683242917060852,1.8344881534576416,0.5192307692307693,0.8269230769230769,0.42857142857142855,0.8571428571428571,0.0004
274,1.3673344850540161,1.8165884017944336,0.5192307692307693,0.8269230769230769,0.42857142857142855,0.8571428571428571,0.0004
275,1.2034884691238403,1.6606316566467285,0.5961538461538461,0.8269230769230769,0.42857142857142855,0.8571428571428571,0.0004
276,1.2173605561256409,1.6459858417510986,0.6153846153846154,0.8269230769230769,0.42857142857142855,0.8571428571428571,0.0004
277,1.1630009412765503,1.706498384475708,0.5961538461538461,0.8269230769230769,0.42857142857142855,0.8571428571428571,0.0004
278,1.3066104650497437,1.7769629955291748,0.6346153846153846,0.8269230769230769,0.5,0.8571428571428571,0.0004
279,1.296092450618744,1.348466157913208,0.5961538461538461,0.8269230769230769,0.7142857142857143,0.8571428571428571,0.0004
280,1.3874077796936035,1.53675377368927,0.4807692307692308,0.8269230769230769,0.5714285714285714,0.8571428571428571,0.0004
281,1.2011293768882751,1.458829402923584,0.6346153846153846,0.8269230769230769,0.5,0.8571428571428571,0.0004
282,1.1652787923812866,1.7536463737487793,0.5576923076923077,0.8269230769230769,0.42857142857142855,0.8571428571428571,0.0004
283,1.2050091624259949,1.7834590673446655,0.5192307692307693,0.8269230769230769,0.42857142857142855,0.8571428571428571,0.0004
284,1.1801705360412598,1.569340705871582,0.6538461538461539,0.8269230769230769,0.5,0.8571428571428571,0.0004
285,1.0769413709640503,1.802790880203247,0.6538461538461539,0.8269230769230769,0.42857142857142855,0.8571428571428571,0.0004
286,1.2146605253219604,1.7888729572296143,0.5961538461538461,0.8269230769230769,0.5,0.7857142857142857,0.0004
287,1.4070696830749512,2.2153143882751465,0.5769230769230769,0.8076923076923077,0.35714285714285715,0.42857142857142855,0.0004
288,1.239439606666565,2.1695597171783447,0.5384615384615384,0.8653846153846154,0.42857142857142855,0.2857142857142857,0.0004
289,1.2111417055130005,2.004034996032715,0.6538461538461539,0.8461538461538461,0.42857142857142855,0.35714285714285715,0.0004
290,1.18507981300354,2.4021921157836914,0.6346153846153846,0.8269230769230769,0.35714285714285715,0.5,0.0004
291,1.383509635925293,2.1042253971099854,0.6153846153846154,0.8076923076923077,0.35714285714285715,0.9285714285714286,0.0004
292,1.3424012064933777,1.3281378746032715,0.6153846153846154,0.8269230769230769,0.5714285714285714,0.8571428571428571,0.0004
293,1.2730022370815277,1.4233453273773193,0.6538461538461539,0.8269230769230769,0.6428571428571429,0.8571428571428571,0.0004
294,1.3068040013313293,1.2225779294967651,0.5961538461538461,0.8269230769230769,0.6428571428571429,0.8571428571428571,0.0004
295,1.3561758995056152,2.167905569076538,0.5769230769230769,0.8269230769230769,0.35714285714285715,0.5714285714285714,0.0004
296,1.1673260927200317,2.049365520477295,0.5769230769230769,0.8269230769230769,0.35714285714285715,0.5714285714285714,0.0004
297,1.1854190826416016,1.9771091938018799,0.6538461538461539,0.8461538461538461,0.35714285714285715,0.42857142857142855,0.0004
298,1.034567505121231,1.8067092895507812,0.6538461538461539,0.8461538461538461,0.35714285714285715,0.8571428571428571,0.0004
299,1.1136590242385864,1.7736998796463013,0.6730769230769231,0.7884615384615384,0.42857142857142855,0.7857142857142857,0.0004
300,1.3208073377609253,1.7336941957473755,0.5576923076923077,0.8653846153846154,0.35714285714285715,0.7857142857142857,0.0004
301,1.328696072101593,1.6750850677490234,0.5769230769230769,0.8461538461538461,0.42857142857142855,0.7857142857142857,0.0004
302,1.3075963258743286,1.5894174575805664,0.5769230769230769,0.8269230769230769,0.42857142857142855,0.8571428571428571,0.0004
303,1.2621487379074097,1.848951816558838,0.5769230769230769,0.8269230769230769,0.35714285714285715,0.9285714285714286,0.0004
304,1.2642847895622253,2.072338342666626,0.6346153846153846,0.8461538461538461,0.35714285714285715,0.7142857142857143,0.0004
305,1.2202922701835632,1.8411142826080322,0.7115384615384616,0.8269230769230769,0.42857142857142855,0.8571428571428571,0.0004
306,1.252125322818756,1.86448335647583,0.5769230769230769,0.8461538461538461,0.42857142857142855,0.8571428571428571,0.0004
307,1.1187680959701538,1.9859099388122559,0.6538461538461539,0.7884615384615384,0.42857142857142855,0.7857142857142857,0.0004
308,1.3772426843643188,1.9443061351776123,0.5192307692307693,0.8653846153846154,0.42857142857142855,0.8571428571428571,0.0004
309,1.1814920902252197,1.742276906967163,0.6153846153846154,0.8269230769230769,0.42857142857142855,0.8571428571428571,0.0004
310,1.1610435843467712,1.7919962406158447,0.6153846153846154,0.8269230769230769,0.35714285714285715,0.8571428571428571,0.0004
311,1.2128853797912598,1.3149844408035278,0.6730769230769231,0.8269230769230769,0.5,0.8571428571428571,0.0004
312,1.2504751086235046,1.405940055847168,0.6153846153846154,0.8269230769230769,0.42857142857142855,0.8571428571428571,0.0004
313,1.3494453430175781,1.762739896774292,0.5384615384615384,0.8269230769230769,0.35714285714285715,0.8571428571428571,0.0004
314,1.2668864130973816,1.911478042602539,0.7115384615384616,0.8269230769230769,0.35714285714285715,0.8571428571428571,0.0004
315,1.2737375497817993,1.9735591411590576,0.7307692307692307,0.8653846153846154,0.42857142857142855,0.7142857142857143,0.0004
316,1.2579442262649536,2.1441092491149902,0.5961538461538461,0.8461538461538461,0.2857142857142857,0.8571428571428571,0.0004
317,1.2260292172431946,1.6923810243606567,0.5769230769230769,0.8653846153846154,0.42857142857142855,0.9285714285714286,0.0004
318,1.1740102767944336,1.4460129737854004,0.6538461538461539,0.8269230769230769,0.5,0.8571428571428571,0.0004
319,1.1397819519042969,1.3937098979949951,0.6538461538461539,0.8269230769230769,0.5,0.9285714285714286,0.0004
320,1.3244528770446777,1.4558405876159668,0.5961538461538461,0.8461538461538461,0.42857142857142855,0.9285714285714286,0.0004
321,1.3263329863548279,1.5599141120910645,0.6346153846153846,0.8653846153846154,0.42857142857142855,0.7857142857142857,0.0004
322,1.4688771963119507,1.7497495412826538,0.5,0.7692307692307693,0.5,0.7857142857142857,0.0004
323,1.1316192150115967,1.7817754745483398,0.6538461538461539,0.8461538461538461,0.35714285714285715,0.7857142857142857,0.0004
324,1.138949692249298,1.3737831115722656,0.5961538461538461,0.8653846153846154,0.7142857142857143,0.9285714285714286,0.0004
325,1.2214027047157288,1.5040491819381714,0.5961538461538461,0.8461538461538461,0.5714285714285714,0.7857142857142857,0.0004
326,1.179340124130249,2.329763889312744,0.6538461538461539,0.8269230769230769,0.2857142857142857,0.35714285714285715,0.0004
327,1.2557613849639893,2.348376750946045,0.6346153846153846,0.8269230769230769,0.35714285714285715,0.21428571428571427,0.0004
328,1.1673730611801147,2.352156400680542,0.7307692307692307,0.8653846153846154,0.35714285714285715,0.2857142857142857,0.0004
329,1.0828738808631897,2.519442319869995,0.7115384615384616,0.8076923076923077,0.35714285714285715,0.07142857142857142,0.0004
330,1.271212875843048,2.3118269443511963,0.6346153846153846,0.7692307692307693,0.2857142857142857,0.2857142857142857,0.0004
331,1.3301199078559875,2.280982255935669,0.5961538461538461,0.75,0.35714285714285715,0.21428571428571427,0.0004
332,1.3373461365699768,2.1000475883483887,0.5576923076923077,0.8461538461538461,0.42857142857142855,0.21428571428571427,0.0004
333,1.1879234313964844,1.9113454818725586,0.6538461538461539,0.8269230769230769,0.42857142857142855,0.5,0.0004
334,1.1294596195220947,1.9653775691986084,0.6730769230769231,0.75,0.35714285714285715,0.8571428571428571,0.0004
335,1.136800855398178,1.9642837047576904,0.6730769230769231,0.8269230769230769,0.35714285714285715,0.8571428571428571,0.0004
336,1.4592046737670898,1.5078487396240234,0.4423076923076923,0.8269230769230769,0.5714285714285714,0.8571428571428571,0.0004
337,1.139775812625885,1.9911832809448242,0.6538461538461539,0.8269230769230769,0.2857142857142857,0.8571428571428571,0.0004
338,1.2190929651260376,1.6784358024597168,0.6346153846153846,0.8269230769230769,0.42857142857142855,0.8571428571428571,0.0004
339,1.315479576587677,1.5636347532272339,0.5961538461538461,0.8269230769230769,0.42857142857142855,0.8571428571428571,0.0004
340,1.2557618618011475,1.9438354969024658,0.6538461538461539,0.8269230769230769,0.2857142857142857,0.8571428571428571,0.0004
341,1.1949473023414612,2.008936643600464,0.6730769230769231,0.8269230769230769,0.35714285714285715,0.7857142857142857,0.0004
342,1.3481301069259644,1.9808027744293213,0.5769230769230769,0.8461538461538461,0.2857142857142857,0.8571428571428571,0.0004
343,1.4287753701210022,1.9090614318847656,0.5384615384615384,0.8269230769230769,0.35714285714285715,0.9285714285714286,0.0004
344,1.105140209197998,1.9077365398406982,0.7307692307692307,0.8461538461538461,0.35714285714285715,0.9285714285714286,0.0004
345,1.1728026866912842,2.0847716331481934,0.5961538461538461,0.8461538461538461,0.35714285714285715,0.7857142857142857,0.0004
346,1.1789361834526062,1.7946901321411133,0.6538461538461539,0.8653846153846154,0.35714285714285715,0.7857142857142857,0.0004
347,1.1153663396835327,1.8603267669677734,0.6346153846153846,0.8269230769230769,0.35714285714285715,0.8571428571428571,0.0004
348,1.1869152188301086,1.6271651983261108,0.6538461538461539,0.8269230769230769,0.42857142857142855,0.8571428571428571,0.0004
349,1.2454514503479004,1.5007280111312866,0.5961538461538461,0.8269230769230769,0.5,0.8571428571428571,0.0004
350,1.281251847743988,1.773636817932129,0.5576923076923077,0.8461538461538461,0.2857142857142857,0.9285714285714286,0.0004
351,1.1269292831420898,1.6415343284606934,0.6730769230769231,0.8461538461538461,0.35714285714285715,0.7857142857142857,0.0004
352,1.2665544152259827,1.225905418395996,0.5961538461538461,0.8461538461538461,0.5714285714285714,0.8571428571428571,0.0004
353,1.2960720658302307,1.2426806688308716,0.6538461538461539,0.8269230769230769,0.6428571428571429,0.7857142857142857,0.0004
354,1.3666358590126038,1.482925534248352,0.5961538461538461,0.8269230769230769,0.42857142857142855,0.8571428571428571,0.0004
355,1.163996696472168,1.8066872358322144,0.5384615384615384,0.8269230769230769,0.42857142857142855,0.7857142857142857,0.0004
356,1.043784499168396,2.135082960128784,0.6538461538461539,0.8653846153846154,0.35714285714285715,0.35714285714285715,0.0004
357,1.2212472558021545,2.007359027862549,0.6538461538461539,0.7692307692307693,0.42857142857142855,0.35714285714285715,0.0004
358,1.062145859003067,2.248485803604126,0.7115384615384616,0.8653846153846154,0.35714285714285715,0.2857142857142857,0.0004
359,1.027726650238037,2.2910802364349365,0.7115384615384616,0.8076923076923077,0.35714285714285715,0.21428571428571427,0.0004
360,1.056068241596222,2.304638147354126,0.6923076923076923,0.8653846153846154,0.35714285714285715,0.14285714285714285,0.0004
361,1.2830572128295898,2.3471317291259766,0.6153846153846154,0.8269230769230769,0.35714285714285715,0.07142857142857142,0.0004
362,1.1676793694496155,2.1363697052001953,0.6346153846153846,0.7884615384615384,0.35714285714285715,0.35714285714285715,0.0004
363,1.0354405045509338,2.3423473834991455,0.7115384615384616,0.8269230769230769,0.35714285714285715,0.14285714285714285,0.0004
364,1.1412562429904938,2.2171430587768555,0.75,0.7884615384615384,0.35714285714285715,0.35714285714285715,0.0004
365,1.1352776288986206,2.3220160007476807,0.6538461538461539,0.8653846153846154,0.35714285714285715,0.21428571428571427,0.0004
366,1.139646053314209,2.285978317260742,0.6346153846153846,0.8076923076923077,0.42857142857142855,0.21428571428571427,0.0004
367,1.1762479543685913,1.8611881732940674,0.6730769230769231,0.8653846153846154,0.35714285714285715,0.6428571428571429,0.0004
368,1.1399015188217163,2.0274300575256348,0.6923076923076923,0.8653846153846154,0.35714285714285715,0.7142857142857143,0.0004
369,1.3475990891456604,2.15315318107605,0.5961538461538461,0.8269230769230769,0.2857142857142857,0.7857142857142857,0.0004
370,1.2616165280342102,1.901719570159912,0.6346153846153846,0.8269230769230769,0.42857142857142855,0.7857142857142857,0.0004
371,1.277940958738327,1.5536409616470337,0.6346153846153846,0.8269230769230769,0.5714285714285714,0.7857142857142857,0.0004
372,1.1633752584457397,2.4033637046813965,0.6153846153846154,0.8461538461538461,0.2857142857142857,0.5714285714285714,0.0004
373,1.150456726551056,1.929673433303833,0.5769230769230769,0.8461538461538461,0.42857142857142855,0.7142857142857143,0.0004
374,1.1096314191818237,2.046846628189087,0.6923076923076923,0.8076923076923077,0.35714285714285715,0.7857142857142857,0.0004
375,1.2052390575408936,2.0650954246520996,0.6538461538461539,0.8461538461538461,0.2857142857142857,0.5714285714285714,0.0004
376,1.1670734286308289,2.2313809394836426,0.6538461538461539,0.7884615384615384,0.35714285714285715,0.2857142857142857,0.0004
377,1.2610329985618591,2.0424718856811523,0.6346153846153846,0.8269230769230769,0.42857142857142855,0.5,0.0004
378,1.1133944392204285,2.0833611488342285,0.5384615384615384,0.8653846153846154,0.35714285714285715,0.35714285714285715,0.0004
379,1.3444219827651978,2.1416804790496826,0.5961538461538461,0.8076923076923077,0.35714285714285715,0.5,0.0004
380,1.3663339614868164,2.012247323989868,0.5192307692307693,0.9038461538461539,0.35714285714285715,0.7142857142857143,0.0004
381,1.1945791244506836,1.7955600023269653,0.6346153846153846,0.8269230769230769,0.42857142857142855,0.7857142857142857,0.0004
382,1.1857286095619202,1.5896105766296387,0.6153846153846154,0.8461538461538461,0.42857142857142855,0.9285714285714286,0.0004
383,1.2067885994911194,1.7861745357513428,0.6153846153846154,0.8653846153846154,0.35714285714285715,0.8571428571428571,0.0004
384,1.3142225742340088,1.7247843742370605,0.5192307692307693,0.8461538461538461,0.42857142857142855,0.7142857142857143,0.0004
385,1.2960131168365479,1.579441785812378,0.6538461538461539,0.8461538461538461,0.42857142857142855,0.7857142857142857,0.0004
386,1.1387209296226501,1.4806792736053467,0.75,0.8269230769230769,0.42857142857142855,0.7857142857142857,0.0004
387,1.2842317819595337,1.482715368270874,0.5961538461538461,0.8269230769230769,0.42857142857142855,0.9285714285714286,0.0004
388,1.1835174560546875,1.7145822048187256,0.6730769230769231,0.8269230769230769,0.35714285714285715,0.8571428571428571,0.0004
389,1.2654688954353333,1.7269821166992188,0.6730769230769231,0.8269230769230769,0.35714285714285715,0.8571428571428571,0.0004
390,1.2347778677940369,1.9607641696929932,0.5576923076923077,0.8269230769230769,0.35714285714285715,0.7142857142857143,0.0004
391,1.1978873014450073,2.2333455085754395,0.5961538461538461,0.8269230769230769,0.35714285714285715,0.21428571428571427,0.0004
392,1.0589752793312073,2.2817153930664062,0.6346153846153846,0.9038461538461539,0.35714285714285715,0.2857142857142857,0.0004
393,1.3892223834991455,2.1778817176818848,0.5961538461538461,0.75,0.35714285714285715,0.42857142857142855,0.0004
394,1.2256673574447632,2.2980947494506836,0.5576923076923077,0.8076923076923077,0.35714285714285715,0.2857142857142857,0.0004
395,1.2058950662612915,2.0540337562561035,0.6538461538461539,0.8461538461538461,0.35714285714285715,0.5,0.0004
396,1.3341495394706726,2.21738862991333,0.5961538461538461,0.8269230769230769,0.2857142857142857,0.8571428571428571,0.0004
397,1.273458182811737,1.9539086818695068,0.6153846153846154,0.8269230769230769,0.42857142857142855,0.5714285714285714,0.0004
398,1.257124423980713,2.084474802017212,0.6538461538461539,0.8653846153846154,0.42857142857142855,0.42857142857142855,0.0004
399,1.0057576298713684,2.270537853240967,0.7692307692307693,0.8653846153846154,0.35714285714285715,0.2857142857142857,0.0004
400,1.0295197367668152,2.0153703689575195,0.75,0.8076923076923077,0.42857142857142855,0.5714285714285714,0.0004
401,1.3135559558868408,2.0016629695892334,0.5961538461538461,0.8269230769230769,0.42857142857142855,0.42857142857142855,0.0004
402,1.4187427759170532,1.9200626611709595,0.6153846153846154,0.8653846153846154,0.42857142857142855,0.7142857142857143,0.0004
403,1.1201470494270325,2.0075182914733887,0.7115384615384616,0.8269230769230769,0.35714285714285715,0.8571428571428571,0.0004
404,1.0759340822696686,1.8585299253463745,0.75,0.8461538461538461,0.35714285714285715,0.8571428571428571,0.0004
405,1.2822760939598083,1.925574779510498,0.5961538461538461,0.8269230769230769,0.35714285714285715,0.9285714285714286,0.0004
406,1.1245350241661072,2.2465262413024902,0.6538461538461539,0.8269230769230769,0.2857142857142857,0.8571428571428571,0.0004
407,1.0933650732040405,1.9600894451141357,0.6923076923076923,0.8269230769230769,0.35714285714285715,0.9285714285714286,0.0004
408,1.0829930901527405,1.8739466667175293,0.6346153846153846,0.8269230769230769,0.35714285714285715,0.8571428571428571,0.0004
409,1.024411678314209,1.8835021257400513,0.7115384615384616,0.8269230769230769,0.35714285714285715,0.8571428571428571,0.0004
410,0.9838143885135651,1.8911556005477905,0.7307692307692307,0.8269230769230769,0.35714285714285715,0.7857142857142857,0.0004
411,1.1770079135894775,1.9305256605148315,0.6923076923076923,0.8269230769230769,0.35714285714285715,0.7857142857142857,0.0004
412,1.125058114528656,1.868561863899231,0.5961538461538461,0.8269230769230769,0.35714285714285715,0.7857142857142857,0.0004
413,1.1532912850379944,1.9173429012298584,0.6153846153846154,0.8461538461538461,0.2857142857142857,0.8571428571428571,0.0004
414,1.080127626657486,1.8643622398376465,0.7115384615384616,0.8076923076923077,0.35714285714285715,0.7857142857142857,0.0004
415,1.0086214542388916,1.7865276336669922,0.7307692307692307,0.8269230769230769,0.35714285714285715,0.8571428571428571,0.0004
416,1.186576247215271,1.673574686050415,0.6538461538461539,0.8269230769230769,0.5,0.8571428571428571,0.0004
417,1.118334710597992,2.0527963638305664,0.6538461538461539,0.8269230769230769,0.35714285714285715,0.8571428571428571,0.0004
418,1.2748264074325562,1.9340866804122925,0.4807692307692308,0.8076923076923077,0.42857142857142855,0.8571428571428571,0.0004
419,0.9319904446601868,1.927502155303955,0.7692307692307693,0.8461538461538461,0.35714285714285715,0.7857142857142857,0.0004
420,1.1694384217262268,1.9116885662078857,0.6730769230769231,0.8461538461538461,0.35714285714285715,0.8571428571428571,0.0004
421,1.3489435911178589,2.032923460006714,0.6153846153846154,0.8461538461538461,0.35714285714285715,0.8571428571428571,0.0004
422,1.082082450389862,2.134580135345459,0.6923076923076923,0.8653846153846154,0.35714285714285715,0.7142857142857143,0.0004
423,1.249465823173523,2.0407841205596924,0.6346153846153846,0.8076923076923077,0.35714285714285715,0.7857142857142857,0.0004
424,1.3247559070587158,2.037543296813965,0.5769230769230769,0.8846153846153846,0.42857142857142855,0.7857142857142857,0.0004
425,1.146297574043274,1.96146559715271,0.6346153846153846,0.8461538461538461,0.35714285714285715,0.7857142857142857,0.0004
426,1.3028482794761658,1.6625293493270874,0.5961538461538461,0.8269230769230769,0.2857142857142857,0.8571428571428571,0.0004
427,1.3408831357955933,1.4888161420822144,0.5961538461538461,0.8269230769230769,0.42857142857142855,0.7857142857142857,0.0004
428,1.2836918234825134,1.4547468423843384,0.5961538461538461,0.8269230769230769,0.5,0.7857142857142857,0.0004
429,1.2184191346168518,1.8479958772659302,0.5576923076923077,0.8269230769230769,0.2857142857142857,0.7857142857142857,0.0004
430,1.2214271426200867,2.48898983001709,0.6538461538461539,0.8269230769230769,0.21428571428571427,0.8571428571428571,0.0004
431,1.3690211772918701,1.9313182830810547,0.5769230769230769,0.8461538461538461,0.42857142857142855,0.5,0.0004
432,1.440690815448761,2.2472083568573,0.6346153846153846,0.75,0.35714285714285715,0.21428571428571427,0.0004
433,1.3161720633506775,2.141972780227661,0.5,0.8461538461538461,0.35714285714285715,0.21428571428571427,0.0004
434,1.2568340301513672,1.8922066688537598,0.5769230769230769,0.75,0.42857142857142855,0.5,0.0004
435,1.149554193019867,1.9971864223480225,0.6346153846153846,0.8653846153846154,0.35714285714285715,0.7142857142857143,0.0004
436,1.0704709887504578,2.0255208015441895,0.6730769230769231,0.8653846153846154,0.35714285714285715,0.7142857142857143,0.0004
437,1.1250161528587341,2.0790655612945557,0.6538461538461539,0.8653846153846154,0.35714285714285715,0.8571428571428571,0.0004
438,1.302513599395752,2.0605528354644775,0.4807692307692308,0.8461538461538461,0.2857142857142857,0.9285714285714286,0.0004
439,1.235141396522522,1.9567468166351318,0.6153846153846154,0.8269230769230769,0.35714285714285715,0.7857142857142857,0.0004
440,1.244001567363739,1.9602913856506348,0.6153846153846154,0.8269230769230769,0.35714285714285715,0.7857142857142857,0.0004
441,1.168455719947815,1.9713959693908691,0.6346153846153846,0.8269230769230769,0.35714285714285715,0.7857142857142857,0.0004
442,1.1376570463180542,1.9523214101791382,0.6538461538461539,0.8461538461538461,0.35714285714285715,0.6428571428571429,0.0004
443,1.2460782527923584,1.9543826580047607,0.5961538461538461,0.7692307692307693,0.35714285714285715,0.7857142857142857,0.0004
444,1.2938691973686218,1.9591127634048462,0.6538461538461539,0.8846153846153846,0.35714285714285715,0.7142857142857143,0.0004
445,1.1873852014541626,2.0089592933654785,0.5961538461538461,0.8461538461538461,0.35714285714285715,0.7857142857142857,0.0004
446,1.2129999995231628,1.9048287868499756,0.5769230769230769,0.8653846153846154,0.35714285714285715,0.8571428571428571,0.0004
447,1.127358078956604,1.8445552587509155,0.5961538461538461,0.8461538461538461,0.35714285714285715,0.7857142857142857,0.0004
448,1.2586459517478943,1.9360437393188477,0.5961538461538461,0.8653846153846154,0.2857142857142857,0.7857142857142857,0.0004
449,1.071021407842636,1.745998501777649,0.6923076923076923,0.8269230769230769,0.35714285714285715,0.8571428571428571,0.0004
450,1.2200785279273987,1.798140287399292,0.5576923076923077,0.8269230769230769,0.2857142857142857,0.8571428571428571,0.0004
451,1.182705044746399,1.8530607223510742,0.6346153846153846,0.8461538461538461,0.35714285714285715,0.8571428571428571,0.0004
452,1.0666916370391846,1.9420074224472046,0.6538461538461539,0.8269230769230769,0.35714285714285715,0.8571428571428571,0.0004
453,1.2633222937583923,2.008176565170288,0.6538461538461539,0.8653846153846154,0.35714285714285715,0.8571428571428571,0.0004
454,1.2987410426139832,2.2189199924468994,0.5961538461538461,0.8269230769230769,0.35714285714285715,0.2857142857142857,0.0004
455,1.140446424484253,2.15478515625,0.7307692307692307,0.8653846153846154,0.35714285714285715,0.42857142857142855,0.0004
456,1.1911851167678833,2.211711883544922,0.6153846153846154,0.8461538461538461,0.35714285714285715,0.35714285714285715,0.0004
457,1.06900292634964,2.3099160194396973,0.6346153846153846,0.8653846153846154,0.35714285714285715,0.5,0.0004
458,1.1552395820617676,2.2197659015655518,0.6538461538461539,0.7884615384615384,0.35714285714285715,0.5,0.0004
459,1.246733009815216,2.1864726543426514,0.5961538461538461,0.8653846153846154,0.35714285714285715,0.5714285714285714,0.0004
460,1.3368192911148071,2.1791563034057617,0.5961538461538461,0.8461538461538461,0.42857142857142855,0.5,0.0004
461,1.1752102971076965,2.2483482360839844,0.6153846153846154,0.8461538461538461,0.35714285714285715,0.2857142857142857,0.0004
462,1.1857857704162598,2.3007044792175293,0.6730769230769231,0.8846153846153846,0.35714285714285715,0.21428571428571427,0.0004
463,1.326667845249176,2.0751304626464844,0.6538461538461539,0.8461538461538461,0.35714285714285715,0.35714285714285715,0.0004
464,1.1078537702560425,1.7236344814300537,0.5961538461538461,0.8461538461538461,0.42857142857142855,0.9285714285714286,0.0004
465,1.1521148085594177,1.9537421464920044,0.6730769230769231,0.8461538461538461,0.35714285714285715,0.8571428571428571,0.0004
466,1.32333642244339,1.660630226135254,0.5961538461538461,0.8653846153846154,0.35714285714285715,0.8571428571428571,0.0004
467,1.2255039811134338,1.4631847143173218,0.6346153846153846,0.8269230769230769,0.35714285714285715,0.7857142857142857,0.0004
468,0.9833436012268066,1.4339534044265747,0.75,0.8269230769230769,0.35714285714285715,0.8571428571428571,0.0004
469,1.0854201912879944,1.6981642246246338,0.6730769230769231,0.8269230769230769,0.35714285714285715,0.7857142857142857,0.0004
470,1.4024876952171326,1.8162941932678223,0.5961538461538461,0.8269230769230769,0.35714285714285715,0.7857142857142857,0.0004
471,1.1672887206077576,1.9284801483154297,0.6730769230769231,0.8269230769230769,0.35714285714285715,0.8571428571428571,0.0004
472,1.0776792764663696,2.1469266414642334,0.7115384615384616,0.8461538461538461,0.35714285714285715,0.5714285714285714,0.0004
473,1.084094613790512,2.211071491241455,0.5961538461538461,0.8269230769230769,0.35714285714285715,0.42857142857142855,0.0004
474,1.1068480014801025,2.3361380100250244,0.7692307692307693,0.8076923076923077,0.35714285714285715,0.14285714285714285,0.0004
475,1.320301353931427,2.145745038986206,0.5769230769230769,0.7884615384615384,0.35714285714285715,0.35714285714285715,0.0004
476,1.1117793023586273,2.359346389770508,0.6730769230769231,0.8269230769230769,0.35714285714285715,0.14285714285714285,0.0004
477,1.1011131405830383,2.277479887008667,0.6538461538461539,0.8461538461538461,0.35714285714285715,0.21428571428571427,0.0004
478,0.9774503111839294,2.404007911682129,0.7692307692307693,0.9038461538461539,0.35714285714285715,0.14285714285714285,0.0004
479,1.3284022212028503,2.3871750831604004,0.6153846153846154,0.7115384615384616,0.35714285714285715,0.21428571428571427,0.0004
480,1.4716850519180298,2.3389105796813965,0.5769230769230769,0.7692307692307693,0.35714285714285715,0.14285714285714285,0.0004
481,0.9440434873104095,2.3441619873046875,0.6346153846153846,0.9230769230769231,0.35714285714285715,0.14285714285714285,0.0004
482,0.9790441989898682,2.258997917175293,0.7884615384615384,0.7884615384615384,0.35714285714285715,0.21428571428571427,0.0004
483,1.1388514637947083,2.204801559448242,0.7115384615384616,0.8076923076923077,0.35714285714285715,0.5,0.0004
484,1.3720062971115112,2.0921521186828613,0.5769230769230769,0.7884615384615384,0.35714285714285715,0.6428571428571429,0.0004
485,1.1040534377098083,1.8298105001449585,0.7115384615384616,0.8461538461538461,0.35714285714285715,0.7857142857142857,0.0004
486,1.1270771622657776,2.0464682579040527,0.6153846153846154,0.8076923076923077,0.35714285714285715,0.8571428571428571,0.0004
487,1.0669995546340942,1.6685925722122192,0.6923076923076923,0.8076923076923077,0.42857142857142855,0.8571428571428571,0.0004
488,1.1842633783817291,1.6327201128005981,0.6538461538461539,0.8076923076923077,0.42857142857142855,0.8571428571428571,0.0004
489,1.0592319071292877,1.5198218822479248,0.7307692307692307,0.8269230769230769,0.42857142857142855,0.7857142857142857,0.0004
490,1.2613957226276398,1.528148889541626,0.5769230769230769,0.8269230769230769,0.5,0.8571428571428571,0.0004
491,0.9913632273674011,1.6486880779266357,0.6923076923076923,0.8269230769230769,0.42857142857142855,0.8571428571428571,0.0004
492,1.02287757396698,1.8332209587097168,0.6538461538461539,0.8269230769230769,0.35714285714285715,0.7857142857142857,0.0004
493,1.2055326104164124,1.7218894958496094,0.5384615384615384,0.8269230769230769,0.35714285714285715,0.7142857142857143,0.0004
494,1.13755601644516,1.9554704427719116,0.6538461538461539,0.8461538461538461,0.35714285714285715,0.6428571428571429,0.0004
495,1.1747265458106995,2.0540642738342285,0.6538461538461539,0.8461538461538461,0.35714285714285715,0.7142857142857143,0.0004
496,1.0802249908447266,2.1215736865997314,0.6923076923076923,0.8461538461538461,0.35714285714285715,0.5,0.0004
497,1.2568862438201904,2.249620199203491,0.6538461538461539,0.8269230769230769,0.35714285714285715,0.2857142857142857,0.0004
498,1.0552472472190857,2.1537814140319824,0.6923076923076923,0.8269230769230769,0.35714285714285715,0.42857142857142855,0.0004
499,1.199652075767517,2.2816731929779053,0.6153846153846154,0.8846153846153846,0.35714285714285715,0.2857142857142857,0.0004
500,1.0772346258163452,2.2514777183532715,0.6346153846153846,0.8653846153846154,0.35714285714285715,0.21428571428571427,0.0004
501,1.1385406851768494,2.387578010559082,0.7115384615384616,0.8846153846153846,0.2857142857142857,0.21428571428571427,0.0004
502,1.1167477369308472,2.424335241317749,0.6730769230769231,0.8461538461538461,0.35714285714285715,0.2857142857142857,0.0004
503,1.1454422175884247,2.4229485988616943,0.6923076923076923,0.7884615384615384,0.35714285714285715,0.07142857142857142,0.0004
504,1.1630465388298035,2.316201686859131,0.6346153846153846,0.8076923076923077,0.35714285714285715,0.2857142857142857,0.0004
505,1.1392120122909546,2.0940797328948975,0.6730769230769231,0.7692307692307693,0.42857142857142855,0.2857142857142857,0.0004
506,1.102885127067566,2.259171485900879,0.6346153846153846,0.8653846153846154,0.35714285714285715,0.21428571428571427,0.0004
507,1.1375179886817932,2.310490846633911,0.7115384615384616,0.8269230769230769,0.35714285714285715,0.14285714285714285,0.0004
508,1.1355955600738525,2.2411818504333496,0.7307692307692307,0.8076923076923077,0.35714285714285715,0.2857142857142857,0.0004
509,1.1440508365631104,2.015484094619751,0.6538461538461539,0.8461538461538461,0.42857142857142855,0.42857142857142855,0.0004
510,1.353760004043579,2.044907569885254,0.6153846153846154,0.8076923076923077,0.35714285714285715,0.5,0.0004
511,1.1201224029064178,2.1332435607910156,0.6538461538461539,0.8461538461538461,0.35714285714285715,0.5714285714285714,0.0004
512,1.1038507223129272,2.0614027976989746,0.6923076923076923,0.7884615384615384,0.35714285714285715,0.7142857142857143,0.0004
513,1.0270165801048279,2.2964367866516113,0.75,0.8461538461538461,0.2857142857142857,0.7142857142857143,0.0004
514,1.0740941166877747,1.9561047554016113,0.6923076923076923,0.8461538461538461,0.35714285714285715,0.7857142857142857,0.0004
515,1.088304340839386,1.99395751953125,0.6538461538461539,0.8846153846153846,0.35714285714285715,0.7857142857142857,0.0004
516,0.9855274558067322,2.0274031162261963,0.7692307692307693,0.8076923076923077,0.35714285714285715,0.7857142857142857,0.0004
517,1.2010873556137085,1.944371223449707,0.6346153846153846,0.8269230769230769,0.35714285714285715,0.8571428571428571,0.0004
518,1.0862491726875305,2.029193878173828,0.6346153846153846,0.8076923076923077,0.35714285714285715,0.7857142857142857,0.0004
519,0.9639012813568115,2.063551902770996,0.7692307692307693,0.8269230769230769,0.35714285714285715,0.7857142857142857,0.0004
520,0.8623197376728058,1.8964989185333252,0.75,0.8653846153846154,0.35714285714285715,0.9285714285714286,0.0004
521,1.1098479628562927,1.9039140939712524,0.6923076923076923,0.8269230769230769,0.35714285714285715,0.8571428571428571,0.0004
522,1.0721239745616913,1.781920075416565,0.7115384615384616,0.8269230769230769,0.35714285714285715,0.8571428571428571,0.0004
523,1.38079035282135,1.902477741241455,0.6153846153846154,0.8269230769230769,0.35714285714285715,0.8571428571428571,0.0004
524,1.0683207511901855,1.987311601638794,0.6923076923076923,0.8269230769230769,0.35714285714285715,0.7857142857142857,0.0004
525,0.9744239747524261,1.8998363018035889,0.7115384615384616,0.8461538461538461,0.42857142857142855,0.8571428571428571,0.0004
526,1.0278248190879822,1.8436558246612549,0.7115384615384616,0.8461538461538461,0.42857142857142855,0.8571428571428571,0.0004
527,1.045968919992447,1.87338387966156,0.6538461538461539,0.8461538461538461,0.42857142857142855,0.7857142857142857,0.0004
528,1.4229683876037598,1.639231562614441,0.5769230769230769,0.8269230769230769,0.42857142857142855,0.7857142857142857,0.0004
529,1.0538079142570496,1.6199746131896973,0.75,0.8461538461538461,0.42857142857142855,0.7857142857142857,0.0004
530,1.0690192580223083,1.6300604343414307,0.6153846153846154,0.8846153846153846,0.5,0.8571428571428571,0.0004
531,1.1348430514335632,1.9080400466918945,0.6923076923076923,0.8653846153846154,0.35714285714285715,0.7142857142857143,0.0004
532,1.0152577757835388,1.8843140602111816,0.7115384615384616,0.8653846153846154,0.42857142857142855,0.7857142857142857,0.0004
533,0.9834679067134857,1.7391180992126465,0.7307692307692307,0.8076923076923077,0.5,0.7142857142857143,0.0004
534,1.120319813489914,2.3912835121154785,0.6923076923076923,0.8461538461538461,0.35714285714285715,0.7857142857142857,0.0004
535,1.1003310680389404,2.2596282958984375,0.6730769230769231,0.8461538461538461,0.35714285714285715,0.6428571428571429,0.0004
536,1.1878144145011902,2.2103464603424072,0.6538461538461539,0.8269230769230769,0.42857142857142855,0.7142857142857143,0.0004
537,1.249229907989502,2.2746529579162598,0.6153846153846154,0.8269230769230769,0.35714285714285715,0.5714285714285714,0.0004
538,1.276549518108368,2.003533363342285,0.5769230769230769,0.8846153846153846,0.42857142857142855,0.7142857142857143,0.0004
539,1.068970501422882,1.8756914138793945,0.6923076923076923,0.8653846153846154,0.42857142857142855,0.8571428571428571,0.0004
540,1.0457379519939423,1.4890174865722656,0.6923076923076923,0.8461538461538461,0.5,0.8571428571428571,0.0004
541,1.1984626650810242,1.8329644203186035,0.6730769230769231,0.8076923076923077,0.42857142857142855,0.7142857142857143,0.0004
542,1.1976273655891418,2.0461490154266357,0.6538461538461539,0.8461538461538461,0.35714285714285715,0.7857142857142857,0.0004
543,1.042495608329773,1.2020471096038818,0.6346153846153846,0.9038461538461539,0.6428571428571429,0.8571428571428571,0.0004
544,1.1889044642448425,1.2531187534332275,0.6538461538461539,0.8076923076923077,0.6428571428571429,0.7142857142857143,0.0004
545,1.2985467314720154,2.4402384757995605,0.5192307692307693,0.8461538461538461,0.35714285714285715,0.35714285714285715,0.0004
546,1.031013935804367,1.9987958669662476,0.7692307692307693,0.8461538461538461,0.42857142857142855,0.42857142857142855,0.0004
547,1.3285569548606873,2.4891202449798584,0.5384615384615384,0.8269230769230769,0.35714285714285715,0.14285714285714285,0.0004
548,0.9526573121547699,2.216204881668091,0.7884615384615384,0.8076923076923077,0.35714285714285715,0.2857142857142857,0.0004
549,1.219612181186676,2.1578567028045654,0.5576923076923077,0.8076923076923077,0.35714285714285715,0.5,0.0004
550,1.0010269582271576,2.092867851257324,0.6730769230769231,0.8076923076923077,0.42857142857142855,0.35714285714285715,0.0004
551,1.210432767868042,1.8474247455596924,0.6730769230769231,0.8269230769230769,0.35714285714285715,0.5714285714285714,0.0004
552,1.2430267930030823,2.155216693878174,0.5961538461538461,0.8076923076923077,0.35714285714285715,0.21428571428571427,0.0004
553,1.2627571821212769,2.4689788818359375,0.6538461538461539,0.8076923076923077,0.35714285714285715,0.14285714285714285,0.0004
554,1.181691288948059,2.193425416946411,0.6538461538461539,0.8461538461538461,0.35714285714285715,0.2857142857142857,0.0004
555,1.2038946747779846,1.8948571681976318,0.5961538461538461,0.8269230769230769,0.42857142857142855,0.6428571428571429,0.0004
556,1.2615623474121094,1.7251332998275757,0.5769230769230769,0.8269230769230769,0.35714285714285715,0.8571428571428571,0.0004
557,1.2284905910491943,1.6650471687316895,0.5961538461538461,0.8461538461538461,0.5,0.8571428571428571,0.0004
558,1.11751788854599,1.7049829959869385,0.6730769230769231,0.8461538461538461,0.42857142857142855,0.9285714285714286,0.0004
559,1.1804928183555603,1.7840509414672852,0.6153846153846154,0.8269230769230769,0.42857142857142855,0.7857142857142857,0.0004
560,1.2447242140769958,1.8605592250823975,0.6730769230769231,0.8653846153846154,0.42857142857142855,0.7142857142857143,0.0004
561,1.3184412121772766,1.9227231740951538,0.6153846153846154,0.8653846153846154,0.35714285714285715,0.7142857142857143,0.0004
562,1.0875681042671204,2.0516350269317627,0.6730769230769231,0.8846153846153846,0.35714285714285715,0.8571428571428571,0.0004
563,1.153184950351715,1.524957299232483,0.7115384615384616,0.8461538461538461,0.5,0.7857142857142857,0.0004
564,1.1546975374221802,2.10794734954834,0.5961538461538461,0.8461538461538461,0.35714285714285715,0.7857142857142857,0.0004
565,1.2689256072044373,1.4592599868774414,0.5576923076923077,0.8076923076923077,0.42857142857142855,0.9285714285714286,0.0004
566,1.1866964101791382,2.297455310821533,0.6730769230769231,0.8269230769230769,0.35714285714285715,0.7857142857142857,0.0004
567,1.1791564226150513,2.1350655555725098,0.6153846153846154,0.8269230769230769,0.35714285714285715,0.7142857142857143,0.0004
568,1.1470956206321716,1.8886711597442627,0.6730769230769231,0.8461538461538461,0.35714285714285715,0.6428571428571429,0.0004
569,1.1920441389083862,1.9076744318008423,0.6346153846153846,0.7692307692307693,0.35714285714285715,0.5714285714285714,0.0004
570,1.207294523715973,2.314523458480835,0.6153846153846154,0.8653846153846154,0.35714285714285715,0.7142857142857143,0.0004
571,1.000758707523346,2.018338203430176,0.7307692307692307,0.8461538461538461,0.35714285714285715,0.6428571428571429,0.0004
572,1.141438066959381,2.227142333984375,0.5961538461538461,0.9038461538461539,0.35714285714285715,0.35714285714285715,0.0004
573,1.114676594734192,2.0756866931915283,0.6538461538461539,0.8653846153846154,0.35714285714285715,0.42857142857142855,0.0004
574,1.2265756130218506,2.249267101287842,0.6730769230769231,0.8846153846153846,0.35714285714285715,0.21428571428571427,0.0004
575,1.1574153304100037,2.422714948654175,0.6923076923076923,0.7884615384615384,0.35714285714285715,0.21428571428571427,0.0004
576,1.0539095103740692,2.412550449371338,0.75,0.8846153846153846,0.35714285714285715,0.2857142857142857,0.0004
577,1.3089044690132141,1.9220967292785645,0.6346153846153846,0.8461538461538461,0.42857142857142855,0.5,0.0004
578,1.0808467864990234,2.357543468475342,0.6730769230769231,0.8461538461538461,0.35714285714285715,0.2857142857142857,0.0004
579,1.307385265827179,2.5690131187438965,0.6153846153846154,0.8076923076923077,0.2857142857142857,0.21428571428571427,0.0004
580,1.0200192332267761,2.004023790359497,0.7115384615384616,0.8461538461538461,0.35714285714285715,0.5,0.0004
581,1.1037741899490356,1.8950963020324707,0.6923076923076923,0.7884615384615384,0.35714285714285715,0.6428571428571429,0.0004
582,1.092821717262268,1.8657540082931519,0.6923076923076923,0.7884615384615384,0.35714285714285715,0.5,0.0004
583,1.0198341608047485,2.3002126216888428,0.6730769230769231,0.8846153846153846,0.35714285714285715,0.2857142857142857,0.0004
584,1.0039787292480469,2.3815135955810547,0.7307692307692307,0.8076923076923077,0.42857142857142855,0.21428571428571427,0.0004
585,0.9990382194519043,2.542036771774292,0.75,0.8653846153846154,0.35714285714285715,0.21428571428571427,0.0004
586,1.0547613501548767,3.0322799682617188,0.7115384615384616,0.8076923076923077,0.35714285714285715,0.07142857142857142,0.0004
587,1.2094146609306335,2.4778237342834473,0.6538461538461539,0.8269230769230769,0.35714285714285715,0.21428571428571427,0.0004
588,1.4158568978309631,2.7071235179901123,0.5576923076923077,0.7307692307692307,0.35714285714285715,0.14285714285714285,0.0004
589,1.3111827969551086,2.5948238372802734,0.5384615384615384,0.8653846153846154,0.35714285714285715,0.07142857142857142,0.0004
590,1.0808423459529877,2.5246806144714355,0.6730769230769231,0.8461538461538461,0.35714285714285715,0.14285714285714285,0.0004
591,0.8817581534385681,2.4500553607940674,0.7307692307692307,0.8653846153846154,0.35714285714285715,0.2857142857142857,0.0004
592,0.9882232546806335,2.4760565757751465,0.6923076923076923,0.8653846153846154,0.42857142857142855,0.14285714285714285,0.0004
593,1.0404289960861206,2.465178966522217,0.75,0.8269230769230769,0.35714285714285715,0.14285714285714285,0.0004
594,1.1972287893295288,2.237946033477783,0.5769230769230769,0.8076923076923077,0.42857142857142855,0.14285714285714285,0.0004
595,1.0517953038215637,2.3207509517669678,0.7115384615384616,0.8461538461538461,0.35714285714285715,0.21428571428571427,0.0004
596,1.2930244207382202,2.3231801986694336,0.6538461538461539,0.8076923076923077,0.35714285714285715,0.2857142857142857,0.0004
597,1.1636396646499634,2.138359308242798,0.6538461538461539,0.8269230769230769,0.35714285714285715,0.42857142857142855,0.0004
598,1.0806255340576172,2.048123836517334,0.7307692307692307,0.8846153846153846,0.35714285714285715,0.5,0.0004
599,1.0862371921539307,2.162149429321289,0.6923076923076923,0.8846153846153846,0.35714285714285715,0.7142857142857143,0.0004
600,1.0723438262939453,2.0661025047302246,0.6923076923076923,0.8846153846153846,0.2857142857142857,0.7857142857142857,0.0004
601,1.1993474960327148,1.9658831357955933,0.6153846153846154,0.8269230769230769,0.35714285714285715,0.8571428571428571,0.0004
602,1.1441695094108582,1.9273394346237183,0.6730769230769231,0.8269230769230769,0.42857142857142855,0.9285714285714286,0.0004
603,1.1438775658607483,1.7968313694000244,0.6923076923076923,0.8269230769230769,0.42857142857142855,0.8571428571428571,0.0004
604,1.0498098731040955,2.191236734390259,0.6538461538461539,0.8461538461538461,0.35714285714285715,0.6428571428571429,0.0004
605,1.2248364090919495,2.128399610519409,0.5576923076923077,0.8461538461538461,0.35714285714285715,0.7142857142857143,0.0004
606,1.2011266946792603,2.0609006881713867,0.6153846153846154,0.8269230769230769,0.35714285714285715,0.7142857142857143,0.0004
607,1.1789494752883911,2.1182336807250977,0.6153846153846154,0.8846153846153846,0.42857142857142855,0.7857142857142857,0.0004
608,0.9949619472026825,2.122965097427368,0.7692307692307693,0.8461538461538461,0.35714285714285715,0.7142857142857143,0.0004
609,1.1599934697151184,1.878709077835083,0.6346153846153846,0.8653846153846154,0.42857142857142855,0.6428571428571429,0.0004
610,1.0838159322738647,2.5151548385620117,0.6730769230769231,0.9038461538461539,0.35714285714285715,0.5,0.0004
611,1.3048112988471985,2.2431483268737793,0.5384615384615384,0.8653846153846154,0.35714285714285715,0.2857142857142857,0.0004
612,1.2973437309265137,2.4293792247772217,0.5961538461538461,0.7692307692307693,0.35714285714285715,0.14285714285714285,0.0004
613,1.2625280618667603,2.4281792640686035,0.6538461538461539,0.8461538461538461,0.35714285714285715,0.21428571428571427,0.0004
614,1.2555553317070007,2.3456928730010986,0.5,0.8653846153846154,0.35714285714285715,0.14285714285714285,0.0004
615,1.2819719314575195,2.429394483566284,0.5576923076923077,0.7884615384615384,0.35714285714285715,0.21428571428571427,0.0004
616,1.0778461694717407,2.226975440979004,0.7692307692307693,0.8846153846153846,0.35714285714285715,0.2857142857142857,0.0004
617,1.2005985379219055,2.234571933746338,0.5961538461538461,0.8653846153846154,0.35714285714285715,0.7142857142857143,0.0004
618,0.9462141990661621,2.1419405937194824,0.6730769230769231,0.8269230769230769,0.35714285714285715,0.7857142857142857,0.0004
619,1.3121053576469421,2.0972466468811035,0.5576923076923077,0.8269230769230769,0.35714285714285715,0.8571428571428571,0.0004
620,1.1449732184410095,2.2498717308044434,0.5769230769230769,0.8269230769230769,0.35714285714285715,0.6428571428571429,0.0004
621,1.1718247532844543,2.4520299434661865,0.5576923076923077,0.8846153846153846,0.35714285714285715,0.35714285714285715,0.0004
622,1.3170362710952759,2.3285858631134033,0.5961538461538461,0.8653846153846154,0.35714285714285715,0.21428571428571427,0.0004
623,0.9815069437026978,2.13195538520813,0.6923076923076923,0.8846153846153846,0.35714285714285715,0.35714285714285715,0.0004
624,1.272409737110138,2.2170841693878174,0.6730769230769231,0.7884615384615384,0.35714285714285715,0.35714285714285715,0.0004
625,1.0831398367881775,2.0863680839538574,0.75,0.8846153846153846,0.35714285714285715,0.42857142857142855,0.0004
626,1.1482605934143066,2.276742935180664,0.5961538461538461,0.8846153846153846,0.35714285714285715,0.21428571428571427,0.0004
627,1.1024147272109985,2.329464912414551,0.6153846153846154,0.8461538461538461,0.35714285714285715,0.2857142857142857,0.0004
628,1.276701271533966,2.0064587593078613,0.5192307692307693,0.8076923076923077,0.42857142857142855,0.42857142857142855,0.0004
629,0.9893693327903748,2.3394672870635986,0.6153846153846154,0.8269230769230769,0.35714285714285715,0.2857142857142857,0.0004
630,1.120287001132965,2.0485341548919678,0.5961538461538461,0.8076923076923077,0.42857142857142855,0.42857142857142855,0.0004
631,1.2202165722846985,2.484955310821533,0.5769230769230769,0.9230769230769231,0.35714285714285715,0.35714285714285715,0.0004
632,1.2152026891708374,2.2184183597564697,0.5961538461538461,0.8076923076923077,0.35714285714285715,0.35714285714285715,0.0004
633,1.1513400077819824,2.1175413131713867,0.6346153846153846,0.8653846153846154,0.42857142857142855,0.5,0.0004
634,1.1368401646614075,2.061379909515381,0.6538461538461539,0.8653846153846154,0.42857142857142855,0.35714285714285715,0.0004
635,1.198937177658081,2.461627960205078,0.6346153846153846,0.9038461538461539,0.35714285714285715,0.14285714285714285,0.0004
636,1.155750334262848,2.364084482192993,0.7115384615384616,0.8076923076923077,0.35714285714285715,0.2857142857142857,0.0004
637,1.3054578304290771,2.2616798877716064,0.6730769230769231,0.8461538461538461,0.42857142857142855,0.14285714285714285,0.0004
638,1.2191750407218933,2.217458486557007,0.6923076923076923,0.7884615384615384,0.35714285714285715,0.5,0.0004
639,1.0657849311828613,1.9948689937591553,0.7115384615384616,0.8076923076923077,0.42857142857142855,0.6428571428571429,0.0004
640,1.1565969586372375,2.212193489074707,0.6923076923076923,0.8076923076923077,0.35714285714285715,0.7142857142857143,0.0004
641,1.0025483965873718,2.0855469703674316,0.6923076923076923,0.8653846153846154,0.35714285714285715,0.7857142857142857,0.0004
642,1.0167155861854553,1.9310426712036133,0.6923076923076923,0.8653846153846154,0.42857142857142855,0.7142857142857143,0.0004
643,1.2553897500038147,2.042365074157715,0.6730769230769231,0.8269230769230769,0.35714285714285715,0.6428571428571429,0.0004
644,1.252290427684784,1.9608906507492065,0.6538461538461539,0.8461538461538461,0.42857142857142855,0.7857142857142857,0.0004
645,0.9905886054039001,2.2368102073669434,0.8076923076923077,0.8846153846153846,0.2857142857142857,0.6428571428571429,0.0004
646,1.0005242824554443,2.3393328189849854,0.6923076923076923,0.9230769230769231,0.35714285714285715,0.6428571428571429,0.0004
647,0.9290924966335297,2.1246087551116943,0.8269230769230769,0.8461538461538461,0.42857142857142855,0.8571428571428571,0.0004
648,1.1206006407737732,2.188516139984131,0.6730769230769231,0.8461538461538461,0.2857142857142857,0.7857142857142857,0.0004
649,1.1374068856239319,2.118269920349121,0.6346153846153846,0.8653846153846154,0.2857142857142857,0.7857142857142857,0.0004
650,1.1536258459091187,2.026719331741333,0.6346153846153846,0.9038461538461539,0.35714285714285715,0.5714285714285714,0.0004
651,0.9848401546478271,1.890432357788086,0.7692307692307693,0.9038461538461539,0.42857142857142855,0.42857142857142855,0.0004
652,0.8876900672912598,2.158560276031494,0.75,0.9038461538461539,0.2857142857142857,0.5714285714285714,0.0004
653,1.026474952697754,1.9020758867263794,0.7307692307692307,0.8846153846153846,0.42857142857142855,0.7857142857142857,0.0004
654,1.1717361807823181,1.829577922821045,0.6346153846153846,0.9038461538461539,0.35714285714285715,0.6428571428571429,0.0004
655,1.2285216450691223,1.89918851852417,0.6346153846153846,0.8653846153846154,0.35714285714285715,0.5714285714285714,0.0004
656,1.187444031238556,2.1195383071899414,0.6923076923076923,0.8846153846153846,0.42857142857142855,0.2857142857142857,0.0004
657,1.0417643785476685,2.4734551906585693,0.7307692307692307,0.8461538461538461,0.35714285714285715,0.2857142857142857,0.0004
658,1.3895253539085388,1.9308648109436035,0.46153846153846156,0.8653846153846154,0.2857142857142857,0.5,0.0004
659,1.1387700736522675,2.3091864585876465,0.7115384615384616,0.7884615384615384,0.35714285714285715,0.5,0.0004
660,1.1225830912590027,1.7290985584259033,0.7115384615384616,0.8653846153846154,0.42857142857142855,0.7857142857142857,0.0004
661,1.1784632802009583,1.789691686630249,0.6346153846153846,0.8461538461538461,0.35714285714285715,0.7142857142857143,0.0004
662,1.1405736207962036,2.059678077697754,0.5961538461538461,0.8076923076923077,0.35714285714285715,0.6428571428571429,0.0004
663,1.0464128255844116,2.075554132461548,0.75,0.8461538461538461,0.2857142857142857,0.5,0.0004
664,1.0475724041461945,2.1587092876434326,0.6730769230769231,0.8653846153846154,0.35714285714285715,0.42857142857142855,0.0004
665,0.9689486622810364,1.9294159412384033,0.6923076923076923,0.8846153846153846,0.35714285714285715,0.6428571428571429,0.0004
666,0.977393239736557,2.1529908180236816,0.6923076923076923,0.8653846153846154,0.35714285714285715,0.5714285714285714,0.0004
667,1.2058462500572205,2.1566450595855713,0.5769230769230769,0.8461538461538461,0.2857142857142857,0.6428571428571429,0.0004
668,1.1606512665748596,2.3582963943481445,0.6730769230769231,0.8461538461538461,0.35714285714285715,0.6428571428571429,0.0004
669,0.9920607805252075,1.6627171039581299,0.7307692307692307,0.8076923076923077,0.42857142857142855,0.7142857142857143,0.0004
670,1.464934229850769,2.5418882369995117,0.5576923076923077,0.8269230769230769,0.2857142857142857,0.5,0.0004
671,1.0976685881614685,1.9417617321014404,0.6346153846153846,0.8653846153846154,0.42857142857142855,0.6428571428571429,0.0004
672,1.087716281414032,1.9393913745880127,0.7692307692307693,0.8076923076923077,0.35714285714285715,0.7857142857142857,0.0004
673,1.1293307542800903,1.79009211063385,0.7115384615384616,0.8076923076923077,0.35714285714285715,0.7142857142857143,0.0004
674,1.029572606086731,2.358705997467041,0.6923076923076923,0.8269230769230769,0.2857142857142857,0.7142857142857143,0.0004
675,1.0330914855003357,2.2276058197021484,0.7115384615384616,0.8461538461538461,0.2857142857142857,0.5714285714285714,0.0004
676,1.2755551934242249,1.96451735496521,0.5576923076923077,0.8653846153846154,0.35714285714285715,0.7142857142857143,0.0004
677,1.1639260649681091,2.2147903442382812,0.6153846153846154,0.8461538461538461,0.35714285714285715,0.5,0.0004
678,1.1166650652885437,2.430593729019165,0.6153846153846154,0.9038461538461539,0.35714285714285715,0.2857142857142857,0.0004
679,1.0940465927124023,2.497892379760742,0.6923076923076923,0.8846153846153846,0.35714285714285715,0.14285714285714285,0.0004
680,0.9380879998207092,2.469472646713257,0.7884615384615384,0.8653846153846154,0.35714285714285715,0.21428571428571427,0.0004
681,1.2279157638549805,2.3314058780670166,0.6346153846153846,0.8269230769230769,0.35714285714285715,0.2857142857142857,0.0004
682,1.0312256217002869,2.3602066040039062,0.75,0.8269230769230769,0.35714285714285715,0.2857142857142857,0.0004
683,1.412583589553833,2.614701747894287,0.5192307692307693,0.8461538461538461,0.35714285714285715,0.2857142857142857,0.0004
684,1.1999870538711548,2.533633232116699,0.5961538461538461,0.8653846153846154,0.35714285714285715,0.21428571428571427,0.0004
685,1.096554696559906,2.665048122406006,0.6153846153846154,0.9230769230769231,0.35714285714285715,0.21428571428571427,0.0004
686,1.2554692029953003,2.3712329864501953,0.5961538461538461,0.9038461538461539,0.42857142857142855,0.2857142857142857,0.0004
687,0.9310551285743713,2.769773483276367,0.6538461538461539,0.9230769230769231,0.35714285714285715,0.14285714285714285,0.0004
688,1.2307683825492859,2.4041385650634766,0.5,0.8269230769230769,0.35714285714285715,0.21428571428571427,0.0004
689,1.0661832094192505,2.250872850418091,0.6346153846153846,0.8076923076923077,0.35714285714285715,0.35714285714285715,0.0004
690,1.051933765411377,2.274663209915161,0.6153846153846154,0.8653846153846154,0.35714285714285715,0.2857142857142857,0.0004
691,1.2293071448802948,2.2759220600128174,0.5961538461538461,0.8269230769230769,0.35714285714285715,0.5,0.0004
692,1.0040210783481598,2.241580009460449,0.6346153846153846,0.9230769230769231,0.35714285714285715,0.42857142857142855,0.0004
693,1.1764123439788818,2.546163558959961,0.5769230769230769,0.8653846153846154,0.35714285714285715,0.21428571428571427,0.0004
694,1.2514830231666565,2.6895768642425537,0.5576923076923077,0.8076923076923077,0.35714285714285715,0.21428571428571427,0.0004
695,1.0589870810508728,2.784367084503174,0.6730769230769231,0.8461538461538461,0.35714285714285715,0.07142857142857142,0.0004
696,1.364379346370697,2.6632533073425293,0.6538461538461539,0.75,0.35714285714285715,0.2857142857142857,0.0004
697,1.1077554821968079,2.7233054637908936,0.6538461538461539,0.8461538461538461,0.35714285714285715,0.14285714285714285,0.0004
698,1.218345284461975,2.1673223972320557,0.5961538461538461,0.8461538461538461,0.35714285714285715,0.42857142857142855,0.0004
699,1.2246167659759521,2.0803442001342773,0.5769230769230769,0.8076923076923077,0.35714285714285715,0.7857142857142857,0.0004
700,1.285529911518097,1.579420804977417,0.6153846153846154,0.8461538461538461,0.35714285714285715,0.7142857142857143,0.0004
701,1.2154945731163025,1.403752326965332,0.5769230769230769,0.8653846153846154,0.5714285714285714,0.8571428571428571,0.0004
702,1.1623305678367615,1.50285005569458,0.75,0.8076923076923077,0.5,0.9285714285714286,0.0004
703,1.1222994327545166,1.756180763244629,0.6923076923076923,0.8269230769230769,0.42857142857142855,0.7142857142857143,0.0004
704,1.038637936115265,2.3746755123138428,0.6923076923076923,0.9038461538461539,0.35714285714285715,0.5,0.0004
705,1.0390039086341858,2.0891709327697754,0.7115384615384616,0.8653846153846154,0.35714285714285715,0.42857142857142855,0.0004
706,1.0406978726387024,2.6384434700012207,0.7307692307692307,0.8269230769230769,0.2857142857142857,0.21428571428571427,0.0004
707,1.2182490229606628,2.2360587120056152,0.6153846153846154,0.8076923076923077,0.42857142857142855,0.2857142857142857,0.0004
708,1.1797402501106262,1.9953333139419556,0.7115384615384616,0.8076923076923077,0.35714285714285715,0.35714285714285715,0.0004
709,1.2112242579460144,2.1400351524353027,0.6923076923076923,0.7884615384615384,0.35714285714285715,0.35714285714285715,0.0004
710,1.1659095287322998,2.086700439453125,0.6153846153846154,0.8653846153846154,0.35714285714285715,0.6428571428571429,0.0004
711,0.973564475774765,2.1315910816192627,0.7115384615384616,0.8846153846153846,0.2857142857142857,0.7857142857142857,0.0004
712,1.2220474481582642,1.990816354751587,0.6346153846153846,0.8461538461538461,0.35714285714285715,0.7857142857142857,0.0004
713,1.2352381944656372,2.277080535888672,0.5961538461538461,0.8461538461538461,0.35714285714285715,0.7142857142857143,0.0004
714,1.1237583756446838,1.9255024194717407,0.7115384615384616,0.8461538461538461,0.35714285714285715,0.7142857142857143,0.0004
715,1.266941785812378,1.8820302486419678,0.4807692307692308,0.9230769230769231,0.35714285714285715,0.7857142857142857,0.0004
716,1.1562140583992004,1.810258388519287,0.6346153846153846,0.8076923076923077,0.35714285714285715,0.9285714285714286,0.0004
717,1.169593632221222,1.7668068408966064,0.6346153846153846,0.8461538461538461,0.35714285714285715,0.8571428571428571,0.0004
718,1.039669156074524,1.9046156406402588,0.6923076923076923,0.8461538461538461,0.2857142857142857,0.8571428571428571,0.0004
719,1.2007885575294495,1.8763182163238525,0.5961538461538461,0.8461538461538461,0.35714285714285715,0.7142857142857143,0.0004
720,1.027799367904663,1.689366340637207,0.7115384615384616,0.8076923076923077,0.35714285714285715,0.7857142857142857,0.0004
721,1.0607103407382965,1.9086040258407593,0.6153846153846154,0.8461538461538461,0.35714285714285715,0.7857142857142857,0.0004
722,1.0434415340423584,1.7256231307983398,0.7307692307692307,0.8461538461538461,0.2857142857142857,0.8571428571428571,0.0004
723,1.2021661400794983,1.628671407699585,0.6538461538461539,0.8269230769230769,0.35714285714285715,0.7857142857142857,0.0004
724,1.0569055676460266,2.2878365516662598,0.7115384615384616,0.8461538461538461,0.35714285714285715,0.7857142857142857,0.0004
725,1.1610575318336487,1.8970227241516113,0.7115384615384616,0.8653846153846154,0.42857142857142855,0.5714285714285714,0.0004
726,1.0760034322738647,1.9329867362976074,0.6730769230769231,0.9230769230769231,0.35714285714285715,0.5,0.0004
727,1.222264587879181,1.887729287147522,0.6346153846153846,0.8653846153846154,0.42857142857142855,0.5,0.0004
728,1.1002627611160278,2.1463780403137207,0.7115384615384616,0.8269230769230769,0.35714285714285715,0.42857142857142855,0.0004
729,1.1325117349624634,2.158649206161499,0.6923076923076923,0.8076923076923077,0.35714285714285715,0.42857142857142855,0.0004
730,1.2373801469802856,2.1373214721679688,0.5769230769230769,0.8269230769230769,0.35714285714285715,0.5,0.0004
731,1.230842411518097,1.876380205154419,0.6346153846153846,0.7884615384615384,0.35714285714285715,0.5714285714285714,0.0004
732,1.1151086688041687,2.1960580348968506,0.6538461538461539,0.9038461538461539,0.35714285714285715,0.2857142857142857,0.0004
733,1.199649304151535,2.1763551235198975,0.6346153846153846,0.8076923076923077,0.35714285714285715,0.42857142857142855,0.0004
734,1.0495884418487549,1.9342749118804932,0.6153846153846154,0.9038461538461539,0.35714285714285715,0.7142857142857143,0.0004
735,1.2554423809051514,1.7711929082870483,0.5384615384615384,0.8846153846153846,0.35714285714285715,0.6428571428571429,0.0004
736,1.220201849937439,1.6411025524139404,0.5769230769230769,0.8653846153846154,0.35714285714285715,0.7857142857142857,0.0004
737,1.154029667377472,1.9571287631988525,0.6538461538461539,0.8076923076923077,0.2857142857142857,0.7857142857142857,0.0004
738,1.1931248903274536,1.6657013893127441,0.6153846153846154,0.8269230769230769,0.35714285714285715,0.7857142857142857,0.0004
739,1.1664873361587524,1.7617905139923096,0.6730769230769231,0.8461538461538461,0.35714285714285715,0.7857142857142857,0.0004
740,1.1733969449996948,1.4496991634368896,0.6346153846153846,0.8846153846153846,0.5,0.8571428571428571,0.0004
741,1.1058935523033142,1.780749797821045,0.7307692307692307,0.8461538461538461,0.35714285714285715,0.7142857142857143,0.0004
742,1.121570885181427,1.293980598449707,0.6923076923076923,0.8461538461538461,0.5,0.8571428571428571,0.0004
743,1.2741511464118958,1.7017536163330078,0.6346153846153846,0.8269230769230769,0.42857142857142855,0.8571428571428571,0.0004
744,1.0768754184246063,1.9708597660064697,0.6923076923076923,0.8269230769230769,0.2857142857142857,0.7142857142857143,0.0004
745,1.0864378809928894,2.107736110687256,0.6538461538461539,0.8846153846153846,0.35714285714285715,0.35714285714285715,0.0004
746,0.9697039425373077,2.393305778503418,0.7307692307692307,0.8269230769230769,0.35714285714285715,0.35714285714285715,0.0004
747,1.2137501537799835,2.731987714767456,0.6730769230769231,0.7115384615384616,0.35714285714285715,0.14285714285714285,0.0004
748,1.2658886909484863,2.45564341545105,0.6730769230769231,0.8269230769230769,0.35714285714285715,0.21428571428571427,0.0004
749,1.2681621611118317,2.6535017490386963,0.5769230769230769,0.7884615384615384,0.35714285714285715,0.21428571428571427,0.0004
750,1.0923048555850983,2.1921348571777344,0.6730769230769231,0.8461538461538461,0.35714285714285715,0.42857142857142855,0.0004
751,1.1535336375236511,2.5120201110839844,0.6538461538461539,0.8461538461538461,0.35714285714285715,0.42857142857142855,0.0004
752,1.2066922187805176,2.2257485389709473,0.6346153846153846,0.8076923076923077,0.42857142857142855,0.42857142857142855,0.0004
753,1.4102590084075928,2.202937126159668,0.5576923076923077,0.8076923076923077,0.42857142857142855,0.35714285714285715,0.0004
754,1.2396340370178223,2.143311023712158,0.6346153846153846,0.7884615384615384,0.35714285714285715,0.42857142857142855,0.0004
755,1.0616915225982666,2.221418619155884,0.6346153846153846,0.8846153846153846,0.35714285714285715,0.6428571428571429,0.0004
756,1.0982040166854858,2.009997606277466,0.7115384615384616,0.8461538461538461,0.35714285714285715,0.7142857142857143,0.0004
757,1.1825826168060303,2.1217997074127197,0.6153846153846154,0.8461538461538461,0.35714285714285715,0.8571428571428571,0.0004
758,1.172289788722992,1.635981798171997,0.5961538461538461,0.8269230769230769,0.42857142857142855,0.8571428571428571,0.0004
759,1.2495917081832886,1.68197500705719,0.5961538461538461,0.8269230769230769,0.35714285714285715,0.8571428571428571,0.0004
760,1.331075668334961,1.9824371337890625,0.6153846153846154,0.8269230769230769,0.35714285714285715,0.7857142857142857,0.0004
761,1.0065879225730896,1.823591947555542,0.7307692307692307,0.8461538461538461,0.35714285714285715,0.7857142857142857,0.0004
762,1.1515539288520813,1.838080883026123,0.6153846153846154,0.8269230769230769,0.35714285714285715,0.8571428571428571,0.0004
763,1.1487869620323181,1.7433116436004639,0.5961538461538461,0.8269230769230769,0.35714285714285715,0.8571428571428571,0.0004
764,1.0626999735832214,1.8225867748260498,0.6730769230769231,0.9038461538461539,0.35714285714285715,0.8571428571428571,0.0004
765,1.0466614961624146,1.4782140254974365,0.7307692307692307,0.8846153846153846,0.5,0.8571428571428571,0.0004
766,1.1551817655563354,1.5619367361068726,0.6346153846153846,0.8461538461538461,0.42857142857142855,0.7857142857142857,0.0004
767,1.0184818506240845,1.687943458557129,0.6538461538461539,0.8846153846153846,0.42857142857142855,0.7857142857142857,0.0004
768,1.0278047621250153,1.6274065971374512,0.7307692307692307,0.8846153846153846,0.42857142857142855,0.8571428571428571,0.0004
769,1.2826689183712006,1.940000295639038,0.6153846153846154,0.8076923076923077,0.42857142857142855,0.5714285714285714,0.0004
770,1.180612564086914,1.754939079284668,0.6538461538461539,0.8653846153846154,0.5,0.42857142857142855,0.0004
771,1.0725810527801514,2.2055776119232178,0.6346153846153846,0.8461538461538461,0.35714285714285715,0.35714285714285715,0.0004
772,1.0614055395126343,2.1249098777770996,0.6923076923076923,0.8846153846153846,0.2857142857142857,0.5,0.0004
773,1.1108542680740356,2.0658743381500244,0.6346153846153846,0.8846153846153846,0.2857142857142857,0.7142857142857143,0.0004
774,1.226661205291748,1.9990043640136719,0.5769230769230769,0.8846153846153846,0.35714285714285715,0.5714285714285714,0.0004
775,1.0864475965499878,1.8903037309646606,0.6346153846153846,0.8846153846153846,0.35714285714285715,0.5,0.0004
776,1.2637891173362732,2.713273525238037,0.6153846153846154,0.7884615384615384,0.2857142857142857,0.21428571428571427,0.0004
777,1.1642082631587982,2.6063952445983887,0.6538461538461539,0.8653846153846154,0.35714285714285715,0.2857142857142857,0.0004
778,1.1145692467689514,2.9036803245544434,0.6923076923076923,0.8461538461538461,0.35714285714285715,0.14285714285714285,0.0004
779,1.1271670460700989,1.949626088142395,0.7307692307692307,0.8846153846153846,0.35714285714285715,0.5,0.0004
780,1.0859213471412659,2.3489108085632324,0.75,0.8076923076923077,0.35714285714285715,0.21428571428571427,0.0004
781,1.1504991948604584,1.9734772443771362,0.6153846153846154,0.7692307692307693,0.35714285714285715,0.5,0.0004
782,1.147802472114563,2.255678176879883,0.6153846153846154,0.8846153846153846,0.42857142857142855,0.42857142857142855,0.0004
783,1.0519444346427917,2.2663393020629883,0.6730769230769231,0.8269230769230769,0.35714285714285715,0.2857142857142857,0.0004
784,1.248962640762329,2.4270389080047607,0.6346153846153846,0.8269230769230769,0.42857142857142855,0.2857142857142857,0.0004
785,1.107175886631012,2.123732805252075,0.6538461538461539,0.9038461538461539,0.42857142857142855,0.35714285714285715,0.0004
786,1.1442025303840637,2.472219944000244,0.6730769230769231,0.8461538461538461,0.35714285714285715,0.5,0.0004
787,1.1543422937393188,1.853819727897644,0.6153846153846154,0.8846153846153846,0.42857142857142855,0.6428571428571429,0.0004
788,1.1369288861751556,1.8849537372589111,0.6153846153846154,0.8846153846153846,0.5,0.6428571428571429,0.0004
789,1.1345540285110474,2.4919466972351074,0.6923076923076923,0.8076923076923077,0.35714285714285715,0.7142857142857143,0.0004
790,1.0568014979362488,1.3960624933242798,0.6538461538461539,0.8846153846153846,0.5714285714285714,0.8571428571428571,0.0004
791,1.3215720653533936,1.3308987617492676,0.5192307692307693,0.8846153846153846,0.6428571428571429,0.7857142857142857,0.0004
792,1.208258867263794,1.7000603675842285,0.5384615384615384,0.8269230769230769,0.5,0.8571428571428571,0.0004
793,1.2508967518806458,1.524733543395996,0.6346153846153846,0.8269230769230769,0.7142857142857143,0.7857142857142857,0.0004
794,1.113258272409439,1.4819576740264893,0.6153846153846154,0.8461538461538461,0.5,0.8571428571428571,0.0004
795,1.0840903222560883,1.7223248481750488,0.6923076923076923,0.8461538461538461,0.5714285714285714,0.7142857142857143,0.0004
796,1.2444623708724976,2.2294390201568604,0.5384615384615384,0.8846153846153846,0.35714285714285715,0.42857142857142855,0.0004
797,1.0401087403297424,1.9396435022354126,0.7115384615384616,0.8846153846153846,0.42857142857142855,0.5,0.0004
798,1.1424758434295654,1.894530177116394,0.6538461538461539,0.8461538461538461,0.5,0.5714285714285714,0.0004
799,1.2523629665374756,2.3326210975646973,0.6346153846153846,0.75,0.35714285714285715,0.35714285714285715,0.0004
800,1.1934099793434143,2.080840587615967,0.5769230769230769,0.8461538461538461,0.42857142857142855,0.5,0.0004
801,1.2091779112815857,2.4767403602600098,0.6538461538461539,0.8461538461538461,0.35714285714285715,0.5,0.0004
802,1.207667350769043,2.236825466156006,0.5576923076923077,0.8076923076923077,0.2857142857142857,0.5714285714285714,0.0004
803,1.0343899726867676,2.1036038398742676,0.7692307692307693,0.7884615384615384,0.35714285714285715,0.6428571428571429,0.0004
804,1.0770967602729797,1.8577589988708496,0.6153846153846154,0.8461538461538461,0.2857142857142857,0.7857142857142857,0.0004
805,1.1127644777297974,1.8573923110961914,0.6346153846153846,0.8653846153846154,0.35714285714285715,0.7857142857142857,0.0004
806,1.0631636381149292,2.2463910579681396,0.6346153846153846,0.8461538461538461,0.2857142857142857,0.7142857142857143,0.0004
807,1.1217610836029053,1.7329704761505127,0.6538461538461539,0.8461538461538461,0.42857142857142855,0.7857142857142857,0.0004
808,1.125005304813385,1.9428811073303223,0.6346153846153846,0.8461538461538461,0.35714285714285715,0.7142857142857143,0.0004
809,1.100829303264618,1.899408221244812,0.6730769230769231,0.8461538461538461,0.35714285714285715,0.8571428571428571,0.0004
810,1.0568403005599976,2.078702688217163,0.7115384615384616,0.8846153846153846,0.2857142857142857,0.8571428571428571,0.0004
811,1.1967958807945251,1.6930774450302124,0.6538461538461539,0.8461538461538461,0.42857142857142855,0.6428571428571429,0.0004
812,1.0200806260108948,1.7520487308502197,0.7307692307692307,0.8461538461538461,0.5,0.9285714285714286,0.0004
813,0.9795428514480591,1.98939847946167,0.6923076923076923,0.8269230769230769,0.42857142857142855,0.7142857142857143,0.0004
814,1.1585315465927124,1.4381890296936035,0.7115384615384616,0.8653846153846154,0.5714285714285714,0.7857142857142857,0.0004
815,1.2260082960128784,2.3353757858276367,0.6346153846153846,0.8846153846153846,0.42857142857142855,0.6428571428571429,0.0004
816,1.1361504793167114,1.8743312358856201,0.6153846153846154,0.8269230769230769,0.42857142857142855,0.7857142857142857,0.0004
817,1.2282177805900574,1.9412344694137573,0.6538461538461539,0.8076923076923077,0.42857142857142855,0.7142857142857143,0.0004
818,1.2595646381378174,2.0921223163604736,0.6346153846153846,0.8269230769230769,0.42857142857142855,0.35714285714285715,0.0004
819,1.1291828155517578,2.1246297359466553,0.6153846153846154,0.8653846153846154,0.35714285714285715,0.5,0.0004
820,1.303121566772461,1.9519670009613037,0.5769230769230769,0.8653846153846154,0.42857142857142855,0.5,0.0004
821,1.1027698814868927,1.9832220077514648,0.6730769230769231,0.9038461538461539,0.2857142857142857,0.5,0.0004
822,1.1387895941734314,1.9742863178253174,0.6153846153846154,0.8461538461538461,0.42857142857142855,0.5714285714285714,0.0004
823,1.1567865908145905,1.7036333084106445,0.6730769230769231,0.8653846153846154,0.42857142857142855,0.7142857142857143,0.0004
824,1.0454500317573547,2.2315664291381836,0.6730769230769231,0.8653846153846154,0.35714285714285715,0.5,0.0004
825,1.0115287899971008,2.340543508529663,0.75,0.8269230769230769,0.35714285714285715,0.21428571428571427,0.0004
826,1.1124874949455261,2.5148959159851074,0.6538461538461539,0.8653846153846154,0.35714285714285715,0.35714285714285715,0.0004
827,0.9170641601085663,2.3246231079101562,0.7307692307692307,0.9230769230769231,0.35714285714285715,0.35714285714285715,0.0004
828,1.048230767250061,2.3386309146881104,0.6538461538461539,0.8653846153846154,0.42857142857142855,0.35714285714285715,0.0004
829,1.3073487281799316,1.9687939882278442,0.6346153846153846,0.8269230769230769,0.42857142857142855,0.6428571428571429,0.0004
830,0.9955252707004547,1.9753673076629639,0.6538461538461539,0.8269230769230769,0.5,0.6428571428571429,0.0004
831,1.2762943506240845,2.3352324962615967,0.5961538461538461,0.8269230769230769,0.35714285714285715,0.42857142857142855,0.0004
832,1.1287352442741394,2.3475799560546875,0.6730769230769231,0.9038461538461539,0.42857142857142855,0.2857142857142857,0.0004
833,1.0807123184204102,2.5511605739593506,0.6730769230769231,0.9230769230769231,0.2857142857142857,0.2857142857142857,0.0004
834,1.0421515703201294,2.318392515182495,0.6923076923076923,0.8461538461538461,0.35714285714285715,0.35714285714285715,0.0004
835,1.1353124380111694,2.6957767009735107,0.6730769230769231,0.8269230769230769,0.35714285714285715,0.35714285714285715,0.0004
836,1.063445508480072,2.5555858612060547,0.6538461538461539,0.8461538461538461,0.42857142857142855,0.42857142857142855,0.0004
837,1.1648505330085754,2.560134172439575,0.5769230769230769,0.8461538461538461,0.35714285714285715,0.42857142857142855,0.0004
838,1.0213134288787842,2.699144124984741,0.7692307692307693,0.8269230769230769,0.2857142857142857,0.2857142857142857,0.0004
839,0.9798649847507477,2.7708542346954346,0.75,0.8846153846153846,0.2857142857142857,0.42857142857142855,0.0004
840,1.1874322891235352,2.2234580516815186,0.6538461538461539,0.8461538461538461,0.35714285714285715,0.5714285714285714,0.0004
841,0.9621669054031372,2.4011592864990234,0.6730769230769231,0.8461538461538461,0.35714285714285715,0.5,0.0004
842,0.9660804271697998,2.5220754146575928,0.75,0.8846153846153846,0.42857142857142855,0.5714285714285714,0.0004
843,0.9974201321601868,2.019613742828369,0.6923076923076923,0.9038461538461539,0.42857142857142855,0.5714285714285714,0.0004
844,1.0400785207748413,2.6481080055236816,0.6923076923076923,0.8653846153846154,0.35714285714285715,0.14285714285714285,0.0004
845,1.1099730134010315,2.4450368881225586,0.75,0.8269230769230769,0.35714285714285715,0.21428571428571427,0.0004
846,1.1286041140556335,1.7523709535598755,0.7115384615384616,0.8653846153846154,0.5,0.5714285714285714,0.0004
847,0.8741778135299683,2.5801942348480225,0.7307692307692307,0.8653846153846154,0.35714285714285715,0.42857142857142855,0.0004
848,1.225643515586853,2.956481456756592,0.6153846153846154,0.8461538461538461,0.21428571428571427,0.35714285714285715,0.0004
849,1.1001983880996704,2.281360149383545,0.6923076923076923,0.8076923076923077,0.35714285714285715,0.35714285714285715,0.0004
850,1.029823213815689,2.2876980304718018,0.6923076923076923,0.8461538461538461,0.35714285714285715,0.5714285714285714,0.0004
851,1.0535546243190765,2.5349292755126953,0.5961538461538461,0.9230769230769231,0.35714285714285715,0.42857142857142855,0.0004
852,1.0917322635650635,3.0518007278442383,0.6923076923076923,0.8653846153846154,0.35714285714285715,0.21428571428571427,0.0004
853,1.3547933101654053,2.3722825050354004,0.6730769230769231,0.7884615384615384,0.35714285714285715,0.42857142857142855,0.0004
854,1.2419909238815308,2.2726662158966064,0.6153846153846154,0.8076923076923077,0.35714285714285715,0.42857142857142855,0.0004
855,1.224017322063446,2.478870391845703,0.5769230769230769,0.8461538461538461,0.35714285714285715,0.2857142857142857,0.0004
856,1.052776575088501,2.101322650909424,0.6346153846153846,0.9038461538461539,0.35714285714285715,0.5,0.0004
857,0.9810539484024048,2.2768867015838623,0.7115384615384616,0.8653846153846154,0.35714285714285715,0.7857142857142857,0.0004
858,1.3993456363677979,2.4290623664855957,0.6153846153846154,0.8269230769230769,0.35714285714285715,0.35714285714285715,0.0004
859,1.207845389842987,2.2579572200775146,0.6538461538461539,0.8461538461538461,0.35714285714285715,0.35714285714285715,0.0004
860,1.3126923441886902,2.679213285446167,0.5192307692307693,0.8461538461538461,0.35714285714285715,0.14285714285714285,0.0004
861,1.182133436203003,2.2951602935791016,0.6730769230769231,0.8269230769230769,0.35714285714285715,0.35714285714285715,0.0004
862,1.2088104784488678,2.4530889987945557,0.5769230769230769,0.7884615384615384,0.35714285714285715,0.21428571428571427,0.0004
863,1.122117817401886,2.392642021179199,0.5961538461538461,0.8076923076923077,0.35714285714285715,0.2857142857142857,0.0004
864,1.1209043264389038,2.0143136978149414,0.6730769230769231,0.8461538461538461,0.35714285714285715,0.5,0.0004
865,1.1206047534942627,2.362250328063965,0.6346153846153846,0.8653846153846154,0.35714285714285715,0.6428571428571429,0.0004
866,1.1521753072738647,2.379566192626953,0.6346153846153846,0.8846153846153846,0.2857142857142857,0.5,0.0004
867,1.3572254180908203,2.2540860176086426,0.5,0.8461538461538461,0.35714285714285715,0.6428571428571429,0.0004
868,1.205141842365265,2.087376117706299,0.5961538461538461,0.8269230769230769,0.35714285714285715,0.35714285714285715,0.0004
869,1.2726951837539673,2.441497325897217,0.5,0.8461538461538461,0.35714285714285715,0.21428571428571427,0.0004
870,1.1479066610336304,2.072263479232788,0.6923076923076923,0.9038461538461539,0.42857142857142855,0.42857142857142855,0.0004
871,1.2624354362487793,2.7381012439727783,0.6346153846153846,0.9230769230769231,0.42857142857142855,0.14285714285714285,0.0004
872,1.2301254868507385,2.617658853530884,0.5576923076923077,0.8461538461538461,0.35714285714285715,0.21428571428571427,0.0004
873,1.1472365856170654,2.58011531829834,0.5769230769230769,0.9038461538461539,0.35714285714285715,0.21428571428571427,0.0004
874,1.1859729290008545,2.2945187091827393,0.5192307692307693,0.8461538461538461,0.42857142857142855,0.35714285714285715,0.0004
875,1.2775847911834717,2.4302077293395996,0.5769230769230769,0.8653846153846154,0.35714285714285715,0.21428571428571427,0.0004
876,1.2409245371818542,2.595338821411133,0.5576923076923077,0.8653846153846154,0.35714285714285715,0.5,0.0004
877,1.2393812537193298,2.0306663513183594,0.6923076923076923,0.8461538461538461,0.42857142857142855,0.5,0.0004
878,1.1980471014976501,2.3397884368896484,0.6538461538461539,0.8461538461538461,0.35714285714285715,0.5,0.0004
879,1.1840630769729614,1.9661190509796143,0.6538461538461539,0.8269230769230769,0.42857142857142855,0.6428571428571429,0.0004
880,1.26133793592453,1.9922940731048584,0.6346153846153846,0.8461538461538461,0.42857142857142855,0.6428571428571429,0.0004
881,1.1468721628189087,2.4741907119750977,0.5961538461538461,0.8461538461538461,0.42857142857142855,0.2857142857142857,0.0004
882,0.9141491055488586,3.1442761421203613,0.7307692307692307,0.8461538461538461,0.35714285714285715,0.14285714285714285,0.0004
883,1.1482751965522766,3.5803029537200928,0.6153846153846154,0.8846153846153846,0.2857142857142857,0.07142857142857142,0.0004
884,1.3031938076019287,3.428018569946289,0.6730769230769231,0.8269230769230769,0.35714285714285715,0.07142857142857142,0.0004
885,1.2234934568405151,3.6064794063568115,0.6538461538461539,0.8269230769230769,0.2857142857142857,0.07142857142857142,0.0004
886,1.0650774836540222,2.2723612785339355,0.7307692307692307,0.8653846153846154,0.42857142857142855,0.42857142857142855,0.0004
887,1.368812382221222,2.66074538230896,0.5769230769230769,0.7884615384615384,0.35714285714285715,0.2857142857142857,0.0004
888,1.3112016916275024,1.8422367572784424,0.5961538461538461,0.8076923076923077,0.42857142857142855,0.7142857142857143,0.0004
889,1.0577671825885773,2.408029556274414,0.7115384615384616,0.9038461538461539,0.2857142857142857,0.7857142857142857,0.0004
890,1.0482702851295471,2.420734405517578,0.6346153846153846,0.8461538461538461,0.2857142857142857,0.8571428571428571,0.0004
891,1.2133461236953735,2.16770076751709,0.6923076923076923,0.8461538461538461,0.35714285714285715,0.7142857142857143,0.0004
892,1.2502015829086304,2.3007678985595703,0.6538461538461539,0.8653846153846154,0.42857142857142855,0.6428571428571429,0.0004
893,1.1251204013824463,2.154339075088501,0.7115384615384616,0.8461538461538461,0.42857142857142855,0.5714285714285714,0.0004
894,1.2352622747421265,2.11826753616333,0.5961538461538461,0.8461538461538461,0.42857142857142855,0.5714285714285714,0.0004
895,1.0243712067604065,2.1903882026672363,0.75,0.8846153846153846,0.35714285714285715,0.5714285714285714,0.0004
896,1.2297714352607727,2.2512762546539307,0.5769230769230769,0.8653846153846154,0.35714285714285715,0.5714285714285714,0.0004
897,1.0279009938240051,2.4378161430358887,0.6346153846153846,0.8461538461538461,0.35714285714285715,0.2857142857142857,0.0004
898,1.0051791965961456,2.4410061836242676,0.7115384615384616,0.8653846153846154,0.35714285714285715,0.2857142857142857,0.0004
899,1.0398244261741638,2.473848581314087,0.7115384615384616,0.8269230769230769,0.35714285714285715,0.2857142857142857,0.0004
900,1.05873641371727,2.3813509941101074,0.5961538461538461,0.8846153846153846,0.35714285714285715,0.2857142857142857,0.0004
901,1.1686602234840393,1.8588266372680664,0.6346153846153846,0.8076923076923077,0.42857142857142855,0.5714285714285714,0.0004
902,1.0834883451461792,1.9278266429901123,0.6923076923076923,0.8846153846153846,0.35714285714285715,0.8571428571428571,0.0004
903,1.2613865435123444,1.7671335935592651,0.5961538461538461,0.8461538461538461,0.5,0.6428571428571429,0.0004
904,1.1692505478858948,2.261475086212158,0.6730769230769231,0.8076923076923077,0.35714285714285715,0.5,0.0004
905,1.1662517786026,1.9709017276763916,0.5961538461538461,0.8846153846153846,0.5,0.42857142857142855,0.0004
906,1.1910656690597534,1.9793635606765747,0.6153846153846154,0.8653846153846154,0.35714285714285715,0.42857142857142855,0.0004
907,1.1107538938522339,1.9873404502868652,0.7307692307692307,0.8846153846153846,0.42857142857142855,0.42857142857142855,0.0004
908,1.074396014213562,1.9471089839935303,0.6538461538461539,0.8461538461538461,0.35714285714285715,0.5714285714285714,0.0004
909,1.2325449585914612,2.258603811264038,0.6153846153846154,0.8653846153846154,0.35714285714285715,0.35714285714285715,0.0004
910,1.0870559811592102,2.613187789916992,0.5769230769230769,0.8846153846153846,0.2857142857142857,0.2857142857142857,0.0004
911,1.0395285189151764,2.8951220512390137,0.7115384615384616,0.8653846153846154,0.2857142857142857,0.14285714285714285,0.0004
912,1.3517537117004395,2.9405972957611084,0.5961538461538461,0.8653846153846154,0.35714285714285715,0.07142857142857142,0.0004
913,1.1357036232948303,2.596334457397461,0.5769230769230769,0.9038461538461539,0.2857142857142857,0.2857142857142857,0.0004
914,1.100487768650055,2.2089433670043945,0.5961538461538461,0.9038461538461539,0.35714285714285715,0.42857142857142855,0.0004
915,1.2895947694778442,2.349752902984619,0.5769230769230769,0.8461538461538461,0.2857142857142857,0.5,0.0004
916,1.1611999869346619,2.147465705871582,0.5769230769230769,0.8461538461538461,0.35714285714285715,0.42857142857142855,0.0004
917,1.1619811654090881,2.2438864707946777,0.5384615384615384,0.8846153846153846,0.2857142857142857,0.35714285714285715,0.0004
918,1.1400142312049866,2.499955177307129,0.6346153846153846,0.8461538461538461,0.42857142857142855,0.14285714285714285,0.0004
919,1.1826004385948181,2.231661081314087,0.6346153846153846,0.8076923076923077,0.42857142857142855,0.2857142857142857,0.0004
920,0.9910838007926941,2.246408224105835,0.6730769230769231,0.8653846153846154,0.42857142857142855,0.2857142857142857,0.0004
921,1.1908725202083588,2.087906837463379,0.6730769230769231,0.8269230769230769,0.42857142857142855,0.42857142857142855,0.0004
922,0.9828967154026031,2.160705804824829,0.75,0.8846153846153846,0.42857142857142855,0.5714285714285714,0.0004
923,1.1173303723335266,2.1493749618530273,0.6730769230769231,0.8653846153846154,0.35714285714285715,0.5714285714285714,0.0004
924,1.2931839227676392,1.9404964447021484,0.6346153846153846,0.8461538461538461,0.5,0.5714285714285714,0.0004
925,1.3113974928855896,2.804083824157715,0.46153846153846156,0.8653846153846154,0.2857142857142857,0.2857142857142857,0.0004
926,0.9385494589805603,2.5886974334716797,0.6730769230769231,0.8846153846153846,0.35714285714285715,0.2857142857142857,0.0004
927,1.1277719736099243,2.750938653945923,0.6153846153846154,0.8846153846153846,0.35714285714285715,0.21428571428571427,0.0004
928,0.9687444567680359,2.6522722244262695,0.8076923076923077,0.8846153846153846,0.42857142857142855,0.21428571428571427,0.0004
929,1.3708914518356323,2.702780246734619,0.5769230769230769,0.8269230769230769,0.42857142857142855,0.21428571428571427,0.0004
930,1.2558502554893494,2.671785831451416,0.6346153846153846,0.8269230769230769,0.35714285714285715,0.2857142857142857,0.0004
931,1.0087674856185913,2.758451461791992,0.6730769230769231,0.9038461538461539,0.35714285714285715,0.21428571428571427,0.0004
932,1.197334885597229,2.555189371109009,0.6538461538461539,0.8269230769230769,0.35714285714285715,0.21428571428571427,0.0004
933,0.9139343500137329,2.808112621307373,0.6538461538461539,0.9230769230769231,0.35714285714285715,0.21428571428571427,0.0004
934,1.032202959060669,2.30499529838562,0.6730769230769231,0.8653846153846154,0.35714285714285715,0.35714285714285715,0.0004
935,1.055823266506195,2.4172005653381348,0.6730769230769231,0.8076923076923077,0.35714285714285715,0.35714285714285715,0.0004
936,1.0483752489089966,2.06559419631958,0.6538461538461539,0.8653846153846154,0.42857142857142855,0.42857142857142855,0.0004
937,1.1327813863754272,2.8682751655578613,0.6153846153846154,0.8846153846153846,0.2857142857142857,0.2857142857142857,0.0004
938,1.0093601047992706,2.8592278957366943,0.6346153846153846,0.9230769230769231,0.35714285714285715,0.21428571428571427,0.0004
939,1.051866888999939,2.8108866214752197,0.75,0.8846153846153846,0.35714285714285715,0.21428571428571427,0.0004
940,1.1115205883979797,2.916137456893921,0.6730769230769231,0.8653846153846154,0.35714285714285715,0.14285714285714285,0.0004
941,0.9158866107463837,2.257956027984619,0.7115384615384616,0.9038461538461539,0.42857142857142855,0.35714285714285715,0.0004
942,1.0491409301757812,2.722764015197754,0.6538461538461539,0.9038461538461539,0.35714285714285715,0.21428571428571427,0.0004
943,0.9444044232368469,2.6390271186828613,0.6923076923076923,0.9423076923076923,0.35714285714285715,0.2857142857142857,0.0004
944,1.2852306365966797,2.640373945236206,0.5576923076923077,0.8269230769230769,0.42857142857142855,0.2857142857142857,0.0004
945,1.2886357307434082,2.8536806106567383,0.5769230769230769,0.8461538461538461,0.35714285714285715,0.21428571428571427,0.0004
946,1.2508352994918823,3.0233123302459717,0.5769230769230769,0.8076923076923077,0.35714285714285715,0.21428571428571427,0.0004
947,1.1491525769233704,2.844909429550171,0.7115384615384616,0.7884615384615384,0.35714285714285715,0.21428571428571427,0.0004
948,1.055428683757782,2.138637065887451,0.7115384615384616,0.8846153846153846,0.42857142857142855,0.42857142857142855,0.0004
949,1.1726845502853394,2.1229429244995117,0.6730769230769231,0.8653846153846154,0.35714285714285715,0.42857142857142855,0.0004
950,1.0889997482299805,2.1623518466949463,0.6730769230769231,0.9230769230769231,0.2857142857142857,0.5714285714285714,0.0004
951,1.0193993747234344,2.007798194885254,0.6923076923076923,0.8653846153846154,0.42857142857142855,0.5714285714285714,0.0004
952,1.0776765942573547,2.4230220317840576,0.7115384615384616,0.8846153846153846,0.35714285714285715,0.7142857142857143,0.0004
953,0.9494949281215668,2.051936626434326,0.7884615384615384,0.8653846153846154,0.35714285714285715,0.6428571428571429,0.0004
954,0.9689846932888031,3.0210776329040527,0.7307692307692307,0.8846153846153846,0.35714285714285715,0.2857142857142857,0.0004
955,1.0127636194229126,2.654902696609497,0.6923076923076923,0.8653846153846154,0.2857142857142857,0.2857142857142857,0.0004
956,1.0891448259353638,2.9195780754089355,0.7115384615384616,0.8076923076923077,0.35714285714285715,0.21428571428571427,0.0004
957,0.9128274619579315,2.666069984436035,0.7307692307692307,0.9615384615384616,0.35714285714285715,0.2857142857142857,0.0004
958,1.1366405487060547,2.557746648788452,0.6538461538461539,0.8653846153846154,0.35714285714285715,0.35714285714285715,0.0004
959,1.1132017970085144,2.283644914627075,0.6153846153846154,0.8653846153846154,0.42857142857142855,0.2857142857142857,0.0004
960,1.097431719303131,2.2133736610412598,0.6153846153846154,0.8846153846153846,0.42857142857142855,0.5714285714285714,0.0004
961,1.2391989827156067,2.1874678134918213,0.6346153846153846,0.8269230769230769,0.35714285714285715,0.42857142857142855,0.0004
962,1.0811882019042969,2.4537789821624756,0.6538461538461539,0.9230769230769231,0.35714285714285715,0.35714285714285715,0.0004
963,1.3874319791793823,2.671900749206543,0.6346153846153846,0.8461538461538461,0.2857142857142857,0.35714285714285715,0.0004
964,1.150860846042633,2.026852607727051,0.6730769230769231,0.8653846153846154,0.35714285714285715,0.5714285714285714,0.0004
965,1.2324443459510803,1.5963218212127686,0.5769230769230769,0.9230769230769231,0.5,0.6428571428571429,0.0004
966,1.2325553894042969,1.8502676486968994,0.6538461538461539,0.8461538461538461,0.42857142857142855,0.8571428571428571,0.0004
967,1.1257113814353943,2.0914318561553955,0.6923076923076923,0.8269230769230769,0.21428571428571427,0.7857142857142857,0.0004
968,1.2035471498966217,1.9801386594772339,0.5961538461538461,0.8269230769230769,0.5,0.7857142857142857,0.0004
969,1.0446537733078003,1.9229801893234253,0.6538461538461539,0.8269230769230769,0.5,0.35714285714285715,0.0004
970,1.3047708868980408,2.516648530960083,0.6153846153846154,0.8846153846153846,0.42857142857142855,0.21428571428571427,0.0004
971,1.1113301515579224,2.800997018814087,0.5961538461538461,0.8653846153846154,0.35714285714285715,0.14285714285714285,0.0004
972,0.958326131105423,3.4705941677093506,0.6923076923076923,0.8653846153846154,0.2857142857142857,0.07142857142857142,0.0004
973,1.325426459312439,2.7909598350524902,0.5961538461538461,0.8076923076923077,0.35714285714285715,0.21428571428571427,0.0004
974,1.2011207342147827,2.9011831283569336,0.5961538461538461,0.8269230769230769,0.35714285714285715,0.21428571428571427,0.0004
975,1.0024622678756714,2.9130783081054688,0.6538461538461539,0.8269230769230769,0.35714285714285715,0.14285714285714285,0.0004
