epoch,train_loss,val_loss,train_acc_action,train_acc_status,val_acc_action,val_acc_status,learning_rate
1,1.8140087127685547,1.787287712097168,0.3076923076923077,0.17307692307692307,0.42857142857142855,0.14285714285714285,0.0004
2,1.797067403793335,1.768913984298706,0.3076923076923077,0.28846153846153844,0.42857142857142855,0.8571428571428571,0.0004
3,1.7713412046432495,1.750037431716919,0.3076923076923077,0.8269230769230769,0.42857142857142855,0.8571428571428571,0.0004
4,1.7516255974769592,1.7275499105453491,0.3076923076923077,0.8269230769230769,0.42857142857142855,0.8571428571428571,0.0004
5,1.7261136174201965,1.7012200355529785,0.3076923076923077,0.8269230769230769,0.42857142857142855,0.8571428571428571,0.0004
6,1.695569097995758,1.6666154861450195,0.3076923076923077,0.8269230769230769,0.42857142857142855,0.8571428571428571,0.0004
7,1.6787322759628296,1.627760410308838,0.3269230769230769,0.8269230769230769,0.21428571428571427,0.8571428571428571,0.0004
8,1.631286084651947,1.5778952836990356,0.36538461538461536,0.8269230769230769,0.21428571428571427,0.8571428571428571,0.0004
9,1.5832399129867554,1.5408064126968384,0.36538461538461536,0.8269230769230769,0.21428571428571427,0.8571428571428571,0.0004
10,1.5451078414916992,1.5718191862106323,0.36538461538461536,0.8269230769230769,0.21428571428571427,0.8571428571428571,0.0004
11,1.6105427742004395,1.5405194759368896,0.36538461538461536,0.8269230769230769,0.21428571428571427,0.8571428571428571,0.0004
12,1.5743405222892761,1.578316330909729,0.36538461538461536,0.8269230769230769,0.21428571428571427,0.8571428571428571,0.0004
13,1.5915371179580688,1.533179521560669,0.36538461538461536,0.8269230769230769,0.21428571428571427,0.8571428571428571,0.0004
14,1.6373680233955383,1.5588847398757935,0.36538461538461536,0.8269230769230769,0.21428571428571427,0.8571428571428571,0.0004
15,1.6284087300300598,1.5513889789581299,0.36538461538461536,0.8269230769230769,0.21428571428571427,0.8571428571428571,0.0004
16,1.5750872492790222,1.5356848239898682,0.36538461538461536,0.8269230769230769,0.21428571428571427,0.8571428571428571,0.0004
17,1.572730004787445,1.5423866510391235,0.36538461538461536,0.8269230769230769,0.21428571428571427,0.8571428571428571,0.0004
18,1.5593789219856262,1.55653715133667,0.36538461538461536,0.8269230769230769,0.21428571428571427,0.8571428571428571,0.0004
19,1.5781548023223877,1.5430705547332764,0.36538461538461536,0.8269230769230769,0.21428571428571427,0.8571428571428571,0.0004
20,1.5680471658706665,1.5374888181686401,0.36538461538461536,0.8269230769230769,0.21428571428571427,0.8571428571428571,0.0004
21,1.5608711242675781,1.5383704900741577,0.36538461538461536,0.8269230769230769,0.21428571428571427,0.8571428571428571,0.0004
22,1.5526244044303894,1.5392918586730957,0.36538461538461536,0.8269230769230769,0.21428571428571427,0.8571428571428571,0.0004
23,1.553661823272705,1.5388858318328857,0.36538461538461536,0.8269230769230769,0.21428571428571427,0.8571428571428571,0.0004
24,1.5745607614517212,1.540733814239502,0.36538461538461536,0.8269230769230769,0.21428571428571427,0.8571428571428571,0.0004
25,1.537842035293579,1.535300374031067,0.36538461538461536,0.8269230769230769,0.21428571428571427,0.8571428571428571,0.0004
26,1.5614995956420898,1.5381174087524414,0.36538461538461536,0.8269230769230769,0.21428571428571427,0.8571428571428571,0.0004
27,1.5285472869873047,1.536128044128418,0.36538461538461536,0.8269230769230769,0.21428571428571427,0.8571428571428571,0.0004
28,1.5449458956718445,1.538822889328003,0.36538461538461536,0.8269230769230769,0.21428571428571427,0.8571428571428571,0.0004
29,1.5532302856445312,1.538748860359192,0.36538461538461536,0.8269230769230769,0.21428571428571427,0.8571428571428571,0.0004
30,1.5463644862174988,1.538132667541504,0.36538461538461536,0.8269230769230769,0.21428571428571427,0.8571428571428571,0.0004
31,1.561099112033844,1.5342369079589844,0.36538461538461536,0.8269230769230769,0.21428571428571427,0.8571428571428571,0.0004
32,1.5788583755493164,1.5372262001037598,0.36538461538461536,0.8269230769230769,0.21428571428571427,0.8571428571428571,0.0004
33,1.5187469124794006,1.5318481922149658,0.36538461538461536,0.8269230769230769,0.21428571428571427,0.8571428571428571,0.0004
34,1.5508646965026855,1.5393342971801758,0.36538461538461536,0.8269230769230769,0.21428571428571427,0.8571428571428571,0.0004
35,1.5591761469841003,1.5401256084442139,0.36538461538461536,0.8269230769230769,0.21428571428571427,0.8571428571428571,0.0004
36,1.5632990598678589,1.53662109375,0.36538461538461536,0.8269230769230769,0.21428571428571427,0.8571428571428571,0.0004
37,1.5500062704086304,1.5404443740844727,0.36538461538461536,0.8269230769230769,0.21428571428571427,0.8571428571428571,0.0004
38,1.565873384475708,1.535625696182251,0.36538461538461536,0.8269230769230769,0.21428571428571427,0.8571428571428571,0.0004
39,1.5480040907859802,1.5386812686920166,0.36538461538461536,0.8269230769230769,0.21428571428571427,0.8571428571428571,0.0004
40,1.566035270690918,1.5407464504241943,0.36538461538461536,0.8269230769230769,0.21428571428571427,0.8571428571428571,0.0004
41,1.5314565300941467,1.5435816049575806,0.36538461538461536,0.8269230769230769,0.21428571428571427,0.8571428571428571,0.0004
42,1.5630894303321838,1.540482521057129,0.36538461538461536,0.8269230769230769,0.21428571428571427,0.8571428571428571,0.0004
43,1.5675063729286194,1.5426663160324097,0.36538461538461536,0.8269230769230769,0.21428571428571427,0.8571428571428571,0.0004
44,1.5723260045051575,1.5413546562194824,0.36538461538461536,0.8269230769230769,0.21428571428571427,0.8571428571428571,0.0004
45,1.5840038061141968,1.5390788316726685,0.36538461538461536,0.8269230769230769,0.21428571428571427,0.8571428571428571,0.0004
46,1.5653931498527527,1.539063572883606,0.36538461538461536,0.8269230769230769,0.21428571428571427,0.8571428571428571,0.0004
47,1.5322572588920593,1.5330322980880737,0.36538461538461536,0.8269230769230769,0.21428571428571427,0.8571428571428571,0.0004
48,1.5359177589416504,1.5347293615341187,0.36538461538461536,0.8269230769230769,0.21428571428571427,0.8571428571428571,0.0004
49,1.5358821749687195,1.5381377935409546,0.36538461538461536,0.8269230769230769,0.21428571428571427,0.8571428571428571,0.0004
50,1.5655796527862549,1.5350277423858643,0.36538461538461536,0.8269230769230769,0.21428571428571427,0.8571428571428571,0.0004
51,1.5777405500411987,1.5336780548095703,0.36538461538461536,0.8269230769230769,0.21428571428571427,0.8571428571428571,0.0004
52,1.5824822783470154,1.5329139232635498,0.36538461538461536,0.8269230769230769,0.21428571428571427,0.8571428571428571,0.0004
53,1.5661435723304749,1.5265436172485352,0.36538461538461536,0.8269230769230769,0.21428571428571427,0.8571428571428571,0.0004
54,1.5624630451202393,1.5314078330993652,0.36538461538461536,0.8269230769230769,0.21428571428571427,0.8571428571428571,0.0004
55,1.5478431582450867,1.5321426391601562,0.36538461538461536,0.8269230769230769,0.21428571428571427,0.8571428571428571,0.0004
56,1.5453870296478271,1.529933214187622,0.36538461538461536,0.8269230769230769,0.21428571428571427,0.8571428571428571,0.0004
57,1.5919281840324402,1.5273113250732422,0.36538461538461536,0.8269230769230769,0.21428571428571427,0.8571428571428571,0.0004
58,1.5736467242240906,1.5271823406219482,0.36538461538461536,0.8269230769230769,0.21428571428571427,0.8571428571428571,0.0004
59,1.5669846534729004,1.5301101207733154,0.36538461538461536,0.8269230769230769,0.21428571428571427,0.8571428571428571,0.0004
60,1.578451156616211,1.5317034721374512,0.36538461538461536,0.8269230769230769,0.21428571428571427,0.8571428571428571,0.0004
61,1.5654563903808594,1.5282875299453735,0.36538461538461536,0.8269230769230769,0.21428571428571427,0.8571428571428571,0.0004
62,1.5794322490692139,1.5358824729919434,0.36538461538461536,0.8269230769230769,0.21428571428571427,0.8571428571428571,0.0004
63,1.5626067519187927,1.5357191562652588,0.36538461538461536,0.8269230769230769,0.21428571428571427,0.8571428571428571,0.0004
64,1.534252107143402,1.53582763671875,0.36538461538461536,0.8269230769230769,0.21428571428571427,0.8571428571428571,0.0004
65,1.5892611742019653,1.5409444570541382,0.36538461538461536,0.8269230769230769,0.21428571428571427,0.8571428571428571,0.0004
66,1.5627516508102417,1.541096806526184,0.36538461538461536,0.8269230769230769,0.21428571428571427,0.8571428571428571,0.0004
67,1.550635814666748,1.5421431064605713,0.36538461538461536,0.8269230769230769,0.21428571428571427,0.8571428571428571,0.0004
68,1.5515766143798828,1.542487621307373,0.36538461538461536,0.8269230769230769,0.21428571428571427,0.8571428571428571,0.0004
69,1.5377617478370667,1.5485813617706299,0.36538461538461536,0.8269230769230769,0.21428571428571427,0.8571428571428571,0.0004
70,1.5627807974815369,1.5429152250289917,0.36538461538461536,0.8269230769230769,0.21428571428571427,0.8571428571428571,0.0004
71,1.5435594320297241,1.540395975112915,0.36538461538461536,0.8269230769230769,0.21428571428571427,0.8571428571428571,0.0004
72,1.539801001548767,1.5381518602371216,0.36538461538461536,0.8269230769230769,0.21428571428571427,0.8571428571428571,0.0004
73,1.535010576248169,1.5416630506515503,0.36538461538461536,0.8269230769230769,0.21428571428571427,0.8571428571428571,0.0004
74,1.56493079662323,1.535856008529663,0.36538461538461536,0.8269230769230769,0.21428571428571427,0.8571428571428571,0.0004
75,1.565290093421936,1.5482409000396729,0.36538461538461536,0.8269230769230769,0.21428571428571427,0.8571428571428571,0.0004
76,1.5527504086494446,1.544844150543213,0.36538461538461536,0.8269230769230769,0.21428571428571427,0.8571428571428571,0.0004
77,1.5708417296409607,1.54728102684021,0.36538461538461536,0.8269230769230769,0.21428571428571427,0.8571428571428571,0.0004
78,1.5438546538352966,1.5409808158874512,0.36538461538461536,0.8269230769230769,0.21428571428571427,0.8571428571428571,0.0004
79,1.5753480195999146,1.540102243423462,0.36538461538461536,0.8269230769230769,0.21428571428571427,0.8571428571428571,0.0004
80,1.5332077741622925,1.5393561124801636,0.36538461538461536,0.8269230769230769,0.21428571428571427,0.8571428571428571,0.0004
81,1.5312494039535522,1.5392727851867676,0.36538461538461536,0.8269230769230769,0.21428571428571427,0.8571428571428571,0.0004
82,1.529299795627594,1.5358951091766357,0.36538461538461536,0.8269230769230769,0.21428571428571427,0.8571428571428571,0.0004
83,1.5600258708000183,1.5348563194274902,0.36538461538461536,0.8269230769230769,0.21428571428571427,0.8571428571428571,0.0004
84,1.5613188743591309,1.5367999076843262,0.36538461538461536,0.8269230769230769,0.21428571428571427,0.8571428571428571,0.0004
85,1.541478157043457,1.5307061672210693,0.36538461538461536,0.8269230769230769,0.21428571428571427,0.8571428571428571,0.0004
86,1.532902181148529,1.5408823490142822,0.36538461538461536,0.8269230769230769,0.21428571428571427,0.8571428571428571,0.0004
87,1.5820484161376953,1.5340514183044434,0.36538461538461536,0.8269230769230769,0.21428571428571427,0.8571428571428571,0.0004
88,1.5287362337112427,1.536881685256958,0.36538461538461536,0.8269230769230769,0.21428571428571427,0.8571428571428571,0.0004
89,1.537468433380127,1.5335969924926758,0.36538461538461536,0.8269230769230769,0.21428571428571427,0.8571428571428571,0.0004
90,1.547322154045105,1.5401848554611206,0.36538461538461536,0.8269230769230769,0.21428571428571427,0.8571428571428571,0.0004
91,1.5653583407402039,1.537086009979248,0.36538461538461536,0.8269230769230769,0.21428571428571427,0.8571428571428571,0.0004
92,1.5781578421592712,1.535365104675293,0.36538461538461536,0.8269230769230769,0.21428571428571427,0.8571428571428571,0.0004
93,1.5352041721343994,1.5313140153884888,0.36538461538461536,0.8269230769230769,0.21428571428571427,0.8571428571428571,0.0004
94,1.5477572679519653,1.527871012687683,0.36538461538461536,0.8269230769230769,0.21428571428571427,0.8571428571428571,0.0004
95,1.5299433469772339,1.5360291004180908,0.36538461538461536,0.8269230769230769,0.21428571428571427,0.8571428571428571,0.0004
96,1.5725466012954712,1.5444139242172241,0.36538461538461536,0.8269230769230769,0.21428571428571427,0.8571428571428571,0.0004
97,1.5760319828987122,1.531740665435791,0.36538461538461536,0.8269230769230769,0.21428571428571427,0.8571428571428571,0.0004
98,1.529104471206665,1.538206696510315,0.36538461538461536,0.8269230769230769,0.21428571428571427,0.8571428571428571,0.0004
99,1.5098071098327637,1.539699912071228,0.36538461538461536,0.8269230769230769,0.21428571428571427,0.8571428571428571,0.0004
100,1.5320531725883484,1.5408668518066406,0.36538461538461536,0.8269230769230769,0.21428571428571427,0.8571428571428571,0.0004
101,1.5321670174598694,1.525816559791565,0.36538461538461536,0.8269230769230769,0.21428571428571427,0.8571428571428571,0.0004
102,1.6048648357391357,1.5463297367095947,0.36538461538461536,0.8269230769230769,0.21428571428571427,0.8571428571428571,0.0004
103,1.5317608714103699,1.536088466644287,0.36538461538461536,0.8269230769230769,0.21428571428571427,0.8571428571428571,0.0004
104,1.5288749933242798,1.5450433492660522,0.36538461538461536,0.8269230769230769,0.21428571428571427,0.8571428571428571,0.0004
105,1.5450535416603088,1.5365334749221802,0.36538461538461536,0.8269230769230769,0.21428571428571427,0.8571428571428571,0.0004
106,1.5927306413650513,1.541039228439331,0.36538461538461536,0.8269230769230769,0.21428571428571427,0.8571428571428571,0.0004
107,1.5418953895568848,1.5532785654067993,0.36538461538461536,0.8269230769230769,0.21428571428571427,0.8571428571428571,0.0004
108,1.5739763975143433,1.5401811599731445,0.36538461538461536,0.8269230769230769,0.21428571428571427,0.8571428571428571,0.0004
109,1.5740090012550354,1.5457130670547485,0.36538461538461536,0.8269230769230769,0.21428571428571427,0.8571428571428571,0.0004
110,1.5500056147575378,1.556166648864746,0.36538461538461536,0.8269230769230769,0.21428571428571427,0.8571428571428571,0.0004
111,1.5137774348258972,1.5555342435836792,0.36538461538461536,0.8269230769230769,0.21428571428571427,0.8571428571428571,0.0004
112,1.5508213639259338,1.5348899364471436,0.36538461538461536,0.8269230769230769,0.21428571428571427,0.8571428571428571,0.0004
113,1.5833320617675781,1.5398828983306885,0.38461538461538464,0.8269230769230769,0.21428571428571427,0.8571428571428571,0.0004
114,1.5410740375518799,1.535986065864563,0.36538461538461536,0.8269230769230769,0.2857142857142857,0.8571428571428571,0.0004
115,1.5257622599601746,1.5256576538085938,0.4423076923076923,0.8269230769230769,0.2857142857142857,0.8571428571428571,0.0004
116,1.5799787044525146,1.518201470375061,0.40384615384615385,0.8269230769230769,0.21428571428571427,0.8571428571428571,0.0004
117,1.5438443422317505,1.5627366304397583,0.46153846153846156,0.8269230769230769,0.35714285714285715,0.8571428571428571,0.0004
118,1.5611223578453064,1.5368905067443848,0.46153846153846156,0.8269230769230769,0.21428571428571427,0.8571428571428571,0.0004
119,1.5674073100090027,1.5430172681808472,0.46153846153846156,0.8269230769230769,0.35714285714285715,0.8571428571428571,0.0004
120,1.5224825143814087,1.5906931161880493,0.4807692307692308,0.8269230769230769,0.42857142857142855,0.8571428571428571,0.0004
121,1.507135272026062,1.5625096559524536,0.36538461538461536,0.8269230769230769,0.21428571428571427,0.8571428571428571,0.0004
122,1.5422461032867432,1.5844427347183228,0.40384615384615385,0.8269230769230769,0.35714285714285715,0.8571428571428571,0.0004
123,1.52851140499115,1.47507905960083,0.4230769230769231,0.8269230769230769,0.42857142857142855,0.8571428571428571,0.0004
124,1.563200056552887,1.5138473510742188,0.4807692307692308,0.8269230769230769,0.35714285714285715,0.8571428571428571,0.0004
125,1.5737348794937134,1.502341389656067,0.5,0.8269230769230769,0.35714285714285715,0.8571428571428571,0.0004
126,1.4895827770233154,1.5452073812484741,0.46153846153846156,0.8269230769230769,0.21428571428571427,0.8571428571428571,0.0004
127,1.5421171188354492,1.5668987035751343,0.36538461538461536,0.8269230769230769,0.21428571428571427,0.8571428571428571,0.0004
128,1.5964531898498535,1.5615742206573486,0.40384615384615385,0.8269230769230769,0.35714285714285715,0.8571428571428571,0.0004
129,1.5694217681884766,1.5388553142547607,0.36538461538461536,0.8269230769230769,0.21428571428571427,0.8571428571428571,0.0004
130,1.5222168564796448,1.5727616548538208,0.46153846153846156,0.8269230769230769,0.21428571428571427,0.8571428571428571,0.0004
131,1.5464458465576172,1.5815708637237549,0.38461538461538464,0.8269230769230769,0.21428571428571427,0.8571428571428571,0.0004
132,1.5775668621063232,1.59501051902771,0.36538461538461536,0.8269230769230769,0.21428571428571427,0.8571428571428571,0.0004
133,1.5680681467056274,1.5981121063232422,0.36538461538461536,0.8269230769230769,0.21428571428571427,0.8571428571428571,0.0004
134,1.5758327841758728,1.605989694595337,0.36538461538461536,0.8269230769230769,0.21428571428571427,0.8571428571428571,0.0004
135,1.5865262150764465,1.5923027992248535,0.36538461538461536,0.8269230769230769,0.21428571428571427,0.8571428571428571,0.0004
136,1.5603513717651367,1.5950099229812622,0.36538461538461536,0.8269230769230769,0.21428571428571427,0.8571428571428571,0.0004
137,1.5455185770988464,1.568286418914795,0.36538461538461536,0.8269230769230769,0.21428571428571427,0.8571428571428571,0.0004
138,1.5603099465370178,1.5673878192901611,0.36538461538461536,0.8269230769230769,0.21428571428571427,0.8571428571428571,0.0004
139,1.5507861971855164,1.5505924224853516,0.36538461538461536,0.8269230769230769,0.21428571428571427,0.8571428571428571,0.0004
140,1.5617278814315796,1.5451834201812744,0.38461538461538464,0.8269230769230769,0.35714285714285715,0.8571428571428571,0.0004
141,1.5642765760421753,1.5082238912582397,0.46153846153846156,0.8269230769230769,0.35714285714285715,0.8571428571428571,0.0004
142,1.5471684336662292,1.5219738483428955,0.34615384615384615,0.8269230769230769,0.2857142857142857,0.8571428571428571,0.0004
143,1.49957275390625,1.5021461248397827,0.3076923076923077,0.8269230769230769,0.2857142857142857,0.8571428571428571,0.0004
144,1.5004929900169373,1.5054378509521484,0.28846153846153844,0.8269230769230769,0.21428571428571427,0.8571428571428571,0.0004
145,1.5697550177574158,1.5263597965240479,0.3076923076923077,0.8269230769230769,0.2857142857142857,0.8571428571428571,0.0004
146,1.5645314455032349,1.523221731185913,0.3076923076923077,0.8269230769230769,0.2857142857142857,0.8571428571428571,0.0004
147,1.5160654783248901,1.5089707374572754,0.36538461538461536,0.8269230769230769,0.2857142857142857,0.8571428571428571,0.0004
148,1.5613091588020325,1.515586018562317,0.5,0.8269230769230769,0.42857142857142855,0.8571428571428571,0.0004
149,1.5413140654563904,1.5429325103759766,0.40384615384615385,0.8269230769230769,0.21428571428571427,0.8571428571428571,0.0004
150,1.5571992993354797,1.5327210426330566,0.36538461538461536,0.8269230769230769,0.21428571428571427,0.8571428571428571,0.0004
151,1.549720287322998,1.5320910215377808,0.36538461538461536,0.8269230769230769,0.21428571428571427,0.8571428571428571,0.0004
152,1.5569403171539307,1.5358375310897827,0.36538461538461536,0.8269230769230769,0.21428571428571427,0.8571428571428571,0.0004
153,1.5805290937423706,1.553882122039795,0.36538461538461536,0.8269230769230769,0.21428571428571427,0.8571428571428571,0.0004
154,1.5583171248435974,1.570966362953186,0.36538461538461536,0.8269230769230769,0.21428571428571427,0.8571428571428571,0.0004
155,1.5487017631530762,1.5583174228668213,0.36538461538461536,0.8269230769230769,0.21428571428571427,0.8571428571428571,0.0004
156,1.5700821280479431,1.556997537612915,0.36538461538461536,0.8269230769230769,0.21428571428571427,0.8571428571428571,0.0004
157,1.525334894657135,1.5635085105895996,0.36538461538461536,0.8269230769230769,0.21428571428571427,0.8571428571428571,0.0004
158,1.541111946105957,1.5656874179840088,0.36538461538461536,0.8269230769230769,0.21428571428571427,0.8571428571428571,0.0004
159,1.5470538139343262,1.5563809871673584,0.36538461538461536,0.8269230769230769,0.21428571428571427,0.8571428571428571,0.0004
160,1.5478987097740173,1.5442390441894531,0.36538461538461536,0.8269230769230769,0.21428571428571427,0.8571428571428571,0.0004
161,1.5548135638237,1.554927110671997,0.36538461538461536,0.8269230769230769,0.21428571428571427,0.8571428571428571,0.0004
162,1.5605555772781372,1.5299261808395386,0.36538461538461536,0.8269230769230769,0.21428571428571427,0.8571428571428571,0.0004
163,1.5531741380691528,1.5264999866485596,0.46153846153846156,0.8269230769230769,0.35714285714285715,0.8571428571428571,0.0004
164,1.5451204776763916,1.5374854803085327,0.40384615384615385,0.8269230769230769,0.2857142857142857,0.8571428571428571,0.0004
165,1.5594432353973389,1.5347959995269775,0.46153846153846156,0.8269230769230769,0.2857142857142857,0.8571428571428571,0.0004
166,1.541065514087677,1.5237013101577759,0.46153846153846156,0.8269230769230769,0.42857142857142855,0.8571428571428571,0.0004
167,1.5742121934890747,1.5273005962371826,0.40384615384615385,0.8269230769230769,0.35714285714285715,0.8571428571428571,0.0004
168,1.5231000781059265,1.5096592903137207,0.40384615384615385,0.8269230769230769,0.35714285714285715,0.8571428571428571,0.0004
169,1.5437179207801819,1.526864767074585,0.40384615384615385,0.8269230769230769,0.42857142857142855,0.8571428571428571,0.0004
170,1.5400181412696838,1.5265758037567139,0.4423076923076923,0.8269230769230769,0.21428571428571427,0.8571428571428571,0.0004
171,1.5560514330863953,1.5352007150650024,0.5,0.8269230769230769,0.2857142857142857,0.8571428571428571,0.0004
172,1.5343910455703735,1.5369011163711548,0.5,0.8269230769230769,0.21428571428571427,0.8571428571428571,0.0004
173,1.5073278546333313,1.5288376808166504,0.5192307692307693,0.8269230769230769,0.42857142857142855,0.8571428571428571,0.0004
174,1.5377306938171387,1.535334825515747,0.46153846153846156,0.8269230769230769,0.2857142857142857,0.8571428571428571,0.0004
175,1.538806676864624,1.5140105485916138,0.5192307692307693,0.8269230769230769,0.35714285714285715,0.8571428571428571,0.0004
176,1.5427011251449585,1.5163424015045166,0.5,0.8269230769230769,0.42857142857142855,0.8571428571428571,0.0004
177,1.5316866636276245,1.519151210784912,0.46153846153846156,0.8269230769230769,0.5,0.8571428571428571,0.0004
178,1.5501842498779297,1.5192363262176514,0.4807692307692308,0.8269230769230769,0.5,0.8571428571428571,0.0004
179,1.5088096261024475,1.529536247253418,0.46153846153846156,0.8269230769230769,0.35714285714285715,0.8571428571428571,0.0004
180,1.5621423125267029,1.557816982269287,0.46153846153846156,0.8269230769230769,0.2857142857142857,0.8571428571428571,0.0004
181,1.540252923965454,1.5472261905670166,0.40384615384615385,0.8269230769230769,0.2857142857142857,0.8571428571428571,0.0004
182,1.51094251871109,1.497934103012085,0.46153846153846156,0.8269230769230769,0.5,0.8571428571428571,0.0004
183,1.4777905344963074,1.5533208847045898,0.5,0.8269230769230769,0.35714285714285715,0.8571428571428571,0.0004
184,1.5276449918746948,1.47414231300354,0.38461538461538464,0.8269230769230769,0.5,0.8571428571428571,0.0004
185,1.5092163681983948,1.4756474494934082,0.46153846153846156,0.8269230769230769,0.42857142857142855,0.8571428571428571,0.0004
186,1.540783703327179,1.5255810022354126,0.3269230769230769,0.8269230769230769,0.35714285714285715,0.8571428571428571,0.0004
187,1.5473929643630981,1.5239002704620361,0.3076923076923077,0.8269230769230769,0.35714285714285715,0.8571428571428571,0.0004
188,1.5341761112213135,1.589917778968811,0.36538461538461536,0.8269230769230769,0.2857142857142857,0.8571428571428571,0.0004
189,1.4937201738357544,1.6404322385787964,0.4807692307692308,0.8269230769230769,0.2857142857142857,0.8571428571428571,0.0004
190,1.5158473253250122,1.6580926179885864,0.4230769230769231,0.8269230769230769,0.21428571428571427,0.8571428571428571,0.0004
191,1.5778430104255676,1.7112151384353638,0.36538461538461536,0.8269230769230769,0.21428571428571427,0.8571428571428571,0.0004
192,1.588897705078125,1.724165439605713,0.36538461538461536,0.8269230769230769,0.21428571428571427,0.8571428571428571,0.0004
193,1.612241506576538,1.5473949909210205,0.36538461538461536,0.8269230769230769,0.21428571428571427,0.8571428571428571,0.0004
194,1.5708297491073608,1.5800070762634277,0.36538461538461536,0.8269230769230769,0.2857142857142857,0.8571428571428571,0.0004
195,1.547953724861145,1.5679540634155273,0.38461538461538464,0.8269230769230769,0.6428571428571429,0.8571428571428571,0.0004
196,1.520901381969452,1.547817587852478,0.4230769230769231,0.8269230769230769,0.35714285714285715,0.8571428571428571,0.0004
197,1.5567512512207031,1.5535329580307007,0.40384615384615385,0.8269230769230769,0.14285714285714285,0.8571428571428571,0.0004
198,1.5432755947113037,1.5270814895629883,0.4230769230769231,0.8269230769230769,0.5,0.8571428571428571,0.0004
199,1.518512785434723,1.463865876197815,0.46153846153846156,0.8269230769230769,0.5714285714285714,0.8571428571428571,0.0004
200,1.4896395206451416,1.5266188383102417,0.4807692307692308,0.8269230769230769,0.5,0.8571428571428571,0.0004
201,1.5030193328857422,1.5239561796188354,0.4423076923076923,0.8269230769230769,0.2857142857142857,0.8571428571428571,0.0004
202,1.5215886235237122,1.582317590713501,0.4807692307692308,0.8269230769230769,0.42857142857142855,0.8571428571428571,0.0004
203,1.5714612007141113,1.586626410484314,0.5192307692307693,0.8269230769230769,0.2857142857142857,0.8571428571428571,0.0004
204,1.5447445511817932,1.5798242092132568,0.4807692307692308,0.8269230769230769,0.42857142857142855,0.8571428571428571,0.0004
205,1.5517916083335876,1.5880653858184814,0.5,0.8269230769230769,0.5,0.8571428571428571,0.0004
206,1.4930474758148193,1.5442272424697876,0.5769230769230769,0.8269230769230769,0.5,0.8571428571428571,0.0004
207,1.4624503254890442,1.6304277181625366,0.5384615384615384,0.8269230769230769,0.35714285714285715,0.8571428571428571,0.0004
208,1.4529659748077393,1.5318186283111572,0.6153846153846154,0.8269230769230769,0.42857142857142855,0.8571428571428571,0.0004
209,1.5174618363380432,1.5130057334899902,0.46153846153846156,0.8269230769230769,0.2857142857142857,0.8571428571428571,0.0004
210,1.5035974383354187,1.4606690406799316,0.46153846153846156,0.8269230769230769,0.5,0.8571428571428571,0.0004
211,1.4769782423973083,1.59852933883667,0.4807692307692308,0.8269230769230769,0.2857142857142857,0.8571428571428571,0.0004
212,1.5162394046783447,1.6054744720458984,0.4423076923076923,0.8269230769230769,0.2857142857142857,0.8571428571428571,0.0004
213,1.5141199827194214,1.6265711784362793,0.46153846153846156,0.8076923076923077,0.2857142857142857,0.8571428571428571,0.0004
214,1.4218400120735168,1.5291045904159546,0.5,0.8269230769230769,0.42857142857142855,0.8571428571428571,0.0004
215,1.4193499684333801,1.5987000465393066,0.46153846153846156,0.8269230769230769,0.2857142857142857,0.8571428571428571,0.0004
216,1.4696797728538513,1.4444330930709839,0.4423076923076923,0.8269230769230769,0.5,0.8571428571428571,0.0004
217,1.4827889204025269,1.4938570261001587,0.4423076923076923,0.8269230769230769,0.42857142857142855,0.8571428571428571,0.0004
218,1.488827407360077,1.5591845512390137,0.4230769230769231,0.8076923076923077,0.35714285714285715,0.7857142857142857,0.0004
219,1.5233179926872253,1.5169330835342407,0.46153846153846156,0.8076923076923077,0.42857142857142855,0.8571428571428571,0.0004
220,1.4341456890106201,1.5469063520431519,0.5192307692307693,0.8076923076923077,0.42857142857142855,0.7857142857142857,0.0004
221,1.46644788980484,1.6106235980987549,0.46153846153846156,0.7692307692307693,0.2857142857142857,0.7857142857142857,0.0004
222,1.3965842723846436,1.4600613117218018,0.4807692307692308,0.7884615384615384,0.35714285714285715,0.8571428571428571,0.0004
223,1.3947131037712097,1.4743919372558594,0.5,0.8076923076923077,0.5,0.7857142857142857,0.0004
224,1.3969979286193848,1.5473253726959229,0.5576923076923077,0.8269230769230769,0.42857142857142855,0.6428571428571429,0.0004
225,1.3997743725776672,1.5056126117706299,0.46153846153846156,0.8461538461538461,0.42857142857142855,0.6428571428571429,0.0004
226,1.454231858253479,1.6524319648742676,0.5384615384615384,0.7692307692307693,0.5,0.7857142857142857,0.0004
227,1.6246250867843628,1.5495715141296387,0.5384615384615384,0.7692307692307693,0.42857142857142855,0.7857142857142857,0.0004
228,1.4681254625320435,1.7374759912490845,0.5192307692307693,0.8076923076923077,0.5,0.7142857142857143,0.0004
229,1.4957062602043152,1.6504912376403809,0.4423076923076923,0.8076923076923077,0.2857142857142857,0.8571428571428571,0.0004
230,1.4308338165283203,1.5142507553100586,0.4807692307692308,0.8076923076923077,0.42857142857142855,0.7857142857142857,0.0004
231,1.5295767784118652,1.4844207763671875,0.5,0.8076923076923077,0.42857142857142855,0.8571428571428571,0.0004
232,1.4559399485588074,1.4449241161346436,0.4423076923076923,0.8076923076923077,0.35714285714285715,0.8571428571428571,0.0004
233,1.5002259612083435,1.4260485172271729,0.4230769230769231,0.8269230769230769,0.5,0.8571428571428571,0.0004
234,1.4552204608917236,1.4233191013336182,0.5,0.8269230769230769,0.35714285714285715,0.8571428571428571,0.0004
235,1.4540605545043945,1.6034233570098877,0.4807692307692308,0.8269230769230769,0.2857142857142857,0.8571428571428571,0.0004
236,1.401734471321106,1.4550117254257202,0.5,0.8269230769230769,0.2857142857142857,0.8571428571428571,0.0004
237,1.4146704077720642,1.450155258178711,0.46153846153846156,0.8269230769230769,0.42857142857142855,0.8571428571428571,0.0004
238,1.3393735885620117,1.525463342666626,0.46153846153846156,0.8269230769230769,0.21428571428571427,0.8571428571428571,0.0004
239,1.4265645742416382,1.3325896263122559,0.5,0.8269230769230769,0.42857142857142855,0.8571428571428571,0.0004
240,1.425403118133545,1.3591814041137695,0.5,0.8269230769230769,0.35714285714285715,0.8571428571428571,0.0004
241,1.3712432384490967,1.5032494068145752,0.46153846153846156,0.8269230769230769,0.5,0.8571428571428571,0.0004
242,1.4432381391525269,1.5234569311141968,0.46153846153846156,0.8269230769230769,0.42857142857142855,0.8571428571428571,0.0004
243,1.4620162844657898,1.4714391231536865,0.5576923076923077,0.8269230769230769,0.35714285714285715,0.8571428571428571,0.0004
244,1.338832676410675,1.430459976196289,0.4807692307692308,0.8269230769230769,0.2857142857142857,0.8571428571428571,0.0004
245,1.4118792414665222,1.3814584016799927,0.5192307692307693,0.8269230769230769,0.5,0.8571428571428571,0.0004
246,1.3610411882400513,1.5850310325622559,0.4807692307692308,0.8269230769230769,0.2857142857142857,0.8571428571428571,0.0004
247,1.4509633779525757,1.4677715301513672,0.40384615384615385,0.8269230769230769,0.35714285714285715,0.8571428571428571,0.0004
248,1.4422212839126587,1.5774216651916504,0.4423076923076923,0.8269230769230769,0.35714285714285715,0.8571428571428571,0.0004
249,1.4907966256141663,1.7903465032577515,0.4807692307692308,0.8269230769230769,0.2857142857142857,0.8571428571428571,0.0004
250,1.4935904741287231,1.471629023551941,0.4230769230769231,0.8269230769230769,0.35714285714285715,0.8571428571428571,0.0004
251,1.5124675035476685,1.5986307859420776,0.4423076923076923,0.8269230769230769,0.2857142857142857,0.8571428571428571,0.0004
252,1.4752445816993713,1.5024069547653198,0.4807692307692308,0.8269230769230769,0.42857142857142855,0.8571428571428571,0.0004
253,1.499794602394104,1.637064814567566,0.40384615384615385,0.8269230769230769,0.2857142857142857,0.8571428571428571,0.0004
254,1.4643762111663818,1.5617573261260986,0.4230769230769231,0.8269230769230769,0.5,0.8571428571428571,0.0004
255,1.4119405150413513,1.707343578338623,0.4807692307692308,0.8269230769230769,0.35714285714285715,0.8571428571428571,0.0004
256,1.520969271659851,1.524808645248413,0.4423076923076923,0.8269230769230769,0.35714285714285715,0.8571428571428571,0.0004
257,1.4609596729278564,1.593621015548706,0.4423076923076923,0.8269230769230769,0.35714285714285715,0.8571428571428571,0.0004
258,1.517622709274292,1.4308618307113647,0.4230769230769231,0.8269230769230769,0.42857142857142855,0.8571428571428571,0.0004
259,1.4060675501823425,1.3850655555725098,0.46153846153846156,0.8269230769230769,0.42857142857142855,0.8571428571428571,0.0004
260,1.5144661664962769,1.544596552848816,0.4423076923076923,0.8269230769230769,0.2857142857142857,0.8571428571428571,0.0004
261,1.4742181897163391,1.3287228345870972,0.46153846153846156,0.8269230769230769,0.5714285714285714,0.8571428571428571,0.0004
262,1.4729043245315552,1.4507235288619995,0.46153846153846156,0.8269230769230769,0.5,0.8571428571428571,0.0004
263,1.4462906122207642,1.4357439279556274,0.4230769230769231,0.8269230769230769,0.42857142857142855,0.8571428571428571,0.0004
264,1.4246690273284912,1.4076721668243408,0.4423076923076923,0.8269230769230769,0.5,0.8571428571428571,0.0004
265,1.4354156255722046,1.449040174484253,0.5576923076923077,0.8269230769230769,0.42857142857142855,0.8571428571428571,0.0004
266,1.455666422843933,1.395186424255371,0.5192307692307693,0.8269230769230769,0.42857142857142855,0.8571428571428571,0.0004
267,1.4685258269309998,1.3759328126907349,0.4423076923076923,0.8269230769230769,0.35714285714285715,0.8571428571428571,0.0004
268,1.4495255947113037,1.506090521812439,0.46153846153846156,0.8269230769230769,0.35714285714285715,0.8571428571428571,0.0004
269,1.4566245079040527,1.526604413986206,0.5192307692307693,0.8269230769230769,0.42857142857142855,0.8571428571428571,0.0004
270,1.4936858415603638,1.4461641311645508,0.4230769230769231,0.8269230769230769,0.5,0.8571428571428571,0.0004
271,1.3980187773704529,1.4111120700836182,0.4807692307692308,0.8269230769230769,0.42857142857142855,0.8571428571428571,0.0004
272,1.4602954387664795,1.4535117149353027,0.46153846153846156,0.8269230769230769,0.5,0.8571428571428571,0.0004
273,1.4199209213256836,1.4500255584716797,0.4807692307692308,0.8269230769230769,0.42857142857142855,0.8571428571428571,0.0004
274,1.4296505451202393,1.2780542373657227,0.5,0.8269230769230769,0.5,0.8571428571428571,0.0004
275,1.395576298236847,1.4027082920074463,0.4807692307692308,0.8269230769230769,0.5,0.8571428571428571,0.0004
276,1.372575581073761,1.4559634923934937,0.5384615384615384,0.8269230769230769,0.35714285714285715,0.8571428571428571,0.0004
277,1.4144448637962341,1.4512009620666504,0.5,0.8269230769230769,0.5,0.8571428571428571,0.0004
278,1.386896014213562,1.3731966018676758,0.5192307692307693,0.8269230769230769,0.5714285714285714,0.8571428571428571,0.0004
279,1.4523392915725708,1.4129167795181274,0.5192307692307693,0.8269230769230769,0.5,0.8571428571428571,0.0004
280,1.4934715032577515,1.3597190380096436,0.46153846153846156,0.8269230769230769,0.5,0.8571428571428571,0.0004
281,1.4908612966537476,1.569460391998291,0.4423076923076923,0.8269230769230769,0.42857142857142855,0.8571428571428571,0.0004
282,1.4322879910469055,1.4704322814941406,0.5,0.8269230769230769,0.5,0.8571428571428571,0.0004
283,1.4193314909934998,1.3534795045852661,0.5192307692307693,0.8269230769230769,0.42857142857142855,0.8571428571428571,0.0004
284,1.4841946363449097,1.484649419784546,0.46153846153846156,0.8269230769230769,0.42857142857142855,0.8571428571428571,0.0004
285,1.3662866353988647,1.439987301826477,0.6153846153846154,0.8269230769230769,0.5,0.8571428571428571,0.0004
286,1.4061935544013977,1.5675626993179321,0.5769230769230769,0.8269230769230769,0.35714285714285715,0.8571428571428571,0.0004
287,1.975723683834076,1.6223185062408447,0.34615384615384615,0.8269230769230769,0.5,0.8571428571428571,0.0004
288,1.5450825691223145,1.4411633014678955,0.4807692307692308,0.8269230769230769,0.42857142857142855,0.8571428571428571,0.0004
289,1.477077305316925,1.7749801874160767,0.5576923076923077,0.8269230769230769,0.21428571428571427,0.8571428571428571,0.0004
290,1.7271312475204468,1.3156087398529053,0.4423076923076923,0.8269230769230769,0.5714285714285714,0.8571428571428571,0.0004
291,1.3640169501304626,1.4591667652130127,0.5576923076923077,0.8269230769230769,0.42857142857142855,0.8571428571428571,0.0004
292,1.3046205043792725,1.6525752544403076,0.5576923076923077,0.8269230769230769,0.21428571428571427,0.8571428571428571,0.0004
293,1.5120574235916138,1.7766921520233154,0.4807692307692308,0.8269230769230769,0.2857142857142857,0.8571428571428571,0.0004
294,1.6222807168960571,1.662130355834961,0.4230769230769231,0.8269230769230769,0.21428571428571427,0.8571428571428571,0.0004
295,1.6292560696601868,1.6624257564544678,0.4230769230769231,0.8269230769230769,0.35714285714285715,0.8571428571428571,0.0004
296,1.6327293515205383,1.6935735940933228,0.3269230769230769,0.8269230769230769,0.2857142857142857,0.8571428571428571,0.0004
297,1.6444249153137207,1.6778184175491333,0.25,0.8269230769230769,0.21428571428571427,0.8571428571428571,0.0004
298,1.6564297676086426,1.6950774192810059,0.2692307692307692,0.8269230769230769,0.21428571428571427,0.8571428571428571,0.0004
299,1.6165879368782043,1.5987039804458618,0.3076923076923077,0.8269230769230769,0.2857142857142857,0.8571428571428571,0.0004
300,1.6418720483779907,1.6379013061523438,0.2692307692307692,0.8269230769230769,0.2857142857142857,0.8571428571428571,0.0004
301,1.6069039106369019,1.630477786064148,0.25,0.8269230769230769,0.14285714285714285,0.8571428571428571,0.0004
302,1.6004457473754883,1.6385341882705688,0.25,0.8269230769230769,0.14285714285714285,0.8571428571428571,0.0004
303,1.5968472361564636,1.556915283203125,0.23076923076923078,0.8269230769230769,0.2857142857142857,0.8571428571428571,0.0004
304,1.5695775151252747,1.5876644849777222,0.3269230769230769,0.8269230769230769,0.14285714285714285,0.8571428571428571,0.0004
305,1.549477994441986,1.568976640701294,0.25,0.8269230769230769,0.2857142857142857,0.8571428571428571,0.0004
306,1.5555747151374817,1.5418519973754883,0.21153846153846154,0.8269230769230769,0.35714285714285715,0.8571428571428571,0.0004
307,1.576118528842926,1.5518059730529785,0.28846153846153844,0.8269230769230769,0.35714285714285715,0.8571428571428571,0.0004
308,1.58071631193161,1.5436060428619385,0.40384615384615385,0.8269230769230769,0.14285714285714285,0.8571428571428571,0.0004
309,1.520748496055603,1.548360824584961,0.34615384615384615,0.8269230769230769,0.14285714285714285,0.8571428571428571,0.0004
310,1.6025815606117249,1.5424447059631348,0.38461538461538464,0.8269230769230769,0.2857142857142857,0.8571428571428571,0.0004
311,1.5507683157920837,1.5365817546844482,0.4230769230769231,0.8269230769230769,0.2857142857142857,0.8571428571428571,0.0004
312,1.5553685426712036,1.560280203819275,0.38461538461538464,0.8269230769230769,0.2857142857142857,0.8571428571428571,0.0004
313,1.5704455375671387,1.54627525806427,0.4230769230769231,0.8269230769230769,0.2857142857142857,0.8571428571428571,0.0004
314,1.5483015775680542,1.5633058547973633,0.4230769230769231,0.8269230769230769,0.2857142857142857,0.8571428571428571,0.0004
315,1.5948480367660522,1.5570340156555176,0.4423076923076923,0.8269230769230769,0.2857142857142857,0.8571428571428571,0.0004
316,1.541609764099121,1.536170482635498,0.40384615384615385,0.8269230769230769,0.21428571428571427,0.8571428571428571,0.0004
317,1.5208703875541687,1.5726768970489502,0.40384615384615385,0.8269230769230769,0.21428571428571427,0.8571428571428571,0.0004
318,1.5430178046226501,1.5619091987609863,0.40384615384615385,0.8269230769230769,0.21428571428571427,0.8571428571428571,0.0004
319,1.5623736381530762,1.5662775039672852,0.36538461538461536,0.8269230769230769,0.21428571428571427,0.8571428571428571,0.0004
320,1.541209101676941,1.5522205829620361,0.38461538461538464,0.8269230769230769,0.2857142857142857,0.8571428571428571,0.0004
321,1.5303205847740173,1.576703429222107,0.40384615384615385,0.8269230769230769,0.2857142857142857,0.8571428571428571,0.0004
322,1.577238917350769,1.5509147644042969,0.36538461538461536,0.8269230769230769,0.21428571428571427,0.8571428571428571,0.0004
323,1.581615924835205,1.5455067157745361,0.38461538461538464,0.8269230769230769,0.2857142857142857,0.8571428571428571,0.0004
324,1.5310428738594055,1.5605065822601318,0.38461538461538464,0.8269230769230769,0.2857142857142857,0.8571428571428571,0.0004
325,1.5532286763191223,1.5545001029968262,0.36538461538461536,0.8269230769230769,0.21428571428571427,0.8571428571428571,0.0004
326,1.5487091541290283,1.560833215713501,0.36538461538461536,0.8269230769230769,0.21428571428571427,0.8571428571428571,0.0004
327,1.5572925806045532,1.5584927797317505,0.38461538461538464,0.8269230769230769,0.21428571428571427,0.8571428571428571,0.0004
328,1.5512319207191467,1.562309980392456,0.36538461538461536,0.8269230769230769,0.21428571428571427,0.8571428571428571,0.0004
329,1.5634257197380066,1.5446276664733887,0.36538461538461536,0.8269230769230769,0.21428571428571427,0.8571428571428571,0.0004
330,1.5593862533569336,1.5594401359558105,0.36538461538461536,0.8269230769230769,0.21428571428571427,0.8571428571428571,0.0004
331,1.5419828295707703,1.5394375324249268,0.36538461538461536,0.8269230769230769,0.21428571428571427,0.8571428571428571,0.0004
332,1.5258463621139526,1.5406147241592407,0.36538461538461536,0.8269230769230769,0.21428571428571427,0.8571428571428571,0.0004
333,1.5633293986320496,1.5407166481018066,0.36538461538461536,0.8269230769230769,0.21428571428571427,0.8571428571428571,0.0004
334,1.5539597868919373,1.5448715686798096,0.36538461538461536,0.8269230769230769,0.21428571428571427,0.8571428571428571,0.0004
335,1.5509568452835083,1.5460678339004517,0.36538461538461536,0.8269230769230769,0.2857142857142857,0.8571428571428571,0.0004
336,1.5537716150283813,1.542358160018921,0.4423076923076923,0.8269230769230769,0.21428571428571427,0.8571428571428571,0.0004
337,1.5256071090698242,1.5418493747711182,0.40384615384615385,0.8269230769230769,0.21428571428571427,0.8571428571428571,0.0004
338,1.5559357404708862,1.536163330078125,0.36538461538461536,0.8269230769230769,0.21428571428571427,0.8571428571428571,0.0004
339,1.5628549456596375,1.5336672067642212,0.36538461538461536,0.8269230769230769,0.21428571428571427,0.8571428571428571,0.0004
340,1.5552374124526978,1.541024923324585,0.4230769230769231,0.8269230769230769,0.21428571428571427,0.8571428571428571,0.0004
341,1.5664623379707336,1.5370371341705322,0.36538461538461536,0.8269230769230769,0.21428571428571427,0.8571428571428571,0.0004
342,1.556863784790039,1.5412131547927856,0.36538461538461536,0.8269230769230769,0.21428571428571427,0.8571428571428571,0.0004
343,1.5604467391967773,1.5352485179901123,0.36538461538461536,0.8269230769230769,0.21428571428571427,0.8571428571428571,0.0004
344,1.5452349781990051,1.5557305812835693,0.36538461538461536,0.8269230769230769,0.21428571428571427,0.8571428571428571,0.0004
345,1.540334165096283,1.5411779880523682,0.36538461538461536,0.8269230769230769,0.21428571428571427,0.8571428571428571,0.0004
346,1.5197999477386475,1.5428991317749023,0.36538461538461536,0.8269230769230769,0.21428571428571427,0.8571428571428571,0.0004
347,1.5351449847221375,1.5427495241165161,0.36538461538461536,0.8269230769230769,0.21428571428571427,0.8571428571428571,0.0004
348,1.5205130577087402,1.55789053440094,0.36538461538461536,0.8269230769230769,0.21428571428571427,0.8571428571428571,0.0004
349,1.5491682887077332,1.5381048917770386,0.36538461538461536,0.8269230769230769,0.21428571428571427,0.8571428571428571,0.0004
350,1.561834692955017,1.5466580390930176,0.36538461538461536,0.8269230769230769,0.21428571428571427,0.8571428571428571,0.0004
351,1.5320361256599426,1.5481942892074585,0.36538461538461536,0.8269230769230769,0.21428571428571427,0.8571428571428571,0.0004
352,1.581953763961792,1.5638949871063232,0.36538461538461536,0.8269230769230769,0.21428571428571427,0.8571428571428571,0.0004
353,1.533563494682312,1.5707101821899414,0.36538461538461536,0.8269230769230769,0.21428571428571427,0.8571428571428571,0.0004
354,1.5564460754394531,1.5450654029846191,0.36538461538461536,0.8269230769230769,0.21428571428571427,0.8571428571428571,0.0004
355,1.5329651236534119,1.5605051517486572,0.36538461538461536,0.8269230769230769,0.21428571428571427,0.8571428571428571,0.0004
356,1.5511855483055115,1.564835786819458,0.36538461538461536,0.8269230769230769,0.21428571428571427,0.8571428571428571,0.0004
357,1.5697837471961975,1.5474035739898682,0.36538461538461536,0.8269230769230769,0.21428571428571427,0.8571428571428571,0.0004
358,1.5364255905151367,1.5833814144134521,0.36538461538461536,0.8269230769230769,0.21428571428571427,0.8571428571428571,0.0004
359,1.5464498400688171,1.5271656513214111,0.36538461538461536,0.8269230769230769,0.21428571428571427,0.8571428571428571,0.0004
360,1.5590459108352661,1.5201222896575928,0.36538461538461536,0.8269230769230769,0.21428571428571427,0.8571428571428571,0.0004
361,1.54034423828125,1.5496504306793213,0.36538461538461536,0.8269230769230769,0.21428571428571427,0.8571428571428571,0.0004
362,1.5653387904167175,1.5495550632476807,0.36538461538461536,0.8269230769230769,0.21428571428571427,0.8571428571428571,0.0004
363,1.5428069233894348,1.5414743423461914,0.36538461538461536,0.8269230769230769,0.21428571428571427,0.8571428571428571,0.0004
364,1.551303505897522,1.528468132019043,0.36538461538461536,0.8269230769230769,0.21428571428571427,0.8571428571428571,0.0004
365,1.565647542476654,1.5598148107528687,0.36538461538461536,0.8269230769230769,0.21428571428571427,0.8571428571428571,0.0004
366,1.5667078495025635,1.541846513748169,0.36538461538461536,0.8269230769230769,0.2857142857142857,0.8571428571428571,0.0004
367,1.5338916778564453,1.5624293088912964,0.4230769230769231,0.8269230769230769,0.2857142857142857,0.8571428571428571,0.0004
368,1.527280032634735,1.5470986366271973,0.36538461538461536,0.8269230769230769,0.42857142857142855,0.8571428571428571,0.0004
369,1.5260652303695679,1.5533084869384766,0.4423076923076923,0.8269230769230769,0.2857142857142857,0.8571428571428571,0.0004
370,1.5673094391822815,1.5901823043823242,0.4423076923076923,0.8269230769230769,0.21428571428571427,0.8571428571428571,0.0004
371,1.5055716633796692,1.563591480255127,0.40384615384615385,0.8269230769230769,0.21428571428571427,0.8571428571428571,0.0004
372,1.5313984751701355,1.572190284729004,0.38461538461538464,0.8269230769230769,0.2857142857142857,0.8571428571428571,0.0004
373,1.5654322504997253,1.5925095081329346,0.38461538461538464,0.8269230769230769,0.2857142857142857,0.8571428571428571,0.0004
374,1.5608185529708862,1.5308446884155273,0.38461538461538464,0.8269230769230769,0.42857142857142855,0.8571428571428571,0.0004
375,1.559152364730835,1.587923526763916,0.36538461538461536,0.8269230769230769,0.21428571428571427,0.8571428571428571,0.0004
376,1.5409277081489563,1.5554544925689697,0.4230769230769231,0.8269230769230769,0.2857142857142857,0.8571428571428571,0.0004
377,1.534522533416748,1.5728542804718018,0.40384615384615385,0.8269230769230769,0.21428571428571427,0.8571428571428571,0.0004
378,1.5471250414848328,1.5774104595184326,0.38461538461538464,0.8269230769230769,0.21428571428571427,0.8571428571428571,0.0004
379,1.5209152698516846,1.5597403049468994,0.36538461538461536,0.8269230769230769,0.21428571428571427,0.8571428571428571,0.0004
380,1.5618167519569397,1.5515477657318115,0.40384615384615385,0.8269230769230769,0.21428571428571427,0.8571428571428571,0.0004
381,1.5400930643081665,1.5503275394439697,0.4423076923076923,0.8269230769230769,0.21428571428571427,0.8571428571428571,0.0004
382,1.5245336294174194,1.579195499420166,0.4807692307692308,0.8269230769230769,0.21428571428571427,0.8571428571428571,0.0004
383,1.5261520743370056,1.54165518283844,0.4807692307692308,0.8269230769230769,0.2857142857142857,0.8571428571428571,0.0004
384,1.5492545366287231,1.5107274055480957,0.4807692307692308,0.8269230769230769,0.21428571428571427,0.8571428571428571,0.0004
385,1.5926215648651123,1.5449090003967285,0.4230769230769231,0.8269230769230769,0.21428571428571427,0.8571428571428571,0.0004
386,1.553930938243866,1.5454143285751343,0.4423076923076923,0.8269230769230769,0.42857142857142855,0.8571428571428571,0.0004
387,1.5215337872505188,1.5194456577301025,0.4230769230769231,0.8269230769230769,0.21428571428571427,0.8571428571428571,0.0004
388,1.4828228950500488,1.5509752035140991,0.4807692307692308,0.8269230769230769,0.21428571428571427,0.8571428571428571,0.0004
389,1.5272371172904968,1.5586464405059814,0.4230769230769231,0.8269230769230769,0.21428571428571427,0.8571428571428571,0.0004
390,1.5449771285057068,1.5671476125717163,0.4423076923076923,0.8269230769230769,0.2857142857142857,0.8571428571428571,0.0004
391,1.5504791736602783,1.5354950428009033,0.46153846153846156,0.8269230769230769,0.42857142857142855,0.8571428571428571,0.0004
392,1.525151789188385,1.5451425313949585,0.4230769230769231,0.8269230769230769,0.42857142857142855,0.8571428571428571,0.0004
393,1.559575080871582,1.5422700643539429,0.4423076923076923,0.8269230769230769,0.42857142857142855,0.8571428571428571,0.0004
394,1.5309484601020813,1.5499376058578491,0.5,0.8269230769230769,0.35714285714285715,0.8571428571428571,0.0004
395,1.5075839757919312,1.5570743083953857,0.4423076923076923,0.8269230769230769,0.35714285714285715,0.8571428571428571,0.0004
396,1.4911478161811829,1.5752806663513184,0.4423076923076923,0.8269230769230769,0.35714285714285715,0.8571428571428571,0.0004
397,1.541311502456665,1.5450372695922852,0.4807692307692308,0.8269230769230769,0.35714285714285715,0.8571428571428571,0.0004
398,1.5062986612319946,1.5085859298706055,0.4423076923076923,0.8269230769230769,0.42857142857142855,0.8571428571428571,0.0004
399,1.5170161724090576,1.5371410846710205,0.4230769230769231,0.8269230769230769,0.35714285714285715,0.8571428571428571,0.0004
400,1.550370216369629,1.5653681755065918,0.4423076923076923,0.8269230769230769,0.35714285714285715,0.8571428571428571,0.0004
401,1.473017692565918,1.561598300933838,0.40384615384615385,0.8269230769230769,0.14285714285714285,0.8571428571428571,0.0004
402,1.5214922428131104,1.5852770805358887,0.4230769230769231,0.8269230769230769,0.21428571428571427,0.8571428571428571,0.0004
403,1.4741080403327942,1.5819956064224243,0.4423076923076923,0.8269230769230769,0.35714285714285715,0.8571428571428571,0.0004
404,1.5117454528808594,1.5333266258239746,0.46153846153846156,0.8269230769230769,0.42857142857142855,0.8571428571428571,0.0004
405,1.5741238594055176,1.6018949747085571,0.40384615384615385,0.8269230769230769,0.21428571428571427,0.8571428571428571,0.0004
406,1.5120442509651184,1.5738064050674438,0.40384615384615385,0.8269230769230769,0.2857142857142857,0.8571428571428571,0.0004
407,1.4699565172195435,1.6193344593048096,0.4423076923076923,0.8269230769230769,0.35714285714285715,0.8571428571428571,0.0004
408,1.4858962297439575,1.5582576990127563,0.5192307692307693,0.8269230769230769,0.42857142857142855,0.8571428571428571,0.0004
409,1.470535695552826,1.5798816680908203,0.5,0.8269230769230769,0.42857142857142855,0.8571428571428571,0.0004
410,1.514436423778534,1.5786590576171875,0.5192307692307693,0.8269230769230769,0.35714285714285715,0.8571428571428571,0.0004
411,1.4727471470832825,1.4971693754196167,0.4807692307692308,0.8269230769230769,0.5,0.8571428571428571,0.0004
412,1.5370802879333496,1.5515451431274414,0.4423076923076923,0.8269230769230769,0.42857142857142855,0.8571428571428571,0.0004
413,1.4465990662574768,1.5544313192367554,0.5,0.8269230769230769,0.35714285714285715,0.8571428571428571,0.0004
414,1.429063856601715,1.5560364723205566,0.5192307692307693,0.8269230769230769,0.2857142857142857,0.8571428571428571,0.0004
415,1.482096016407013,1.482704997062683,0.40384615384615385,0.8269230769230769,0.42857142857142855,0.8571428571428571,0.0004
416,1.518848955631256,1.6307153701782227,0.5,0.8269230769230769,0.2857142857142857,0.8571428571428571,0.0004
417,1.5284533500671387,1.5278953313827515,0.38461538461538464,0.8269230769230769,0.42857142857142855,0.8571428571428571,0.0004
418,1.4269278645515442,1.541006088256836,0.46153846153846156,0.8269230769230769,0.42857142857142855,0.8571428571428571,0.0004
419,1.4086359143257141,1.5111057758331299,0.5576923076923077,0.8269230769230769,0.42857142857142855,0.8571428571428571,0.0004
420,1.4874176979064941,1.554732322692871,0.5769230769230769,0.8269230769230769,0.5,0.8571428571428571,0.0004
421,1.4816301465034485,1.5923974514007568,0.5769230769230769,0.8269230769230769,0.42857142857142855,0.8571428571428571,0.0004
422,1.4306585788726807,1.3972907066345215,0.5,0.8269230769230769,0.5,0.8571428571428571,0.0004
423,1.4364333748817444,1.647470235824585,0.4807692307692308,0.8269230769230769,0.21428571428571427,0.8571428571428571,0.0004
424,1.4454076290130615,1.659597635269165,0.5769230769230769,0.8269230769230769,0.21428571428571427,0.8571428571428571,0.0004
425,1.4898009896278381,1.5127441883087158,0.4423076923076923,0.8269230769230769,0.42857142857142855,0.8571428571428571,0.0004
426,1.372862458229065,1.6211509704589844,0.5576923076923077,0.8269230769230769,0.21428571428571427,0.8571428571428571,0.0004
427,1.4914966821670532,1.525571584701538,0.5192307692307693,0.8269230769230769,0.42857142857142855,0.8571428571428571,0.0004
428,1.4214357137680054,1.4734858274459839,0.4807692307692308,0.8269230769230769,0.5714285714285714,0.8571428571428571,0.0004
429,1.5041424036026,1.68717360496521,0.5,0.8269230769230769,0.35714285714285715,0.8571428571428571,0.0004
430,1.472532331943512,1.4675202369689941,0.4807692307692308,0.8269230769230769,0.5,0.8571428571428571,0.0004
431,1.4504777193069458,1.6349729299545288,0.5576923076923077,0.8269230769230769,0.35714285714285715,0.8571428571428571,0.0004
432,1.465037226676941,1.4388601779937744,0.5192307692307693,0.8269230769230769,0.5714285714285714,0.8571428571428571,0.0004
433,1.4205371737480164,1.4526489973068237,0.5192307692307693,0.8269230769230769,0.5,0.8571428571428571,0.0004
434,1.429610550403595,1.5206546783447266,0.5384615384615384,0.8269230769230769,0.2857142857142857,0.8571428571428571,0.0004
435,1.491279661655426,1.571099877357483,0.4423076923076923,0.8269230769230769,0.21428571428571427,0.8571428571428571,0.0004
436,1.5004197359085083,1.5810810327529907,0.4423076923076923,0.8269230769230769,0.2857142857142857,0.8571428571428571,0.0004
437,1.4415064454078674,1.538662075996399,0.5384615384615384,0.8269230769230769,0.42857142857142855,0.8571428571428571,0.0004
438,1.4088569283485413,1.4720362424850464,0.5384615384615384,0.8269230769230769,0.5,0.8571428571428571,0.0004
439,1.4582713842391968,1.6028690338134766,0.5192307692307693,0.8269230769230769,0.35714285714285715,0.8571428571428571,0.0004
440,1.4573105573654175,1.4581502676010132,0.5769230769230769,0.8269230769230769,0.42857142857142855,0.8571428571428571,0.0004
441,1.5488920211791992,1.3684096336364746,0.4423076923076923,0.8269230769230769,0.7142857142857143,0.8571428571428571,0.0004
442,1.4715498685836792,1.4043550491333008,0.5769230769230769,0.8269230769230769,0.6428571428571429,0.8571428571428571,0.0004
443,1.4471286535263062,1.4415762424468994,0.5192307692307693,0.8269230769230769,0.5,0.8571428571428571,0.0004
444,1.4499937891960144,1.5346052646636963,0.4230769230769231,0.8269230769230769,0.35714285714285715,0.8571428571428571,0.0004
445,1.4237407445907593,1.5872565507888794,0.5769230769230769,0.8269230769230769,0.2857142857142857,0.8571428571428571,0.0004
446,1.399080216884613,1.445395588874817,0.5576923076923077,0.8269230769230769,0.6428571428571429,0.8571428571428571,0.0004
447,1.4057757258415222,1.5064064264297485,0.5,0.8269230769230769,0.35714285714285715,0.8571428571428571,0.0004
448,1.4435026049613953,1.5105268955230713,0.4807692307692308,0.8269230769230769,0.5,0.8571428571428571,0.0004
449,1.4272360801696777,1.6221171617507935,0.5,0.8269230769230769,0.14285714285714285,0.8571428571428571,0.0004
450,1.424207329750061,1.4726076126098633,0.46153846153846156,0.8269230769230769,0.5714285714285714,0.8571428571428571,0.0004
451,1.4811926484107971,1.547461748123169,0.46153846153846156,0.8269230769230769,0.5,0.8571428571428571,0.0004
452,1.4895325899124146,1.546461820602417,0.46153846153846156,0.8269230769230769,0.35714285714285715,0.8571428571428571,0.0004
453,1.4815047979354858,1.5839370489120483,0.5192307692307693,0.8269230769230769,0.35714285714285715,0.8571428571428571,0.0004
454,1.4240524172782898,1.6012263298034668,0.5192307692307693,0.8269230769230769,0.5,0.8571428571428571,0.0004
455,1.4220694303512573,1.399442434310913,0.4807692307692308,0.8269230769230769,0.5,0.8571428571428571,0.0004
456,1.4356306195259094,1.4834535121917725,0.46153846153846156,0.8269230769230769,0.35714285714285715,0.8571428571428571,0.0004
457,1.4012304544448853,1.4895581007003784,0.5769230769230769,0.8269230769230769,0.42857142857142855,0.8571428571428571,0.0004
458,1.3921725153923035,1.3347259759902954,0.5576923076923077,0.8269230769230769,0.5714285714285714,0.8571428571428571,0.0004
459,1.4195867776870728,1.4938244819641113,0.5384615384615384,0.8269230769230769,0.42857142857142855,0.8571428571428571,0.0004
460,1.3184080123901367,1.397397518157959,0.5384615384615384,0.8269230769230769,0.6428571428571429,0.8571428571428571,0.0004
461,1.531282663345337,1.5568289756774902,0.5,0.8269230769230769,0.35714285714285715,0.8571428571428571,0.0004
462,1.4432904720306396,1.6294872760772705,0.5576923076923077,0.8269230769230769,0.2857142857142857,0.8571428571428571,0.0004
463,1.5035181641578674,1.5489574670791626,0.4807692307692308,0.8269230769230769,0.35714285714285715,0.8571428571428571,0.0004
464,1.3646201491355896,1.6966488361358643,0.5961538461538461,0.8269230769230769,0.2857142857142857,0.8571428571428571,0.0004
465,1.5021194815635681,1.6544182300567627,0.4230769230769231,0.8269230769230769,0.5,0.8571428571428571,0.0004
466,1.3227489590644836,1.5772595405578613,0.5384615384615384,0.8269230769230769,0.35714285714285715,0.8571428571428571,0.0004
467,1.364193856716156,1.5535918474197388,0.6346153846153846,0.8269230769230769,0.35714285714285715,0.8571428571428571,0.0004
468,1.4815078377723694,1.488049030303955,0.5384615384615384,0.8269230769230769,0.42857142857142855,0.8571428571428571,0.0004
469,1.5242207646369934,1.5091532468795776,0.46153846153846156,0.8269230769230769,0.42857142857142855,0.8571428571428571,0.0004
470,1.4996707439422607,1.3871721029281616,0.4807692307692308,0.8269230769230769,0.5,0.8571428571428571,0.0004
471,1.46284419298172,1.5782445669174194,0.4807692307692308,0.8269230769230769,0.35714285714285715,0.8571428571428571,0.0004
472,1.5230036973953247,1.569340705871582,0.4807692307692308,0.8269230769230769,0.42857142857142855,0.8571428571428571,0.0004
473,1.4046788215637207,1.490269422531128,0.5192307692307693,0.8269230769230769,0.42857142857142855,0.8571428571428571,0.0004
474,1.450221836566925,1.61309814453125,0.5961538461538461,0.8269230769230769,0.42857142857142855,0.8571428571428571,0.0004
475,1.5307812094688416,1.4905686378479004,0.5192307692307693,0.8269230769230769,0.42857142857142855,0.8571428571428571,0.0004
476,1.566254198551178,1.5750155448913574,0.4423076923076923,0.8269230769230769,0.2857142857142857,0.8571428571428571,0.0004
477,1.5440296530723572,1.3691250085830688,0.46153846153846156,0.8269230769230769,0.5,0.8571428571428571,0.0004
478,1.5012609958648682,1.489825963973999,0.46153846153846156,0.8269230769230769,0.42857142857142855,0.8571428571428571,0.0004
479,1.4835310578346252,1.2828165292739868,0.5,0.8269230769230769,0.6428571428571429,0.8571428571428571,0.0004
480,1.393676519393921,1.5048478841781616,0.4807692307692308,0.8269230769230769,0.2857142857142857,0.8571428571428571,0.0004
481,1.402721107006073,1.36976158618927,0.5,0.8269230769230769,0.5714285714285714,0.8571428571428571,0.0004
482,1.4337884187698364,1.5600385665893555,0.5192307692307693,0.8269230769230769,0.2857142857142857,0.8571428571428571,0.0004
483,1.348560392856598,1.549376368522644,0.6346153846153846,0.8269230769230769,0.42857142857142855,0.8571428571428571,0.0004
484,1.468513011932373,1.4882179498672485,0.4423076923076923,0.8269230769230769,0.42857142857142855,0.8571428571428571,0.0004
485,1.4114960432052612,1.5102766752243042,0.5,0.8269230769230769,0.5,0.8571428571428571,0.0004
486,1.4075005054473877,1.401170253753662,0.5384615384615384,0.8269230769230769,0.5,0.8571428571428571,0.0004
487,1.3791552782058716,1.340263843536377,0.5192307692307693,0.8269230769230769,0.5714285714285714,0.8571428571428571,0.0004
488,1.4132580161094666,1.5574780702590942,0.5192307692307693,0.8269230769230769,0.42857142857142855,0.8571428571428571,0.0004
489,1.4345484375953674,1.4574451446533203,0.5,0.8269230769230769,0.5714285714285714,0.8571428571428571,0.0004
490,1.3631271123886108,1.5599875450134277,0.5961538461538461,0.8269230769230769,0.35714285714285715,0.8571428571428571,0.0004
491,1.4508058428764343,1.4295179843902588,0.46153846153846156,0.8269230769230769,0.5714285714285714,0.8571428571428571,0.0004
492,1.3457284569740295,1.4201281070709229,0.6538461538461539,0.8269230769230769,0.5,0.8571428571428571,0.0004
493,1.39342600107193,1.4457061290740967,0.5192307692307693,0.8269230769230769,0.5,0.8571428571428571,0.0004
494,1.433818280696869,1.4788928031921387,0.5,0.8269230769230769,0.5,0.8571428571428571,0.0004
495,1.3673954010009766,1.4059308767318726,0.5961538461538461,0.8269230769230769,0.42857142857142855,0.8571428571428571,0.0004
496,1.5392781496047974,1.5772969722747803,0.36538461538461536,0.8269230769230769,0.2857142857142857,0.8571428571428571,0.0004
497,1.4252183437347412,1.2864949703216553,0.4807692307692308,0.8269230769230769,0.5,0.8571428571428571,0.0004
498,1.3329326510429382,1.4851770401000977,0.5961538461538461,0.8269230769230769,0.5,0.8571428571428571,0.0004
499,1.3805997371673584,1.5321506261825562,0.5576923076923077,0.8269230769230769,0.5,0.8571428571428571,0.0004
500,1.3302454352378845,1.4695698022842407,0.5961538461538461,0.8269230769230769,0.35714285714285715,0.8571428571428571,0.0004
501,1.4250071048736572,1.609376311302185,0.5384615384615384,0.8269230769230769,0.35714285714285715,0.8571428571428571,0.0004
502,1.3316211700439453,1.376897931098938,0.6346153846153846,0.8269230769230769,0.5714285714285714,0.8571428571428571,0.0004
503,1.4280166625976562,1.5478379726409912,0.5,0.8269230769230769,0.35714285714285715,0.8571428571428571,0.0004
504,1.3406702280044556,1.2005281448364258,0.5576923076923077,0.8269230769230769,0.7142857142857143,0.8571428571428571,0.0004
505,1.3394373059272766,1.7508878707885742,0.5576923076923077,0.8269230769230769,0.14285714285714285,0.8571428571428571,0.0004
506,1.3610628843307495,1.5855169296264648,0.5192307692307693,0.8269230769230769,0.42857142857142855,0.8571428571428571,0.0004
507,1.3191258311271667,1.5347926616668701,0.5384615384615384,0.8269230769230769,0.42857142857142855,0.8571428571428571,0.0004
508,1.3447701334953308,1.4445884227752686,0.5576923076923077,0.8269230769230769,0.42857142857142855,0.8571428571428571,0.0004
509,1.4491684436798096,1.4248170852661133,0.46153846153846156,0.8269230769230769,0.5714285714285714,0.8571428571428571,0.0004
510,1.4286274313926697,1.4712696075439453,0.4423076923076923,0.8269230769230769,0.42857142857142855,0.8571428571428571,0.0004
511,1.4124377965927124,1.3843417167663574,0.5,0.8269230769230769,0.6428571428571429,0.8571428571428571,0.0004
512,1.4023832082748413,1.708889126777649,0.4807692307692308,0.8269230769230769,0.2857142857142857,0.8571428571428571,0.0004
513,1.3832612037658691,1.4772365093231201,0.5769230769230769,0.8269230769230769,0.35714285714285715,0.8571428571428571,0.0004
514,1.4048417210578918,1.5107228755950928,0.5,0.8269230769230769,0.42857142857142855,0.8571428571428571,0.0004
515,1.3518278002738953,1.5757696628570557,0.5384615384615384,0.8269230769230769,0.2857142857142857,0.8571428571428571,0.0004
516,1.4201546907424927,1.3984476327896118,0.5192307692307693,0.8269230769230769,0.5,0.8571428571428571,0.0004
517,1.401416540145874,1.425886869430542,0.5384615384615384,0.8269230769230769,0.5,0.8571428571428571,0.0004
518,1.3802255988121033,1.5150468349456787,0.5384615384615384,0.8269230769230769,0.2857142857142857,0.8571428571428571,0.0004
519,1.369701087474823,1.3840525150299072,0.5769230769230769,0.8269230769230769,0.6428571428571429,0.8571428571428571,0.0004
520,1.3911161422729492,1.531949758529663,0.5192307692307693,0.8269230769230769,0.35714285714285715,0.8571428571428571,0.0004
521,1.2635401487350464,1.0996782779693604,0.6538461538461539,0.8269230769230769,0.6428571428571429,0.8571428571428571,0.0004
522,1.369547724723816,1.442492961883545,0.5961538461538461,0.8269230769230769,0.5714285714285714,0.8571428571428571,0.0004
523,1.4275426864624023,1.596845269203186,0.5,0.8269230769230769,0.21428571428571427,0.8571428571428571,0.0004
524,1.456173837184906,1.4531683921813965,0.4423076923076923,0.8269230769230769,0.2857142857142857,0.8571428571428571,0.0004
525,1.3922253251075745,1.512815237045288,0.5384615384615384,0.8269230769230769,0.5714285714285714,0.8571428571428571,0.0004
526,1.5006657838821411,1.3265305757522583,0.4807692307692308,0.8269230769230769,0.5714285714285714,0.8571428571428571,0.0004
527,1.4644074440002441,1.4069091081619263,0.5192307692307693,0.8269230769230769,0.5,0.8571428571428571,0.0004
528,1.476223647594452,1.4658794403076172,0.4230769230769231,0.8269230769230769,0.42857142857142855,0.8571428571428571,0.0004
529,1.4607910513877869,1.5634920597076416,0.5,0.8269230769230769,0.5714285714285714,0.8571428571428571,0.0004
530,1.4103536009788513,1.5267974138259888,0.5384615384615384,0.8269230769230769,0.5,0.8571428571428571,0.0004
531,1.2524762153625488,1.6545380353927612,0.6538461538461539,0.8269230769230769,0.35714285714285715,0.8571428571428571,0.0004
532,1.4244288206100464,1.565153956413269,0.46153846153846156,0.8269230769230769,0.2857142857142857,0.8571428571428571,0.0004
533,1.4993294477462769,1.6652947664260864,0.4807692307692308,0.8269230769230769,0.2857142857142857,0.8571428571428571,0.0004
534,1.4703813791275024,1.4398066997528076,0.5,0.8269230769230769,0.5,0.8571428571428571,0.0004
535,1.4250497221946716,1.5115760564804077,0.5,0.8269230769230769,0.42857142857142855,0.8571428571428571,0.0004
536,1.2883701920509338,1.433923363685608,0.6153846153846154,0.8269230769230769,0.5,0.8571428571428571,0.0004
537,1.3158707022666931,1.5674189329147339,0.6153846153846154,0.8269230769230769,0.2857142857142857,0.8571428571428571,0.0004
538,1.3782652616500854,1.6047717332839966,0.4423076923076923,0.8269230769230769,0.21428571428571427,0.8571428571428571,0.0004
539,1.477193832397461,1.475987434387207,0.4807692307692308,0.8269230769230769,0.42857142857142855,0.8571428571428571,0.0004
540,1.4364891648292542,1.524033784866333,0.5192307692307693,0.8269230769230769,0.42857142857142855,0.8571428571428571,0.0004
541,1.4255732893943787,1.412008285522461,0.5384615384615384,0.8269230769230769,0.42857142857142855,0.8571428571428571,0.0004
542,1.350561261177063,1.5221986770629883,0.5192307692307693,0.8269230769230769,0.42857142857142855,0.8571428571428571,0.0004
543,1.486891269683838,1.41963791847229,0.5,0.8269230769230769,0.42857142857142855,0.8571428571428571,0.0004
544,1.5948896408081055,1.235526442527771,0.4423076923076923,0.8269230769230769,0.5714285714285714,0.8571428571428571,0.0004
545,1.3409980535507202,1.3518242835998535,0.5384615384615384,0.8269230769230769,0.5,0.8571428571428571,0.0004
546,1.4603134393692017,1.1813212633132935,0.46153846153846156,0.8269230769230769,0.8571428571428571,0.8571428571428571,0.0004
547,1.5227397084236145,1.6589007377624512,0.5192307692307693,0.8269230769230769,0.35714285714285715,0.8571428571428571,0.0004
548,1.406995952129364,1.3735730648040771,0.5384615384615384,0.8269230769230769,0.5,0.8571428571428571,0.0004
549,1.341587483882904,1.6259636878967285,0.5769230769230769,0.8269230769230769,0.2857142857142857,0.8571428571428571,0.0004
550,1.4424545764923096,1.3281333446502686,0.5192307692307693,0.8269230769230769,0.7142857142857143,0.8571428571428571,0.0004
551,1.3261290192604065,1.3501484394073486,0.6153846153846154,0.8269230769230769,0.5714285714285714,0.8571428571428571,0.0004
552,1.4347213506698608,1.45181143283844,0.4807692307692308,0.8269230769230769,0.5,0.8571428571428571,0.0004
553,1.3286619186401367,1.5784873962402344,0.5192307692307693,0.8269230769230769,0.42857142857142855,0.8571428571428571,0.0004
554,1.4834272861480713,1.412413239479065,0.46153846153846156,0.8269230769230769,0.5,0.8571428571428571,0.0004
555,1.3617382049560547,1.439499020576477,0.5384615384615384,0.8269230769230769,0.6428571428571429,0.8571428571428571,0.0004
556,1.3983665108680725,1.3105576038360596,0.5576923076923077,0.8269230769230769,0.6428571428571429,0.8571428571428571,0.0004
557,1.3071600794792175,1.3475817441940308,0.5769230769230769,0.8269230769230769,0.5,0.8571428571428571,0.0004
558,1.4023596048355103,1.7156128883361816,0.5384615384615384,0.8269230769230769,0.35714285714285715,0.8571428571428571,0.0004
559,1.4109323620796204,1.4514870643615723,0.5576923076923077,0.8269230769230769,0.5714285714285714,0.8571428571428571,0.0004
560,1.4422035217285156,1.4993356466293335,0.4807692307692308,0.8269230769230769,0.5,0.8571428571428571,0.0004
561,1.2926084995269775,1.3484935760498047,0.5769230769230769,0.8269230769230769,0.5,0.8571428571428571,0.0004
562,1.2506825923919678,1.4901409149169922,0.6153846153846154,0.8269230769230769,0.35714285714285715,0.8571428571428571,0.0004
563,1.3701417446136475,1.116567850112915,0.46153846153846156,0.8269230769230769,0.6428571428571429,0.8571428571428571,0.0004
564,1.3209393620491028,1.4199796915054321,0.5769230769230769,0.8269230769230769,0.5714285714285714,0.8571428571428571,0.0004
565,1.376965045928955,1.5738661289215088,0.5576923076923077,0.8269230769230769,0.42857142857142855,0.8571428571428571,0.0004
566,1.4732293486595154,1.3544974327087402,0.46153846153846156,0.8269230769230769,0.5714285714285714,0.8571428571428571,0.0004
567,1.341629683971405,1.6066174507141113,0.5192307692307693,0.8269230769230769,0.5,0.8571428571428571,0.0004
568,1.5028542280197144,1.3932262659072876,0.46153846153846156,0.8269230769230769,0.5,0.8571428571428571,0.0004
569,1.4054031372070312,1.6169198751449585,0.5576923076923077,0.8269230769230769,0.42857142857142855,0.8571428571428571,0.0004
570,1.356532633304596,1.5530834197998047,0.5769230769230769,0.8269230769230769,0.5,0.8571428571428571,0.0004
571,1.2869868874549866,1.641895055770874,0.5769230769230769,0.8269230769230769,0.42857142857142855,0.8571428571428571,0.0004
572,1.397382140159607,1.4417405128479004,0.5,0.8269230769230769,0.5,0.8571428571428571,0.0004
573,1.5377304553985596,1.4514732360839844,0.36538461538461536,0.8269230769230769,0.42857142857142855,0.8571428571428571,0.0004
574,1.5826355814933777,1.5066335201263428,0.4230769230769231,0.8269230769230769,0.5,0.8571428571428571,0.0004
575,1.3813310861587524,1.4719393253326416,0.5576923076923077,0.8269230769230769,0.6428571428571429,0.8571428571428571,0.0004
576,1.3703040480613708,1.432320237159729,0.46153846153846156,0.8269230769230769,0.5714285714285714,0.8571428571428571,0.0004
577,1.4093540906906128,1.7027175426483154,0.5,0.8269230769230769,0.35714285714285715,0.8571428571428571,0.0004
578,1.344311773777008,1.706553339958191,0.5769230769230769,0.8269230769230769,0.2857142857142857,0.8571428571428571,0.0004
579,1.340366780757904,1.3641573190689087,0.4807692307692308,0.8269230769230769,0.5714285714285714,0.8571428571428571,0.0004
580,1.3434005975723267,1.6987634897232056,0.5192307692307693,0.8269230769230769,0.35714285714285715,0.8571428571428571,0.0004
581,1.327715516090393,1.4832873344421387,0.4807692307692308,0.8269230769230769,0.35714285714285715,0.8571428571428571,0.0004
582,1.3017019033432007,1.6436938047409058,0.5961538461538461,0.8269230769230769,0.42857142857142855,0.8571428571428571,0.0004
583,1.4064445495605469,1.4759865999221802,0.4807692307692308,0.8269230769230769,0.5,0.8571428571428571,0.0004
584,1.364796757698059,1.5908172130584717,0.6153846153846154,0.8269230769230769,0.42857142857142855,0.8571428571428571,0.0004
585,1.5725555419921875,1.6251680850982666,0.4423076923076923,0.8269230769230769,0.2857142857142857,0.8571428571428571,0.0004
586,1.4999746084213257,1.6416223049163818,0.4423076923076923,0.8269230769230769,0.2857142857142857,0.8571428571428571,0.0004
587,1.5182167887687683,1.510800838470459,0.38461538461538464,0.8269230769230769,0.35714285714285715,0.8571428571428571,0.0004
588,1.4201732873916626,1.5098505020141602,0.4423076923076923,0.8269230769230769,0.35714285714285715,0.8571428571428571,0.0004
589,1.3570206761360168,1.642240047454834,0.5192307692307693,0.8269230769230769,0.35714285714285715,0.8571428571428571,0.0004
590,1.289936125278473,1.567265510559082,0.5576923076923077,0.8269230769230769,0.42857142857142855,0.8571428571428571,0.0004
591,1.3963627815246582,1.2796903848648071,0.5576923076923077,0.8269230769230769,0.6428571428571429,0.8571428571428571,0.0004
592,1.5401743650436401,1.563725233078003,0.46153846153846156,0.8269230769230769,0.35714285714285715,0.8571428571428571,0.0004
593,1.4627946615219116,1.2646656036376953,0.4230769230769231,0.8269230769230769,0.6428571428571429,0.8571428571428571,0.0004
594,1.490038514137268,1.4878013134002686,0.5,0.8269230769230769,0.42857142857142855,0.8571428571428571,0.0004
595,1.4003334045410156,1.5093621015548706,0.5769230769230769,0.8269230769230769,0.5,0.8571428571428571,0.0004
596,1.4845656156539917,1.6205987930297852,0.5192307692307693,0.8269230769230769,0.42857142857142855,0.8571428571428571,0.0004
597,1.4370273351669312,1.5613765716552734,0.5384615384615384,0.8269230769230769,0.35714285714285715,0.8571428571428571,0.0004
598,1.4152768850326538,1.4473676681518555,0.5384615384615384,0.8269230769230769,0.42857142857142855,0.8571428571428571,0.0004
599,1.441733479499817,1.5838031768798828,0.5192307692307693,0.8269230769230769,0.42857142857142855,0.8571428571428571,0.0004
600,1.4266915917396545,1.4950990676879883,0.4423076923076923,0.8269230769230769,0.42857142857142855,0.8571428571428571,0.0004
601,1.427444040775299,1.563139796257019,0.5384615384615384,0.8269230769230769,0.2857142857142857,0.8571428571428571,0.0004
602,1.432323932647705,1.3472639322280884,0.46153846153846156,0.8269230769230769,0.5,0.8571428571428571,0.0004
603,1.394611656665802,1.3674567937850952,0.46153846153846156,0.8269230769230769,0.5714285714285714,0.8571428571428571,0.0004
604,1.4159358739852905,1.5228228569030762,0.5576923076923077,0.8269230769230769,0.35714285714285715,0.8571428571428571,0.0004
605,1.410112977027893,1.5074446201324463,0.5192307692307693,0.8269230769230769,0.42857142857142855,0.8571428571428571,0.0004
606,1.4300153851509094,1.3167308568954468,0.5769230769230769,0.8269230769230769,0.5714285714285714,0.8571428571428571,0.0004
607,1.3789807558059692,1.3969886302947998,0.5576923076923077,0.8269230769230769,0.5,0.8571428571428571,0.0004
608,1.425503134727478,1.5611495971679688,0.4230769230769231,0.8269230769230769,0.2857142857142857,0.8571428571428571,0.0004
609,1.3854478597640991,1.404036283493042,0.4807692307692308,0.8269230769230769,0.5,0.8571428571428571,0.0004
610,1.3898444175720215,1.451717734336853,0.4807692307692308,0.8269230769230769,0.5,0.8571428571428571,0.0004
611,1.3062148094177246,1.3543001413345337,0.6153846153846154,0.8269230769230769,0.42857142857142855,0.8571428571428571,0.0004
612,1.2953718304634094,1.579749345779419,0.6346153846153846,0.8269230769230769,0.2857142857142857,0.8571428571428571,0.0004
613,1.3749678134918213,1.639932632446289,0.5384615384615384,0.8269230769230769,0.2857142857142857,0.8571428571428571,0.0004
614,1.3547614812850952,1.566624641418457,0.5,0.8269230769230769,0.35714285714285715,0.8571428571428571,0.0004
615,1.3964166641235352,1.5858075618743896,0.5576923076923077,0.8269230769230769,0.35714285714285715,0.8571428571428571,0.0004
616,1.2906777262687683,1.6470184326171875,0.5192307692307693,0.8269230769230769,0.2857142857142857,0.8571428571428571,0.0004
617,1.41837477684021,1.2194855213165283,0.5192307692307693,0.8269230769230769,0.5714285714285714,0.8571428571428571,0.0004
618,1.4345476627349854,1.575192928314209,0.4423076923076923,0.8269230769230769,0.2857142857142857,0.8571428571428571,0.0004
619,1.3455085754394531,1.441251516342163,0.5384615384615384,0.8269230769230769,0.35714285714285715,0.8571428571428571,0.0004
620,1.3717175126075745,1.3684364557266235,0.5576923076923077,0.8269230769230769,0.5714285714285714,0.8571428571428571,0.0004
621,1.2700218558311462,1.37473464012146,0.6346153846153846,0.8269230769230769,0.5,0.8571428571428571,0.0004
622,1.351133406162262,1.413818120956421,0.5576923076923077,0.8269230769230769,0.35714285714285715,0.8571428571428571,0.0004
623,1.4813452363014221,1.5377042293548584,0.5,0.8269230769230769,0.35714285714285715,0.8571428571428571,0.0004
624,1.2966327667236328,1.4239449501037598,0.5,0.8269230769230769,0.5,0.8571428571428571,0.0004
625,1.488864004611969,1.237915277481079,0.4807692307692308,0.8269230769230769,0.5,0.8571428571428571,0.0004
626,1.4555053114891052,1.4264448881149292,0.5,0.8269230769230769,0.42857142857142855,0.8571428571428571,0.0004
627,1.2723649740219116,1.381279468536377,0.5576923076923077,0.8269230769230769,0.35714285714285715,0.8571428571428571,0.0004
628,1.33952397108078,1.398132562637329,0.5576923076923077,0.8269230769230769,0.42857142857142855,0.8571428571428571,0.0004
629,1.3906384110450745,1.7178364992141724,0.5192307692307693,0.8269230769230769,0.21428571428571427,0.8571428571428571,0.0004
630,1.3212870955467224,1.5057984590530396,0.5576923076923077,0.8269230769230769,0.42857142857142855,0.8571428571428571,0.0004
631,1.3928356766700745,1.4398577213287354,0.5576923076923077,0.8269230769230769,0.2857142857142857,0.8571428571428571,0.0004
632,1.3438493013381958,1.4386136531829834,0.5,0.8269230769230769,0.42857142857142855,0.8571428571428571,0.0004
633,1.4437360763549805,1.7061575651168823,0.5,0.8269230769230769,0.42857142857142855,0.8571428571428571,0.0004
634,1.429292619228363,1.4806030988693237,0.5384615384615384,0.8269230769230769,0.35714285714285715,0.8571428571428571,0.0004
635,1.4803093075752258,1.2466943264007568,0.46153846153846156,0.8269230769230769,0.6428571428571429,0.8571428571428571,0.0004
636,1.2480934858322144,1.6589157581329346,0.5769230769230769,0.8269230769230769,0.35714285714285715,0.8571428571428571,0.0004
637,1.3465498685836792,1.485250473022461,0.5769230769230769,0.8269230769230769,0.2857142857142857,0.8571428571428571,0.0004
638,1.2335127592086792,1.6129467487335205,0.6538461538461539,0.8269230769230769,0.35714285714285715,0.8571428571428571,0.0004
639,1.6046984791755676,1.1633234024047852,0.5,0.8269230769230769,0.5714285714285714,0.8571428571428571,0.0004
640,1.4089257717132568,1.480276346206665,0.5,0.8269230769230769,0.5,0.8571428571428571,0.0004
641,1.3338130712509155,1.4708185195922852,0.5384615384615384,0.8269230769230769,0.42857142857142855,0.8571428571428571,0.0004
642,1.4424402117729187,1.7126134634017944,0.5384615384615384,0.8269230769230769,0.2857142857142857,0.8571428571428571,0.0004
643,1.5158713459968567,1.5696110725402832,0.46153846153846156,0.8269230769230769,0.42857142857142855,0.8571428571428571,0.0004
644,1.3531233072280884,1.6823893785476685,0.5576923076923077,0.8269230769230769,0.21428571428571427,0.8571428571428571,0.0004
645,1.4054522514343262,1.4504907131195068,0.5192307692307693,0.8269230769230769,0.5,0.8571428571428571,0.0004
646,1.3891369104385376,1.4396694898605347,0.5384615384615384,0.8269230769230769,0.42857142857142855,0.8571428571428571,0.0004
647,1.439189612865448,1.4390594959259033,0.5,0.8269230769230769,0.42857142857142855,0.8571428571428571,0.0004
648,1.4004616737365723,1.408100962638855,0.5,0.8269230769230769,0.35714285714285715,0.8571428571428571,0.0004
649,1.3582170009613037,1.4143143892288208,0.46153846153846156,0.8269230769230769,0.42857142857142855,0.8571428571428571,0.0004
650,1.3947240114212036,1.3931485414505005,0.5576923076923077,0.8269230769230769,0.42857142857142855,0.8571428571428571,0.0004
651,1.380708932876587,1.5756763219833374,0.5769230769230769,0.8269230769230769,0.42857142857142855,0.8571428571428571,0.0004
652,1.3072825074195862,1.409728765487671,0.5384615384615384,0.8269230769230769,0.5,0.8571428571428571,0.0004
653,1.3912674188613892,1.6599509716033936,0.5192307692307693,0.8269230769230769,0.42857142857142855,0.8571428571428571,0.0004
654,1.337701141834259,1.625748872756958,0.5961538461538461,0.8269230769230769,0.2857142857142857,0.8571428571428571,0.0004
655,1.3477208018302917,1.5891237258911133,0.5769230769230769,0.8269230769230769,0.35714285714285715,0.8571428571428571,0.0004
656,1.3584560751914978,1.5540885925292969,0.5769230769230769,0.8269230769230769,0.2857142857142857,0.8571428571428571,0.0004
657,1.495487093925476,1.3550004959106445,0.46153846153846156,0.8269230769230769,0.5714285714285714,0.8571428571428571,0.0004
658,1.4269874095916748,1.4075826406478882,0.5,0.8269230769230769,0.42857142857142855,0.8571428571428571,0.0004
659,1.4335039854049683,1.4219210147857666,0.5192307692307693,0.8269230769230769,0.5,0.8571428571428571,0.0004
660,1.3579882383346558,1.3625917434692383,0.5384615384615384,0.8269230769230769,0.35714285714285715,0.8571428571428571,0.0004
661,1.3919649720191956,1.4853429794311523,0.5384615384615384,0.8269230769230769,0.42857142857142855,0.8571428571428571,0.0004
662,1.3197045922279358,1.3973056077957153,0.5961538461538461,0.8269230769230769,0.5,0.8571428571428571,0.0004
663,1.22584268450737,1.7645459175109863,0.6153846153846154,0.8269230769230769,0.14285714285714285,0.8571428571428571,0.0004
664,1.307513415813446,1.4617201089859009,0.5576923076923077,0.8269230769230769,0.42857142857142855,0.8571428571428571,0.0004
665,1.448119878768921,1.450656533241272,0.4230769230769231,0.8269230769230769,0.42857142857142855,0.8571428571428571,0.0004
666,1.2972919940948486,1.4692741632461548,0.5576923076923077,0.8269230769230769,0.5,0.8571428571428571,0.0004
667,1.370383620262146,1.5441405773162842,0.5,0.8269230769230769,0.35714285714285715,0.8571428571428571,0.0004
668,1.4287378787994385,1.4185043573379517,0.4423076923076923,0.8269230769230769,0.42857142857142855,0.8571428571428571,0.0004
669,1.502719521522522,1.3825931549072266,0.4230769230769231,0.8269230769230769,0.5,0.8571428571428571,0.0004
670,1.3614673614501953,1.3563334941864014,0.5192307692307693,0.8269230769230769,0.6428571428571429,0.8571428571428571,0.0004
671,1.338042676448822,1.5357577800750732,0.5769230769230769,0.8269230769230769,0.35714285714285715,0.8571428571428571,0.0004
672,1.3426689505577087,1.1508451700210571,0.5769230769230769,0.8269230769230769,0.6428571428571429,0.8571428571428571,0.0004
673,1.3738831281661987,1.393448829650879,0.5576923076923077,0.8269230769230769,0.5714285714285714,0.8571428571428571,0.0004
674,1.359125018119812,1.4526890516281128,0.5576923076923077,0.8269230769230769,0.35714285714285715,0.8571428571428571,0.0004
675,1.431727647781372,1.3539189100265503,0.5192307692307693,0.8269230769230769,0.6428571428571429,0.8571428571428571,0.0004
676,1.4477130770683289,1.431906819343567,0.46153846153846156,0.8269230769230769,0.42857142857142855,0.8571428571428571,0.0004
677,1.5295034050941467,1.6343941688537598,0.40384615384615385,0.8269230769230769,0.5,0.8571428571428571,0.0004
678,1.5538450479507446,1.695526123046875,0.4423076923076923,0.8269230769230769,0.35714285714285715,0.8571428571428571,0.0004
679,1.420695185661316,1.5559226274490356,0.5,0.8269230769230769,0.5,0.8571428571428571,0.0004
680,1.3935986757278442,1.4014179706573486,0.5192307692307693,0.8269230769230769,0.42857142857142855,0.8571428571428571,0.0004
681,1.3053078055381775,1.7225350141525269,0.5384615384615384,0.8269230769230769,0.21428571428571427,0.8571428571428571,0.0004
682,1.5235800743103027,1.4461270570755005,0.46153846153846156,0.8269230769230769,0.42857142857142855,0.8571428571428571,0.0004
683,1.4799907207489014,1.6430554389953613,0.5,0.8269230769230769,0.42857142857142855,0.8571428571428571,0.0004
684,1.5198692083358765,1.532198190689087,0.5192307692307693,0.8269230769230769,0.35714285714285715,0.8571428571428571,0.0004
685,1.4549656510353088,1.6514222621917725,0.5,0.8269230769230769,0.21428571428571427,0.8571428571428571,0.0004
686,1.5690113306045532,1.4404363632202148,0.38461538461538464,0.8269230769230769,0.5,0.8571428571428571,0.0004
687,1.3622431755065918,1.3960492610931396,0.5576923076923077,0.8269230769230769,0.5714285714285714,0.8571428571428571,0.0004
688,1.2884628772735596,1.4360811710357666,0.5384615384615384,0.8269230769230769,0.42857142857142855,0.8571428571428571,0.0004
689,1.340314507484436,1.560185432434082,0.5961538461538461,0.8269230769230769,0.35714285714285715,0.8571428571428571,0.0004
690,1.4447776675224304,1.4481008052825928,0.46153846153846156,0.8269230769230769,0.5,0.8571428571428571,0.0004
691,1.4193645119667053,1.2519335746765137,0.5,0.8269230769230769,0.5,0.8571428571428571,0.0004
692,1.4393319487571716,1.5459951162338257,0.4807692307692308,0.8269230769230769,0.5,0.8571428571428571,0.0004
693,1.3495826125144958,1.3697595596313477,0.5576923076923077,0.8269230769230769,0.5,0.8571428571428571,0.0004
694,1.4542067646980286,1.5235841274261475,0.5,0.8269230769230769,0.35714285714285715,0.8571428571428571,0.0004
695,1.4604971408843994,1.5680303573608398,0.46153846153846156,0.8269230769230769,0.42857142857142855,0.8571428571428571,0.0004
696,1.4076340198516846,1.6358354091644287,0.5576923076923077,0.8269230769230769,0.2857142857142857,0.8571428571428571,0.0004
697,1.4806331396102905,1.4436020851135254,0.40384615384615385,0.8269230769230769,0.42857142857142855,0.8571428571428571,0.0004
698,1.466464877128601,1.6094741821289062,0.4230769230769231,0.8269230769230769,0.2857142857142857,0.8571428571428571,0.0004
699,1.3399115204811096,1.1944609880447388,0.5192307692307693,0.8269230769230769,0.5714285714285714,0.8571428571428571,0.0004
700,1.4157368540763855,1.3988784551620483,0.46153846153846156,0.8269230769230769,0.5,0.8571428571428571,0.0004
701,1.3462907075881958,1.6165105104446411,0.5,0.8269230769230769,0.5,0.8571428571428571,0.0004
702,1.385308861732483,1.3643078804016113,0.4807692307692308,0.8269230769230769,0.5,0.8571428571428571,0.0004
703,1.435268521308899,1.4036812782287598,0.5576923076923077,0.8269230769230769,0.42857142857142855,0.8571428571428571,0.0004
704,1.4707924127578735,1.4496301412582397,0.46153846153846156,0.8269230769230769,0.42857142857142855,0.8571428571428571,0.0004
705,1.3537441492080688,1.4407875537872314,0.5,0.8269230769230769,0.5,0.8571428571428571,0.0004
706,1.30831778049469,1.1573922634124756,0.5576923076923077,0.8269230769230769,0.7142857142857143,0.8571428571428571,0.0004
707,1.4978601932525635,1.599933385848999,0.4423076923076923,0.8269230769230769,0.2857142857142857,0.8571428571428571,0.0004
708,1.3650555610656738,1.6799243688583374,0.5,0.8269230769230769,0.2857142857142857,0.8571428571428571,0.0004
709,1.4038971662521362,1.3194345235824585,0.5,0.8269230769230769,0.5714285714285714,0.8571428571428571,0.0004
710,1.3262314200401306,1.431077241897583,0.5961538461538461,0.8269230769230769,0.5,0.8571428571428571,0.0004
711,1.3600831031799316,1.6225762367248535,0.5576923076923077,0.8269230769230769,0.35714285714285715,0.8571428571428571,0.0004
712,1.4065935611724854,1.663189172744751,0.5,0.8269230769230769,0.2857142857142857,0.8571428571428571,0.0004
713,1.3409709334373474,1.34656822681427,0.5576923076923077,0.8269230769230769,0.5714285714285714,0.8571428571428571,0.0004
714,1.3060259222984314,1.5028132200241089,0.5961538461538461,0.8269230769230769,0.35714285714285715,0.8571428571428571,0.0004
715,1.4504101276397705,1.6044552326202393,0.40384615384615385,0.8269230769230769,0.35714285714285715,0.8571428571428571,0.0004
716,1.4389402270317078,1.4127211570739746,0.46153846153846156,0.8269230769230769,0.35714285714285715,0.8571428571428571,0.0004
717,1.3188554644584656,1.5175766944885254,0.5961538461538461,0.8269230769230769,0.5714285714285714,0.8571428571428571,0.0004
718,1.3082079887390137,1.3052233457565308,0.5769230769230769,0.8269230769230769,0.5714285714285714,0.8571428571428571,0.0004
719,1.439549446105957,1.5319936275482178,0.4423076923076923,0.8269230769230769,0.42857142857142855,0.8571428571428571,0.0004
720,1.383264183998108,1.664587140083313,0.5192307692307693,0.8269230769230769,0.35714285714285715,0.8571428571428571,0.0004
721,1.3738555312156677,1.2418296337127686,0.5192307692307693,0.8269230769230769,0.7142857142857143,0.8571428571428571,0.0004
722,1.2726168632507324,1.4924215078353882,0.5384615384615384,0.8269230769230769,0.42857142857142855,0.8571428571428571,0.0004
723,1.3452770113945007,1.4182496070861816,0.5,0.8269230769230769,0.5,0.8571428571428571,0.0004
724,1.3204171657562256,1.3648016452789307,0.5384615384615384,0.8269230769230769,0.35714285714285715,0.8571428571428571,0.0004
725,1.3871423602104187,1.49858820438385,0.4807692307692308,0.8269230769230769,0.35714285714285715,0.8571428571428571,0.0004
726,1.2614303231239319,1.4994957447052002,0.5961538461538461,0.8269230769230769,0.42857142857142855,0.8571428571428571,0.0004
727,1.4667353630065918,1.4123867750167847,0.46153846153846156,0.8269230769230769,0.5,0.8571428571428571,0.0004
728,1.2948297262191772,1.5361433029174805,0.5961538461538461,0.8269230769230769,0.42857142857142855,0.8571428571428571,0.0004
729,1.4908974170684814,1.2003737688064575,0.46153846153846156,0.8269230769230769,0.5714285714285714,0.8571428571428571,0.0004
730,1.3077740669250488,1.3353655338287354,0.6153846153846154,0.8269230769230769,0.42857142857142855,0.8571428571428571,0.0004
731,1.1924594640731812,1.226935625076294,0.6538461538461539,0.8269230769230769,0.5714285714285714,0.8571428571428571,0.0004
732,1.4082319140434265,1.3334499597549438,0.5384615384615384,0.8269230769230769,0.42857142857142855,0.8571428571428571,0.0004
733,1.2215787172317505,1.7094800472259521,0.6153846153846154,0.8269230769230769,0.2857142857142857,0.8571428571428571,0.0004
734,1.3231591582298279,1.6930959224700928,0.5,0.8269230769230769,0.21428571428571427,0.8571428571428571,0.0004
735,1.2892280220985413,1.3618253469467163,0.5192307692307693,0.8269230769230769,0.35714285714285715,0.8571428571428571,0.0004
736,1.6162502765655518,1.1299834251403809,0.40384615384615385,0.8269230769230769,0.5714285714285714,0.8571428571428571,0.0004
737,1.385549008846283,1.4752103090286255,0.5,0.8269230769230769,0.5,0.8571428571428571,0.0004
738,1.3164184093475342,1.487656593322754,0.5961538461538461,0.8269230769230769,0.42857142857142855,0.8571428571428571,0.0004
739,1.4528359174728394,1.5740559101104736,0.4807692307692308,0.8269230769230769,0.2857142857142857,0.8571428571428571,0.0004
740,1.341830849647522,1.6304302215576172,0.5961538461538461,0.8269230769230769,0.2857142857142857,0.8571428571428571,0.0004
741,1.4739385843276978,1.7103888988494873,0.4423076923076923,0.8269230769230769,0.21428571428571427,0.8571428571428571,0.0004
742,1.381692111492157,1.5266227722167969,0.4807692307692308,0.8269230769230769,0.5,0.8571428571428571,0.0004
743,1.3460959792137146,1.4846045970916748,0.5576923076923077,0.8269230769230769,0.5,0.8571428571428571,0.0004
744,1.2637949585914612,1.3920711278915405,0.5961538461538461,0.8269230769230769,0.42857142857142855,0.8571428571428571,0.0004
745,1.2370558381080627,1.524131178855896,0.5961538461538461,0.8269230769230769,0.2857142857142857,0.8571428571428571,0.0004
746,1.4224658608436584,1.5998950004577637,0.4807692307692308,0.8269230769230769,0.2857142857142857,0.8571428571428571,0.0004
747,1.4121789336204529,1.2513623237609863,0.5,0.8269230769230769,0.5714285714285714,0.8571428571428571,0.0004
748,1.2526634335517883,1.358282208442688,0.5961538461538461,0.8269230769230769,0.5,0.8571428571428571,0.0004
749,1.3089512586593628,1.6847999095916748,0.5384615384615384,0.8269230769230769,0.21428571428571427,0.8571428571428571,0.0004
750,1.3410401344299316,1.2263572216033936,0.5192307692307693,0.8269230769230769,0.6428571428571429,0.8571428571428571,0.0004
751,1.4145927429199219,1.2058806419372559,0.5384615384615384,0.8269230769230769,0.7142857142857143,0.8571428571428571,0.0004
752,1.3524547815322876,1.582999348640442,0.5384615384615384,0.8269230769230769,0.35714285714285715,0.8571428571428571,0.0004
753,1.3076547384262085,1.372613549232483,0.5961538461538461,0.8269230769230769,0.6428571428571429,0.8571428571428571,0.0004
754,1.5205788016319275,1.1629003286361694,0.40384615384615385,0.8269230769230769,0.7142857142857143,0.8571428571428571,0.0004
755,1.3721816539764404,1.2699466943740845,0.5576923076923077,0.8269230769230769,0.6428571428571429,0.8571428571428571,0.0004
756,1.451599895954132,1.4502124786376953,0.4230769230769231,0.8269230769230769,0.5,0.8571428571428571,0.0004
757,1.4173930883407593,1.561350703239441,0.5576923076923077,0.8269230769230769,0.35714285714285715,0.8571428571428571,0.0004
758,1.399671494960785,1.6168463230133057,0.5,0.8269230769230769,0.2857142857142857,0.8571428571428571,0.0004
759,1.3717046976089478,1.4175742864608765,0.5192307692307693,0.8269230769230769,0.5,0.8571428571428571,0.0004
760,1.3585090637207031,1.4577438831329346,0.5192307692307693,0.8269230769230769,0.5,0.8571428571428571,0.0004
761,1.3519700765609741,1.5083842277526855,0.5192307692307693,0.8269230769230769,0.5,0.8571428571428571,0.0004
762,1.3096758723258972,1.4993865489959717,0.5769230769230769,0.8269230769230769,0.5714285714285714,0.8571428571428571,0.0004
763,1.4914273619651794,1.3573429584503174,0.4230769230769231,0.8269230769230769,0.5714285714285714,0.8571428571428571,0.0004
764,1.3543678522109985,1.4868054389953613,0.5,0.8269230769230769,0.42857142857142855,0.8571428571428571,0.0004
765,1.3168372511863708,1.3912075757980347,0.5961538461538461,0.8269230769230769,0.35714285714285715,0.8571428571428571,0.0004
766,1.3848368525505066,1.2719911336898804,0.46153846153846156,0.8269230769230769,0.6428571428571429,0.8571428571428571,0.0004
767,1.3312883377075195,1.3277760744094849,0.5576923076923077,0.8269230769230769,0.5,0.8571428571428571,0.0004
768,1.2391478419303894,1.1589233875274658,0.5769230769230769,0.8269230769230769,0.5714285714285714,0.8571428571428571,0.0004
769,1.391438066959381,1.5458133220672607,0.5192307692307693,0.8269230769230769,0.2857142857142857,0.8571428571428571,0.0004
770,1.231104850769043,1.5072214603424072,0.5576923076923077,0.8269230769230769,0.5,0.8571428571428571,0.0004
771,1.249426543712616,1.452348232269287,0.5576923076923077,0.8269230769230769,0.5,0.8571428571428571,0.0004
772,1.3730245232582092,1.6409329175949097,0.5384615384615384,0.8269230769230769,0.42857142857142855,0.8571428571428571,0.0004
773,1.4721901416778564,1.4257736206054688,0.46153846153846156,0.8269230769230769,0.5,0.8571428571428571,0.0004
774,1.353803277015686,1.5373579263687134,0.5576923076923077,0.8269230769230769,0.5,0.8571428571428571,0.0004
775,1.259639859199524,1.5708709955215454,0.5576923076923077,0.8269230769230769,0.5,0.8571428571428571,0.0004
776,1.3178802728652954,1.5351269245147705,0.5576923076923077,0.8269230769230769,0.2857142857142857,0.8571428571428571,0.0004
777,1.3366491198539734,1.2430843114852905,0.5769230769230769,0.8269230769230769,0.5714285714285714,0.8571428571428571,0.0004
778,1.2449373602867126,1.4179977178573608,0.6153846153846154,0.8269230769230769,0.42857142857142855,0.8571428571428571,0.0004
779,1.2453333139419556,1.408968210220337,0.5961538461538461,0.8269230769230769,0.42857142857142855,0.8571428571428571,0.0004
780,1.2825647592544556,1.2729017734527588,0.5384615384615384,0.8269230769230769,0.5,0.8571428571428571,0.0004
781,1.4288164973258972,1.5879976749420166,0.5,0.8269230769230769,0.5,0.8571428571428571,0.0004
782,1.5513964891433716,1.2983776330947876,0.4423076923076923,0.8269230769230769,0.5714285714285714,0.8571428571428571,0.0004
783,1.5220430493354797,1.3281664848327637,0.4423076923076923,0.8269230769230769,0.5714285714285714,0.8571428571428571,0.0004
784,1.4528655409812927,1.6429665088653564,0.4807692307692308,0.8269230769230769,0.2857142857142857,0.8571428571428571,0.0004
785,1.4342086911201477,1.5369435548782349,0.5,0.8269230769230769,0.35714285714285715,0.8571428571428571,0.0004
786,1.2652809023857117,1.2214285135269165,0.5769230769230769,0.8269230769230769,0.6428571428571429,0.8571428571428571,0.0004
787,1.4571942687034607,1.2317149639129639,0.5,0.8269230769230769,0.5714285714285714,0.8571428571428571,0.0004
788,1.4445477724075317,1.37408447265625,0.46153846153846156,0.8269230769230769,0.42857142857142855,0.8571428571428571,0.0004
789,1.2240676879882812,1.087615728378296,0.5769230769230769,0.8269230769230769,0.6428571428571429,0.8571428571428571,0.0004
790,1.4568337202072144,1.4878106117248535,0.4807692307692308,0.8269230769230769,0.42857142857142855,0.8571428571428571,0.0004
791,1.2831393480300903,1.590397596359253,0.5384615384615384,0.8269230769230769,0.42857142857142855,0.8571428571428571,0.0004
792,1.4653408527374268,1.329915165901184,0.4230769230769231,0.8269230769230769,0.6428571428571429,0.8571428571428571,0.0004
793,1.4583115577697754,1.235248327255249,0.4423076923076923,0.8269230769230769,0.5,0.8571428571428571,0.0004
794,1.3623480200767517,1.360632300376892,0.4807692307692308,0.8269230769230769,0.5,0.8571428571428571,0.0004
795,1.4347596764564514,1.382460594177246,0.4230769230769231,0.8269230769230769,0.5,0.8571428571428571,0.0004
796,1.312951922416687,1.1991052627563477,0.5769230769230769,0.8269230769230769,0.6428571428571429,0.8571428571428571,0.0004
797,1.4325488805770874,1.4081342220306396,0.4807692307692308,0.8269230769230769,0.5714285714285714,0.8571428571428571,0.0004
798,1.398967206478119,1.159974217414856,0.5384615384615384,0.8269230769230769,0.7142857142857143,0.8571428571428571,0.0004
799,1.3292806148529053,1.6140637397766113,0.5576923076923077,0.8269230769230769,0.5,0.8571428571428571,0.0004
800,1.391348123550415,1.321207046508789,0.5,0.8269230769230769,0.6428571428571429,0.8571428571428571,0.0004
801,1.242163062095642,1.264750361442566,0.5961538461538461,0.8269230769230769,0.5714285714285714,0.8571428571428571,0.0004
802,1.240619719028473,1.2810170650482178,0.6346153846153846,0.8269230769230769,0.5714285714285714,0.8571428571428571,0.0004
803,1.3923853039741516,1.536285400390625,0.5,0.8269230769230769,0.35714285714285715,0.8571428571428571,0.0004
804,1.627405822277069,1.6152530908584595,0.38461538461538464,0.8269230769230769,0.2857142857142857,0.8571428571428571,0.0004
805,1.5548233389854431,1.3534609079360962,0.4230769230769231,0.8269230769230769,0.42857142857142855,0.8571428571428571,0.0004
806,1.3767700791358948,1.30906343460083,0.4807692307692308,0.8269230769230769,0.5714285714285714,0.8571428571428571,0.0004
807,1.4278484582901,1.3250032663345337,0.5,0.8269230769230769,0.42857142857142855,0.8571428571428571,0.0004
808,1.3750249743461609,1.2706387042999268,0.5192307692307693,0.8269230769230769,0.5714285714285714,0.8571428571428571,0.0004
809,1.4465996026992798,1.4797297716140747,0.5384615384615384,0.8269230769230769,0.35714285714285715,0.8571428571428571,0.0004
810,1.3655278086662292,1.580782413482666,0.5,0.8269230769230769,0.42857142857142855,0.8571428571428571,0.0004
811,1.3675619959831238,1.365929365158081,0.5384615384615384,0.8269230769230769,0.5,0.8571428571428571,0.0004
812,1.4952644109725952,1.5641894340515137,0.4423076923076923,0.8269230769230769,0.35714285714285715,0.8571428571428571,0.0004
813,1.3954277634620667,1.5078315734863281,0.5,0.8269230769230769,0.35714285714285715,0.8571428571428571,0.0004
814,1.3616892099380493,1.2176942825317383,0.5192307692307693,0.8269230769230769,0.5714285714285714,0.8571428571428571,0.0004
815,1.3314284682273865,1.46522855758667,0.5576923076923077,0.8269230769230769,0.35714285714285715,0.8571428571428571,0.0004
816,1.3456873893737793,1.638116478919983,0.5576923076923077,0.8269230769230769,0.2857142857142857,0.8571428571428571,0.0004
817,1.3363173007965088,1.7682061195373535,0.5,0.8269230769230769,0.2857142857142857,0.8571428571428571,0.0004
818,1.3271523714065552,1.4380357265472412,0.5961538461538461,0.8269230769230769,0.42857142857142855,0.8571428571428571,0.0004
819,1.4083967208862305,1.589430570602417,0.5384615384615384,0.8269230769230769,0.2857142857142857,0.8571428571428571,0.0004
820,1.3315336108207703,1.3991376161575317,0.5576923076923077,0.8269230769230769,0.42857142857142855,0.8571428571428571,0.0004
821,1.294189453125,1.801175594329834,0.5576923076923077,0.8269230769230769,0.21428571428571427,0.8571428571428571,0.0004
822,1.2160988450050354,1.5531667470932007,0.5961538461538461,0.8269230769230769,0.35714285714285715,0.8571428571428571,0.0004
823,1.3644552826881409,1.4050910472869873,0.5192307692307693,0.8269230769230769,0.5714285714285714,0.8571428571428571,0.0004
824,1.3112967014312744,1.493231177330017,0.5769230769230769,0.8269230769230769,0.42857142857142855,0.8571428571428571,0.0004
825,1.329405128955841,1.606520175933838,0.5576923076923077,0.8269230769230769,0.2857142857142857,0.8571428571428571,0.0004
826,1.2687774300575256,1.3761645555496216,0.6153846153846154,0.8269230769230769,0.35714285714285715,0.8571428571428571,0.0004
827,1.2251849174499512,1.165266752243042,0.5769230769230769,0.8269230769230769,0.6428571428571429,0.8571428571428571,0.0004
828,1.2518439888954163,1.442204236984253,0.5769230769230769,0.8269230769230769,0.5714285714285714,0.8571428571428571,0.0004
829,1.3676748871803284,1.6153432130813599,0.4423076923076923,0.8269230769230769,0.35714285714285715,0.8571428571428571,0.0004
830,1.4171410202980042,1.2098662853240967,0.38461538461538464,0.8269230769230769,0.5714285714285714,0.8571428571428571,0.0004
831,1.4825171828269958,1.2998524904251099,0.5192307692307693,0.8269230769230769,0.6428571428571429,0.8571428571428571,0.0004
832,1.3361274003982544,1.4085432291030884,0.5769230769230769,0.8269230769230769,0.5,0.8571428571428571,0.0004
833,1.3856946229934692,1.4692879915237427,0.5576923076923077,0.8269230769230769,0.5,0.8571428571428571,0.0004
834,1.3952711820602417,1.1810593605041504,0.4807692307692308,0.8269230769230769,0.7142857142857143,0.8571428571428571,0.0004
835,1.2652802467346191,1.4919737577438354,0.5961538461538461,0.8269230769230769,0.5,0.8571428571428571,0.0004
836,1.5348484516143799,1.4660162925720215,0.40384615384615385,0.8269230769230769,0.5,0.8571428571428571,0.0004
837,1.3807952404022217,1.6410582065582275,0.5,0.8269230769230769,0.35714285714285715,0.8571428571428571,0.0004
838,1.391606092453003,1.644845724105835,0.5,0.8269230769230769,0.42857142857142855,0.8571428571428571,0.0004
839,1.4740557074546814,1.4309555292129517,0.4807692307692308,0.8269230769230769,0.5714285714285714,0.8571428571428571,0.0004
840,1.485283374786377,1.6893216371536255,0.46153846153846156,0.8269230769230769,0.35714285714285715,0.8571428571428571,0.0004
841,1.5711873173713684,1.7041962146759033,0.36538461538461536,0.8269230769230769,0.35714285714285715,0.8571428571428571,0.0004
842,1.4005331993103027,1.3856635093688965,0.5,0.8269230769230769,0.5,0.8571428571428571,0.0004
843,1.3842210173606873,1.4591994285583496,0.5384615384615384,0.8269230769230769,0.5,0.8571428571428571,0.0004
844,1.2518298625946045,1.4373283386230469,0.6346153846153846,0.8269230769230769,0.42857142857142855,0.8571428571428571,0.0004
845,1.3675069212913513,1.4963395595550537,0.5192307692307693,0.8269230769230769,0.5,0.8571428571428571,0.0004
846,1.4280737042427063,1.5628156661987305,0.46153846153846156,0.8269230769230769,0.42857142857142855,0.8571428571428571,0.0004
847,1.4659645557403564,1.6886682510375977,0.4807692307692308,0.8269230769230769,0.2857142857142857,0.8571428571428571,0.0004
848,1.3823180794715881,1.250220775604248,0.5192307692307693,0.8269230769230769,0.5714285714285714,0.8571428571428571,0.0004
849,1.564555048942566,1.2394945621490479,0.40384615384615385,0.8269230769230769,0.5714285714285714,0.8571428571428571,0.0004
850,1.4661950469017029,1.4041643142700195,0.4807692307692308,0.8269230769230769,0.5,0.8571428571428571,0.0004
851,1.3376734256744385,1.3990330696105957,0.5384615384615384,0.8269230769230769,0.42857142857142855,0.8571428571428571,0.0004
852,1.4088361859321594,1.255061388015747,0.5192307692307693,0.8269230769230769,0.5,0.8571428571428571,0.0004
853,1.2588898539543152,1.5244019031524658,0.5769230769230769,0.8269230769230769,0.5,0.8571428571428571,0.0004
854,1.3789462447166443,1.3976249694824219,0.5192307692307693,0.8269230769230769,0.42857142857142855,0.8571428571428571,0.0004
855,1.316462516784668,1.2825798988342285,0.5576923076923077,0.8269230769230769,0.5,0.8571428571428571,0.0004
856,1.3912675976753235,1.4507262706756592,0.5,0.8269230769230769,0.5,0.8571428571428571,0.0004
857,1.348926603794098,1.2767462730407715,0.5576923076923077,0.8269230769230769,0.5714285714285714,0.8571428571428571,0.0004
858,1.4413092136383057,1.376854419708252,0.4423076923076923,0.8269230769230769,0.5,0.8571428571428571,0.0004
859,1.3552994132041931,1.3843833208084106,0.5384615384615384,0.8269230769230769,0.42857142857142855,0.8571428571428571,0.0004
860,1.3989662528038025,1.1762539148330688,0.5,0.8269230769230769,0.7142857142857143,0.8571428571428571,0.0004
861,1.480582594871521,1.3263537883758545,0.4423076923076923,0.8269230769230769,0.5,0.8571428571428571,0.0004
862,1.3812301754951477,1.278619408607483,0.5192307692307693,0.8269230769230769,0.5,0.8571428571428571,0.0004
863,1.3571796417236328,1.6400268077850342,0.5384615384615384,0.8269230769230769,0.21428571428571427,0.8571428571428571,0.0004
864,1.4024505615234375,1.4604275226593018,0.5576923076923077,0.8269230769230769,0.5,0.8571428571428571,0.0004
865,1.4268004298210144,1.4756581783294678,0.5192307692307693,0.8269230769230769,0.5,0.8571428571428571,0.0004
866,1.346999704837799,1.39454984664917,0.5192307692307693,0.8269230769230769,0.5,0.8571428571428571,0.0004
867,1.371173620223999,1.5042781829833984,0.5384615384615384,0.8269230769230769,0.2857142857142857,0.8571428571428571,0.0004
868,1.4920966029167175,1.3561967611312866,0.46153846153846156,0.8269230769230769,0.5714285714285714,0.8571428571428571,0.0004
869,1.4763882160186768,1.4120346307754517,0.46153846153846156,0.8269230769230769,0.42857142857142855,0.8571428571428571,0.0004
870,1.3354047536849976,1.039017677307129,0.6346153846153846,0.8269230769230769,0.7142857142857143,0.8571428571428571,0.0004
871,1.2612420916557312,1.3120638132095337,0.5769230769230769,0.8269230769230769,0.5,0.8571428571428571,0.0004
872,1.3167330622673035,1.2536197900772095,0.5384615384615384,0.8269230769230769,0.5,0.8571428571428571,0.0004
873,1.3475643396377563,1.4435169696807861,0.5769230769230769,0.8269230769230769,0.35714285714285715,0.8571428571428571,0.0004
874,1.310774803161621,1.3224117755889893,0.5769230769230769,0.8269230769230769,0.5,0.8571428571428571,0.0004
875,1.3300036191940308,1.5718343257904053,0.5769230769230769,0.8269230769230769,0.21428571428571427,0.8571428571428571,0.0004
876,1.3509697914123535,1.3556256294250488,0.5192307692307693,0.8269230769230769,0.5,0.8571428571428571,0.0004
877,1.3937538266181946,1.3143991231918335,0.5576923076923077,0.8269230769230769,0.5714285714285714,0.8571428571428571,0.0004
878,1.4046733975410461,1.476572036743164,0.5576923076923077,0.8269230769230769,0.42857142857142855,0.8571428571428571,0.0004
879,1.298359453678131,1.5672627687454224,0.5192307692307693,0.8269230769230769,0.42857142857142855,0.8571428571428571,0.0004
880,1.4716699123382568,1.3115118741989136,0.46153846153846156,0.8269230769230769,0.5714285714285714,0.8571428571428571,0.0004
881,1.4445052742958069,1.643677830696106,0.5192307692307693,0.8269230769230769,0.2857142857142857,0.8571428571428571,0.0004
882,1.4426574110984802,1.3385837078094482,0.4807692307692308,0.8269230769230769,0.5,0.8571428571428571,0.0004
883,1.387390911579132,1.34760582447052,0.5192307692307693,0.8269230769230769,0.42857142857142855,0.8571428571428571,0.0004
884,1.3274513483047485,1.3318676948547363,0.5384615384615384,0.8269230769230769,0.5,0.8571428571428571,0.0004
885,1.364601194858551,1.22133207321167,0.5384615384615384,0.8269230769230769,0.5714285714285714,0.8571428571428571,0.0004
886,1.355231523513794,1.5505982637405396,0.5192307692307693,0.8269230769230769,0.42857142857142855,0.8571428571428571,0.0004
887,1.3008079528808594,1.670712947845459,0.5961538461538461,0.8269230769230769,0.2857142857142857,0.8571428571428571,0.0004
888,1.4189398288726807,1.6541030406951904,0.46153846153846156,0.8269230769230769,0.35714285714285715,0.8571428571428571,0.0004
889,1.2453103065490723,1.3317692279815674,0.5769230769230769,0.8269230769230769,0.5,0.8571428571428571,0.0004
890,1.2821407318115234,1.4376401901245117,0.5961538461538461,0.8269230769230769,0.5,0.8571428571428571,0.0004
891,1.284421980381012,1.1736350059509277,0.5192307692307693,0.8269230769230769,0.5714285714285714,0.8571428571428571,0.0004
892,1.2871225476264954,1.4885108470916748,0.5576923076923077,0.8269230769230769,0.42857142857142855,0.8571428571428571,0.0004
893,1.3164930939674377,1.1693739891052246,0.5192307692307693,0.8269230769230769,0.5714285714285714,0.8571428571428571,0.0004
894,1.4071419835090637,1.4157686233520508,0.4807692307692308,0.8269230769230769,0.5714285714285714,0.8571428571428571,0.0004
895,1.2327967882156372,1.6679601669311523,0.5576923076923077,0.8269230769230769,0.35714285714285715,0.8571428571428571,0.0004
896,1.4028907418251038,1.2222117185592651,0.46153846153846156,0.8269230769230769,0.6428571428571429,0.8571428571428571,0.0004
897,1.2498329281806946,1.4041393995285034,0.5576923076923077,0.8269230769230769,0.42857142857142855,0.8571428571428571,0.0004
898,1.5047205686569214,1.5351604223251343,0.5,0.8269230769230769,0.2857142857142857,0.8571428571428571,0.0004
899,1.3487911820411682,1.171796202659607,0.5384615384615384,0.8269230769230769,0.5714285714285714,0.8571428571428571,0.0004
900,1.3250424265861511,1.181848168373108,0.6153846153846154,0.8269230769230769,0.5714285714285714,0.8571428571428571,0.0004
901,1.2859871983528137,1.2146377563476562,0.5,0.8269230769230769,0.5,0.8571428571428571,0.0004
902,1.325111985206604,1.6478619575500488,0.5,0.8269230769230769,0.42857142857142855,0.8571428571428571,0.0004
903,1.34612637758255,1.399868369102478,0.5,0.8269230769230769,0.42857142857142855,0.8571428571428571,0.0004
904,1.4773699641227722,1.4584195613861084,0.4230769230769231,0.8269230769230769,0.5,0.8571428571428571,0.0004
905,1.3132209777832031,1.4836061000823975,0.5384615384615384,0.8269230769230769,0.5,0.8571428571428571,0.0004
906,1.4363127946853638,1.3258004188537598,0.4230769230769231,0.8269230769230769,0.5,0.8571428571428571,0.0004
907,1.3635109663009644,1.4587393999099731,0.5192307692307693,0.8269230769230769,0.5,0.8571428571428571,0.0004
908,1.3243969678878784,1.2908155918121338,0.5961538461538461,0.8269230769230769,0.5714285714285714,0.8571428571428571,0.0004
909,1.2518388032913208,1.2320148944854736,0.6346153846153846,0.8269230769230769,0.7142857142857143,0.8571428571428571,0.0004
910,1.356137990951538,1.4252581596374512,0.5,0.8269230769230769,0.42857142857142855,0.8571428571428571,0.0004
911,1.2627117037773132,1.3593106269836426,0.5961538461538461,0.8269230769230769,0.5,0.8571428571428571,0.0004
912,1.3860055208206177,1.5681887865066528,0.5192307692307693,0.8269230769230769,0.35714285714285715,0.8571428571428571,0.0004
913,1.4315065741539001,1.4507523775100708,0.5,0.8269230769230769,0.35714285714285715,0.8571428571428571,0.0004
914,1.2893603444099426,1.381542682647705,0.6153846153846154,0.8269230769230769,0.5,0.8571428571428571,0.0004
915,1.300599455833435,1.361555814743042,0.5384615384615384,0.8269230769230769,0.5714285714285714,0.8571428571428571,0.0004
916,1.4261012077331543,1.5392119884490967,0.4807692307692308,0.8269230769230769,0.42857142857142855,0.8571428571428571,0.0004
917,1.4932337403297424,1.7332541942596436,0.5384615384615384,0.8269230769230769,0.35714285714285715,0.8571428571428571,0.0004
918,1.371567964553833,1.3528093099594116,0.5384615384615384,0.8269230769230769,0.5,0.8571428571428571,0.0004
919,1.4528775811195374,1.6964914798736572,0.46153846153846156,0.8269230769230769,0.2857142857142857,0.8571428571428571,0.0004
920,1.3754698634147644,1.505388617515564,0.5192307692307693,0.8269230769230769,0.35714285714285715,0.8571428571428571,0.0004
921,1.409123182296753,1.4225047826766968,0.4807692307692308,0.8269230769230769,0.42857142857142855,0.8571428571428571,0.0004
922,1.490924596786499,1.2447876930236816,0.4807692307692308,0.8269230769230769,0.5714285714285714,0.8571428571428571,0.0004
923,1.196368157863617,1.538499116897583,0.6346153846153846,0.8269230769230769,0.35714285714285715,0.8571428571428571,0.0004
924,1.3762911558151245,1.5129830837249756,0.4807692307692308,0.8269230769230769,0.42857142857142855,0.8571428571428571,0.0004
925,1.4486770033836365,1.198222279548645,0.46153846153846156,0.8269230769230769,0.7142857142857143,0.8571428571428571,0.0004
926,1.3293413519859314,1.6298128366470337,0.5192307692307693,0.8269230769230769,0.35714285714285715,0.8571428571428571,0.0004
927,1.3376787304878235,1.5205928087234497,0.5576923076923077,0.8269230769230769,0.5,0.8571428571428571,0.0004
928,1.2709530591964722,1.431169867515564,0.5961538461538461,0.8269230769230769,0.35714285714285715,0.8571428571428571,0.0004
929,1.4827596545219421,1.3919907808303833,0.4423076923076923,0.8269230769230769,0.35714285714285715,0.8571428571428571,0.0004
930,1.4023616313934326,1.3764699697494507,0.46153846153846156,0.8269230769230769,0.5714285714285714,0.8571428571428571,0.0004
931,1.2975005507469177,1.4880026578903198,0.6153846153846154,0.8269230769230769,0.42857142857142855,0.8571428571428571,0.0004
932,1.2133121490478516,1.601175308227539,0.6346153846153846,0.8269230769230769,0.35714285714285715,0.8571428571428571,0.0004
933,1.2655410170555115,1.3594517707824707,0.5769230769230769,0.8269230769230769,0.42857142857142855,0.8571428571428571,0.0004
934,1.4312881231307983,1.3899905681610107,0.5,0.8269230769230769,0.5714285714285714,0.8571428571428571,0.0004
935,1.2999762892723083,1.5693186521530151,0.5192307692307693,0.8269230769230769,0.35714285714285715,0.8571428571428571,0.0004
936,1.308283805847168,1.3234729766845703,0.5384615384615384,0.8269230769230769,0.5714285714285714,0.8571428571428571,0.0004
937,1.4025378823280334,1.4468328952789307,0.5,0.8269230769230769,0.35714285714285715,0.8571428571428571,0.0004
938,1.27408766746521,1.7304539680480957,0.5961538461538461,0.8269230769230769,0.14285714285714285,0.8571428571428571,0.0004
939,1.454606056213379,1.5409141778945923,0.5192307692307693,0.8269230769230769,0.35714285714285715,0.8571428571428571,0.0004
940,1.4527810215950012,1.5825016498565674,0.5384615384615384,0.8269230769230769,0.2857142857142857,0.8571428571428571,0.0004
941,1.399443805217743,1.5512540340423584,0.5,0.8269230769230769,0.35714285714285715,0.8571428571428571,0.0004
942,1.3333365321159363,1.52926766872406,0.5576923076923077,0.8269230769230769,0.35714285714285715,0.8571428571428571,0.0004
943,1.20265531539917,1.3890204429626465,0.5961538461538461,0.8269230769230769,0.5714285714285714,0.8571428571428571,0.0004
944,1.4044125080108643,1.45660400390625,0.4807692307692308,0.8269230769230769,0.5,0.8571428571428571,0.0004
945,1.3094058632850647,1.538470983505249,0.5384615384615384,0.8269230769230769,0.42857142857142855,0.8571428571428571,0.0004
946,1.1736698150634766,1.515488862991333,0.6730769230769231,0.8269230769230769,0.2857142857142857,0.8571428571428571,0.0004
947,1.4339000582695007,1.325905442237854,0.5192307692307693,0.8269230769230769,0.42857142857142855,0.8571428571428571,0.0004
948,1.3720073103904724,1.5072029829025269,0.5,0.8269230769230769,0.42857142857142855,0.8571428571428571,0.0004
949,1.3926301002502441,1.5732172727584839,0.5576923076923077,0.8269230769230769,0.42857142857142855,0.8571428571428571,0.0004
950,1.1829859018325806,1.6213769912719727,0.6346153846153846,0.8269230769230769,0.35714285714285715,0.8571428571428571,0.0004
951,1.4527855515480042,1.3814135789871216,0.46153846153846156,0.8269230769230769,0.5,0.8571428571428571,0.0004
952,1.3473942279815674,1.5632368326187134,0.5192307692307693,0.8269230769230769,0.42857142857142855,0.8571428571428571,0.0004
953,1.3673627376556396,1.4372708797454834,0.5576923076923077,0.8269230769230769,0.42857142857142855,0.8571428571428571,0.0004
954,1.3789288401603699,1.3838597536087036,0.5384615384615384,0.8269230769230769,0.5,0.8571428571428571,0.0004
955,1.3128722310066223,1.5449793338775635,0.5384615384615384,0.8269230769230769,0.42857142857142855,0.8571428571428571,0.0004
956,1.4256836771965027,1.5648971796035767,0.5384615384615384,0.8269230769230769,0.35714285714285715,0.8571428571428571,0.0004
957,1.4302055835723877,1.436874508857727,0.4807692307692308,0.8269230769230769,0.42857142857142855,0.8571428571428571,0.0004
958,1.398719310760498,1.2369297742843628,0.5384615384615384,0.8269230769230769,0.5,0.8571428571428571,0.0004
959,1.3101400136947632,1.3206454515457153,0.5576923076923077,0.8269230769230769,0.5,0.8571428571428571,0.0004
960,1.2082002758979797,1.2823936939239502,0.5769230769230769,0.8269230769230769,0.5714285714285714,0.8571428571428571,0.0004
961,1.4074256420135498,1.4530713558197021,0.4807692307692308,0.8269230769230769,0.5,0.8571428571428571,0.0004
962,1.4259722232818604,1.517472743988037,0.5384615384615384,0.8269230769230769,0.35714285714285715,0.8571428571428571,0.0004
963,1.3809468746185303,1.5135588645935059,0.5384615384615384,0.8269230769230769,0.42857142857142855,0.8571428571428571,0.0004
964,1.4532533288002014,1.305595874786377,0.4807692307692308,0.8269230769230769,0.5,0.8571428571428571,0.0004
965,1.3363459706306458,1.181304693222046,0.5576923076923077,0.8269230769230769,0.6428571428571429,0.8571428571428571,0.0004
966,1.3468431234359741,1.2845760583877563,0.5576923076923077,0.8269230769230769,0.42857142857142855,0.8571428571428571,0.0004
967,1.3459630608558655,1.3285279273986816,0.5384615384615384,0.8269230769230769,0.5,0.8571428571428571,0.0004
968,1.2962019443511963,1.272831678390503,0.5576923076923077,0.8269230769230769,0.5,0.8571428571428571,0.0004
969,1.345004379749298,1.381540060043335,0.5192307692307693,0.8269230769230769,0.5714285714285714,0.8571428571428571,0.0004
970,1.4127987027168274,1.4000892639160156,0.4807692307692308,0.8269230769230769,0.5,0.8571428571428571,0.0004
971,1.403914988040924,1.4801745414733887,0.46153846153846156,0.8269230769230769,0.35714285714285715,0.8571428571428571,0.0004
972,1.4700392484664917,1.4224098920822144,0.4807692307692308,0.8269230769230769,0.5714285714285714,0.8571428571428571,0.0004
973,1.4603217840194702,1.412113904953003,0.46153846153846156,0.8269230769230769,0.42857142857142855,0.8571428571428571,0.0004
974,1.447176456451416,1.6183631420135498,0.4807692307692308,0.8269230769230769,0.42857142857142855,0.8571428571428571,0.0004
975,1.4786176681518555,1.4339652061462402,0.4423076923076923,0.8269230769230769,0.5,0.8571428571428571,0.0004
976,1.3393983244895935,1.5548975467681885,0.5,0.8269230769230769,0.42857142857142855,0.8571428571428571,0.0004
977,1.3720226287841797,1.335240125656128,0.5384615384615384,0.8269230769230769,0.42857142857142855,0.8571428571428571,0.0004
978,1.21280175447464,1.4706346988677979,0.6153846153846154,0.8269230769230769,0.35714285714285715,0.8571428571428571,0.0004
979,1.388358235359192,1.5232043266296387,0.5192307692307693,0.8269230769230769,0.35714285714285715,0.8571428571428571,0.0004
980,1.5257477164268494,1.4704056978225708,0.46153846153846156,0.8269230769230769,0.42857142857142855,0.8571428571428571,0.0004
981,1.4284116625785828,1.4629201889038086,0.46153846153846156,0.8269230769230769,0.42857142857142855,0.8571428571428571,0.0004
982,1.4581300616264343,1.22275972366333,0.5384615384615384,0.8269230769230769,0.5714285714285714,0.8571428571428571,0.0004
983,1.649877667427063,1.4471714496612549,0.36538461538461536,0.8269230769230769,0.5,0.8571428571428571,0.0004
984,1.3500778675079346,1.5884639024734497,0.5576923076923077,0.8269230769230769,0.35714285714285715,0.8571428571428571,0.0004
985,1.432441234588623,1.3879029750823975,0.5,0.8269230769230769,0.42857142857142855,0.8571428571428571,0.0004
986,1.4418708682060242,1.450423002243042,0.40384615384615385,0.8269230769230769,0.42857142857142855,0.8571428571428571,0.0004
987,1.3585952520370483,1.3635480403900146,0.5384615384615384,0.8269230769230769,0.5,0.8571428571428571,0.0004
988,1.3950203657150269,1.3630290031433105,0.5,0.8269230769230769,0.5714285714285714,0.8571428571428571,0.0004
989,1.461801528930664,1.289104700088501,0.4423076923076923,0.8269230769230769,0.6428571428571429,0.8571428571428571,0.0004
