epoch,train_loss,val_loss,train_acc_action,train_acc_status,val_acc_action,val_acc_status,learning_rate
1,1.763912856578827,1.6002349853515625,0.28846153846153844,0.46153846153846156,0.35714285714285715,0.8571428571428571,0.0004
2,1.6019859313964844,1.5623159408569336,0.3269230769230769,0.8269230769230769,0.35714285714285715,0.8571428571428571,0.0004
3,1.6056904196739197,1.5458197593688965,0.3269230769230769,0.8269230769230769,0.21428571428571427,0.8571428571428571,0.0004
4,1.5262494087219238,1.55118727684021,0.36538461538461536,0.8269230769230769,0.21428571428571427,0.8571428571428571,0.0004
5,1.5596078634262085,1.554250955581665,0.36538461538461536,0.8269230769230769,0.21428571428571427,0.8571428571428571,0.0004
6,1.5464504957199097,1.5449484586715698,0.36538461538461536,0.8269230769230769,0.21428571428571427,0.8571428571428571,0.0004
7,1.5322198867797852,1.5253000259399414,0.36538461538461536,0.8269230769230769,0.21428571428571427,0.8571428571428571,0.0004
8,1.5433772802352905,1.5149171352386475,0.34615384615384615,0.8269230769230769,0.42857142857142855,0.8571428571428571,0.0004
9,1.6053562760353088,1.508005142211914,0.5,0.8269230769230769,0.42857142857142855,0.8571428571428571,0.0004
10,1.5625079274177551,1.5017671585083008,0.28846153846153844,0.8269230769230769,0.42857142857142855,0.8571428571428571,0.0004
11,1.576279640197754,1.503054141998291,0.3076923076923077,0.8269230769230769,0.42857142857142855,0.8571428571428571,0.0004
12,1.5220553874969482,1.505347490310669,0.3076923076923077,0.8269230769230769,0.42857142857142855,0.8571428571428571,0.0004
13,1.577237606048584,1.5123534202575684,0.2692307692307692,0.8269230769230769,0.21428571428571427,0.8571428571428571,0.0004
14,1.5488017797470093,1.5220812559127808,0.38461538461538464,0.8269230769230769,0.21428571428571427,0.8571428571428571,0.0004
15,1.550901710987091,1.5314503908157349,0.36538461538461536,0.8269230769230769,0.21428571428571427,0.8571428571428571,0.0004
16,1.5526313781738281,1.5381231307983398,0.3269230769230769,0.8269230769230769,0.21428571428571427,0.8571428571428571,0.0004
17,1.5707663893699646,1.545602560043335,0.36538461538461536,0.8269230769230769,0.21428571428571427,0.8571428571428571,0.0004
18,1.537642478942871,1.5506067276000977,0.34615384615384615,0.8269230769230769,0.21428571428571427,0.8571428571428571,0.0004
19,1.55788654088974,1.5540697574615479,0.36538461538461536,0.8269230769230769,0.21428571428571427,0.8571428571428571,0.0004
20,1.5713295936584473,1.5519719123840332,0.36538461538461536,0.8269230769230769,0.21428571428571427,0.8571428571428571,0.0004
21,1.5763900876045227,1.547754168510437,0.36538461538461536,0.8269230769230769,0.21428571428571427,0.8571428571428571,0.0004
22,1.5505507588386536,1.5389060974121094,0.36538461538461536,0.8269230769230769,0.21428571428571427,0.8571428571428571,0.0004
23,1.5353957414627075,1.5336922407150269,0.36538461538461536,0.8269230769230769,0.21428571428571427,0.8571428571428571,0.0004
24,1.5299389362335205,1.53005051612854,0.36538461538461536,0.8269230769230769,0.21428571428571427,0.8571428571428571,0.0004
25,1.568349301815033,1.5279638767242432,0.36538461538461536,0.8269230769230769,0.21428571428571427,0.8571428571428571,0.0004
26,1.5754717588424683,1.5248733758926392,0.34615384615384615,0.8269230769230769,0.21428571428571427,0.8571428571428571,0.0004
27,1.5760571956634521,1.5236225128173828,0.36538461538461536,0.8269230769230769,0.21428571428571427,0.8571428571428571,0.0004
28,1.5447513461112976,1.518479347229004,0.34615384615384615,0.8269230769230769,0.21428571428571427,0.8571428571428571,0.0004
29,1.557411253452301,1.5159083604812622,0.28846153846153844,0.8269230769230769,0.21428571428571427,0.8571428571428571,0.0004
30,1.5795159339904785,1.5190956592559814,0.36538461538461536,0.8269230769230769,0.21428571428571427,0.8571428571428571,0.0004
31,1.5618088245391846,1.5248539447784424,0.3269230769230769,0.8269230769230769,0.21428571428571427,0.8571428571428571,0.0004
32,1.5772302150726318,1.5304046869277954,0.36538461538461536,0.8269230769230769,0.21428571428571427,0.8571428571428571,0.0004
33,1.5517722368240356,1.5316450595855713,0.36538461538461536,0.8269230769230769,0.21428571428571427,0.8571428571428571,0.0004
34,1.5521464347839355,1.533489465713501,0.36538461538461536,0.8269230769230769,0.21428571428571427,0.8571428571428571,0.0004
35,1.5305575132369995,1.5319912433624268,0.36538461538461536,0.8269230769230769,0.21428571428571427,0.8571428571428571,0.0004
36,1.5321706533432007,1.5331648588180542,0.36538461538461536,0.8269230769230769,0.21428571428571427,0.8571428571428571,0.0004
37,1.5660053491592407,1.5334409475326538,0.36538461538461536,0.8269230769230769,0.21428571428571427,0.8571428571428571,0.0004
38,1.55748450756073,1.534117579460144,0.36538461538461536,0.8269230769230769,0.21428571428571427,0.8571428571428571,0.0004
39,1.5695376992225647,1.5341856479644775,0.36538461538461536,0.8269230769230769,0.21428571428571427,0.8571428571428571,0.0004
40,1.5526651740074158,1.5341540575027466,0.36538461538461536,0.8269230769230769,0.21428571428571427,0.8571428571428571,0.0004
41,1.6182653307914734,1.5348557233810425,0.36538461538461536,0.8269230769230769,0.21428571428571427,0.8571428571428571,0.0004
42,1.585511863231659,1.5329501628875732,0.36538461538461536,0.8269230769230769,0.21428571428571427,0.8571428571428571,0.0004
43,1.5321940183639526,1.5325897932052612,0.36538461538461536,0.8269230769230769,0.21428571428571427,0.8571428571428571,0.0004
44,1.5811510682106018,1.5327231884002686,0.36538461538461536,0.8269230769230769,0.21428571428571427,0.8571428571428571,0.0004
45,1.5425406694412231,1.532609462738037,0.36538461538461536,0.8269230769230769,0.21428571428571427,0.8571428571428571,0.0004
46,1.553623378276825,1.5299978256225586,0.34615384615384615,0.8269230769230769,0.21428571428571427,0.8571428571428571,0.0004
47,1.5370126366615295,1.52836275100708,0.36538461538461536,0.8269230769230769,0.21428571428571427,0.8571428571428571,0.0004
48,1.5372384190559387,1.5281155109405518,0.36538461538461536,0.8269230769230769,0.21428571428571427,0.8571428571428571,0.0004
49,1.5978971123695374,1.5289058685302734,0.4230769230769231,0.8269230769230769,0.21428571428571427,0.8571428571428571,0.0004
50,1.549497365951538,1.5277230739593506,0.38461538461538464,0.8269230769230769,0.21428571428571427,0.8571428571428571,0.0004
51,1.5519952178001404,1.5275567770004272,0.34615384615384615,0.8269230769230769,0.21428571428571427,0.8571428571428571,0.0004
52,1.5280706882476807,1.5275729894638062,0.36538461538461536,0.8269230769230769,0.21428571428571427,0.8571428571428571,0.0004
53,1.547524869441986,1.5286197662353516,0.34615384615384615,0.8269230769230769,0.21428571428571427,0.8571428571428571,0.0004
54,1.5372727513313293,1.529801607131958,0.38461538461538464,0.8269230769230769,0.21428571428571427,0.8571428571428571,0.0004
55,1.5625948905944824,1.5298540592193604,0.34615384615384615,0.8269230769230769,0.21428571428571427,0.8571428571428571,0.0004
56,1.519622802734375,1.5312904119491577,0.36538461538461536,0.8269230769230769,0.21428571428571427,0.8571428571428571,0.0004
57,1.5492587685585022,1.5331544876098633,0.36538461538461536,0.8269230769230769,0.21428571428571427,0.8571428571428571,0.0004
58,1.559676706790924,1.533239483833313,0.36538461538461536,0.8269230769230769,0.21428571428571427,0.8571428571428571,0.0004
59,1.5403103232383728,1.5337872505187988,0.36538461538461536,0.8269230769230769,0.21428571428571427,0.8571428571428571,0.0004
60,1.5246050953865051,1.5343530178070068,0.36538461538461536,0.8269230769230769,0.21428571428571427,0.8571428571428571,0.0004
61,1.5502598881721497,1.5357751846313477,0.36538461538461536,0.8269230769230769,0.21428571428571427,0.8571428571428571,0.0004
62,1.5796484351158142,1.5362272262573242,0.36538461538461536,0.8269230769230769,0.21428571428571427,0.8571428571428571,0.0004
63,1.5591344237327576,1.5373265743255615,0.36538461538461536,0.8269230769230769,0.21428571428571427,0.8571428571428571,0.0004
64,1.5067716836929321,1.53437077999115,0.36538461538461536,0.8269230769230769,0.21428571428571427,0.8571428571428571,0.0004
65,1.5816959142684937,1.5304813385009766,0.36538461538461536,0.8269230769230769,0.21428571428571427,0.8571428571428571,0.0004
66,1.5766350030899048,1.5256497859954834,0.36538461538461536,0.8269230769230769,0.21428571428571427,0.8571428571428571,0.0004
67,1.5163657665252686,1.5221256017684937,0.36538461538461536,0.8269230769230769,0.21428571428571427,0.8571428571428571,0.0004
68,1.5352743268013,1.5215023756027222,0.34615384615384615,0.8269230769230769,0.21428571428571427,0.8571428571428571,0.0004
69,1.5394070148468018,1.5228757858276367,0.38461538461538464,0.8269230769230769,0.21428571428571427,0.8571428571428571,0.0004
70,1.5755184888839722,1.524010419845581,0.36538461538461536,0.8269230769230769,0.21428571428571427,0.8571428571428571,0.0004
71,1.5606273412704468,1.5276598930358887,0.36538461538461536,0.8269230769230769,0.21428571428571427,0.8571428571428571,0.0004
72,1.553777039051056,1.5294039249420166,0.34615384615384615,0.8269230769230769,0.21428571428571427,0.8571428571428571,0.0004
73,1.5502122640609741,1.53145432472229,0.34615384615384615,0.8269230769230769,0.21428571428571427,0.8571428571428571,0.0004
74,1.5847883820533752,1.5346765518188477,0.34615384615384615,0.8269230769230769,0.21428571428571427,0.8571428571428571,0.0004
75,1.5330334305763245,1.5363085269927979,0.36538461538461536,0.8269230769230769,0.21428571428571427,0.8571428571428571,0.0004
76,1.5824352502822876,1.5353186130523682,0.38461538461538464,0.8269230769230769,0.21428571428571427,0.8571428571428571,0.0004
77,1.5439209342002869,1.5346124172210693,0.36538461538461536,0.8269230769230769,0.21428571428571427,0.8571428571428571,0.0004
78,1.535575807094574,1.5348315238952637,0.3269230769230769,0.8269230769230769,0.21428571428571427,0.8571428571428571,0.0004
79,1.5773181319236755,1.5333482027053833,0.38461538461538464,0.8269230769230769,0.21428571428571427,0.8571428571428571,0.0004
80,1.582105040550232,1.5308549404144287,0.36538461538461536,0.8269230769230769,0.21428571428571427,0.8571428571428571,0.0004
81,1.563920021057129,1.5269033908843994,0.36538461538461536,0.8269230769230769,0.21428571428571427,0.8571428571428571,0.0004
82,1.5681008696556091,1.5238558053970337,0.25,0.8269230769230769,0.21428571428571427,0.8571428571428571,0.0004
83,1.5375686287879944,1.5233585834503174,0.3269230769230769,0.8269230769230769,0.21428571428571427,0.8571428571428571,0.0004
84,1.5546233654022217,1.524396300315857,0.34615384615384615,0.8269230769230769,0.21428571428571427,0.8571428571428571,0.0004
85,1.54596346616745,1.5285766124725342,0.38461538461538464,0.8269230769230769,0.21428571428571427,0.8571428571428571,0.0004
86,1.5776582956314087,1.5357880592346191,0.36538461538461536,0.8269230769230769,0.21428571428571427,0.8571428571428571,0.0004
87,1.5838776230812073,1.5398311614990234,0.36538461538461536,0.8269230769230769,0.21428571428571427,0.8571428571428571,0.0004
88,1.5947134494781494,1.5433582067489624,0.36538461538461536,0.8269230769230769,0.21428571428571427,0.8571428571428571,0.0004
89,1.5511474013328552,1.5411746501922607,0.36538461538461536,0.8269230769230769,0.21428571428571427,0.8571428571428571,0.0004
90,1.5796353816986084,1.5389518737792969,0.36538461538461536,0.8269230769230769,0.21428571428571427,0.8571428571428571,0.0004
91,1.5378377437591553,1.5391027927398682,0.36538461538461536,0.8269230769230769,0.21428571428571427,0.8571428571428571,0.0004
92,1.5469084978103638,1.5390090942382812,0.36538461538461536,0.8269230769230769,0.21428571428571427,0.8571428571428571,0.0004
93,1.5749431848526,1.539113163948059,0.36538461538461536,0.8269230769230769,0.21428571428571427,0.8571428571428571,0.0004
94,1.5668357014656067,1.5386340618133545,0.36538461538461536,0.8269230769230769,0.21428571428571427,0.8571428571428571,0.0004
95,1.5535600781440735,1.5418524742126465,0.36538461538461536,0.8269230769230769,0.21428571428571427,0.8571428571428571,0.0004
96,1.5794037580490112,1.5423674583435059,0.36538461538461536,0.8269230769230769,0.21428571428571427,0.8571428571428571,0.0004
97,1.5284974575042725,1.5428690910339355,0.36538461538461536,0.8269230769230769,0.21428571428571427,0.8571428571428571,0.0004
98,1.5251224637031555,1.5432562828063965,0.36538461538461536,0.8269230769230769,0.21428571428571427,0.8571428571428571,0.0004
99,1.5422285795211792,1.5415931940078735,0.36538461538461536,0.8269230769230769,0.21428571428571427,0.8571428571428571,0.0004
100,1.6060245037078857,1.5349260568618774,0.36538461538461536,0.8269230769230769,0.21428571428571427,0.8571428571428571,0.0004
101,1.5711561441421509,1.5236287117004395,0.36538461538461536,0.8269230769230769,0.21428571428571427,0.8571428571428571,0.0004
102,1.5535788536071777,1.5199599266052246,0.3269230769230769,0.8269230769230769,0.21428571428571427,0.8571428571428571,0.0004
103,1.523886799812317,1.5245473384857178,0.38461538461538464,0.8269230769230769,0.21428571428571427,0.8571428571428571,0.0004
104,1.5339940786361694,1.5339449644088745,0.36538461538461536,0.8269230769230769,0.21428571428571427,0.8571428571428571,0.0004
105,1.5426907539367676,1.5431350469589233,0.36538461538461536,0.8269230769230769,0.21428571428571427,0.8571428571428571,0.0004
106,1.5730214715003967,1.5469741821289062,0.36538461538461536,0.8269230769230769,0.21428571428571427,0.8571428571428571,0.0004
107,1.545495092868805,1.5528631210327148,0.36538461538461536,0.8269230769230769,0.21428571428571427,0.8571428571428571,0.0004
108,1.5704896450042725,1.5585449934005737,0.36538461538461536,0.8269230769230769,0.21428571428571427,0.8571428571428571,0.0004
109,1.60431969165802,1.5605335235595703,0.36538461538461536,0.8269230769230769,0.21428571428571427,0.8571428571428571,0.0004
110,1.5725989937782288,1.556963562965393,0.36538461538461536,0.8269230769230769,0.21428571428571427,0.8571428571428571,0.0004
111,1.5724319219589233,1.5506739616394043,0.36538461538461536,0.8269230769230769,0.21428571428571427,0.8571428571428571,0.0004
112,1.53410005569458,1.5442663431167603,0.36538461538461536,0.8269230769230769,0.21428571428571427,0.8571428571428571,0.0004
113,1.5689752101898193,1.5412179231643677,0.36538461538461536,0.8269230769230769,0.21428571428571427,0.8571428571428571,0.0004
114,1.5726879239082336,1.5360971689224243,0.36538461538461536,0.8269230769230769,0.21428571428571427,0.8571428571428571,0.0004
115,1.5676080584526062,1.531419277191162,0.38461538461538464,0.8269230769230769,0.21428571428571427,0.8571428571428571,0.0004
116,1.535297155380249,1.529348373413086,0.36538461538461536,0.8269230769230769,0.21428571428571427,0.8571428571428571,0.0004
117,1.5879971385002136,1.5286526679992676,0.36538461538461536,0.8269230769230769,0.21428571428571427,0.8571428571428571,0.0004
118,1.5236743092536926,1.5263020992279053,0.28846153846153844,0.8269230769230769,0.21428571428571427,0.8571428571428571,0.0004
119,1.5913511514663696,1.5257471799850464,0.34615384615384615,0.8269230769230769,0.21428571428571427,0.8571428571428571,0.0004
120,1.5628753304481506,1.527372121810913,0.38461538461538464,0.8269230769230769,0.21428571428571427,0.8571428571428571,0.0004
121,1.5673773288726807,1.5295932292938232,0.36538461538461536,0.8269230769230769,0.21428571428571427,0.8571428571428571,0.0004
122,1.5497919917106628,1.5324562788009644,0.38461538461538464,0.8269230769230769,0.21428571428571427,0.8571428571428571,0.0004
123,1.5431477427482605,1.5350513458251953,0.40384615384615385,0.8269230769230769,0.21428571428571427,0.8571428571428571,0.0004
124,1.560921847820282,1.5374372005462646,0.34615384615384615,0.8269230769230769,0.21428571428571427,0.8571428571428571,0.0004
125,1.545908510684967,1.5394632816314697,0.36538461538461536,0.8269230769230769,0.21428571428571427,0.8571428571428571,0.0004
126,1.5366832613945007,1.5416207313537598,0.36538461538461536,0.8269230769230769,0.21428571428571427,0.8571428571428571,0.0004
127,1.5998053550720215,1.5457005500793457,0.36538461538461536,0.8269230769230769,0.21428571428571427,0.8571428571428571,0.0004
128,1.5611026883125305,1.5446994304656982,0.36538461538461536,0.8269230769230769,0.21428571428571427,0.8571428571428571,0.0004
129,1.56503427028656,1.543558120727539,0.36538461538461536,0.8269230769230769,0.21428571428571427,0.8571428571428571,0.0004
130,1.581152081489563,1.5396654605865479,0.36538461538461536,0.8269230769230769,0.21428571428571427,0.8571428571428571,0.0004
131,1.5680620074272156,1.5354957580566406,0.36538461538461536,0.8269230769230769,0.21428571428571427,0.8571428571428571,0.0004
132,1.5629042387008667,1.5313069820404053,0.36538461538461536,0.8269230769230769,0.21428571428571427,0.8571428571428571,0.0004
133,1.611886441707611,1.530159831047058,0.36538461538461536,0.8269230769230769,0.21428571428571427,0.8571428571428571,0.0004
134,1.5771780610084534,1.5274806022644043,0.36538461538461536,0.8269230769230769,0.21428571428571427,0.8571428571428571,0.0004
135,1.5963369011878967,1.5248852968215942,0.34615384615384615,0.8269230769230769,0.21428571428571427,0.8571428571428571,0.0004
136,1.5967000722885132,1.5234837532043457,0.34615384615384615,0.8269230769230769,0.21428571428571427,0.8571428571428571,0.0004
137,1.5268141627311707,1.5219125747680664,0.34615384615384615,0.8269230769230769,0.21428571428571427,0.8571428571428571,0.0004
138,1.6107159852981567,1.523476004600525,0.3269230769230769,0.8269230769230769,0.21428571428571427,0.8571428571428571,0.0004
139,1.5561255812644958,1.525099277496338,0.5576923076923077,0.8269230769230769,0.35714285714285715,0.8571428571428571,0.0004
140,1.5958006381988525,1.52913498878479,0.3076923076923077,0.8269230769230769,0.21428571428571427,0.8571428571428571,0.0004
141,1.5588056445121765,1.5335114002227783,0.36538461538461536,0.8269230769230769,0.21428571428571427,0.8571428571428571,0.0004
142,1.5233330726623535,1.5377689599990845,0.36538461538461536,0.8269230769230769,0.21428571428571427,0.8571428571428571,0.0004
143,1.5926061868667603,1.5423402786254883,0.34615384615384615,0.8269230769230769,0.21428571428571427,0.8571428571428571,0.0004
144,1.5550943613052368,1.5457656383514404,0.36538461538461536,0.8269230769230769,0.21428571428571427,0.8571428571428571,0.0004
145,1.56535804271698,1.545776128768921,0.36538461538461536,0.8269230769230769,0.21428571428571427,0.8571428571428571,0.0004
146,1.5299243330955505,1.5444661378860474,0.3076923076923077,0.8269230769230769,0.21428571428571427,0.8571428571428571,0.0004
147,1.59528648853302,1.543798565864563,0.38461538461538464,0.8269230769230769,0.21428571428571427,0.8571428571428571,0.0004
148,1.5331364870071411,1.5403683185577393,0.34615384615384615,0.8269230769230769,0.21428571428571427,0.8571428571428571,0.0004
149,1.5830321311950684,1.5384979248046875,0.36538461538461536,0.8269230769230769,0.21428571428571427,0.8571428571428571,0.0004
150,1.5228078961372375,1.535014033317566,0.36538461538461536,0.8269230769230769,0.21428571428571427,0.8571428571428571,0.0004
151,1.51448655128479,1.5314096212387085,0.36538461538461536,0.8269230769230769,0.21428571428571427,0.8571428571428571,0.0004
152,1.6093650460243225,1.5307893753051758,0.36538461538461536,0.8269230769230769,0.21428571428571427,0.8571428571428571,0.0004
153,1.5754383206367493,1.526536226272583,0.36538461538461536,0.8269230769230769,0.21428571428571427,0.8571428571428571,0.0004
154,1.538585901260376,1.5265741348266602,0.36538461538461536,0.8269230769230769,0.21428571428571427,0.8571428571428571,0.0004
155,1.5832202434539795,1.5288984775543213,0.36538461538461536,0.8269230769230769,0.21428571428571427,0.8571428571428571,0.0004
156,1.5429795980453491,1.5262237787246704,0.36538461538461536,0.8269230769230769,0.21428571428571427,0.8571428571428571,0.0004
157,1.54532390832901,1.5240519046783447,0.36538461538461536,0.8269230769230769,0.21428571428571427,0.8571428571428571,0.0004
158,1.5508354306221008,1.524217963218689,0.36538461538461536,0.8269230769230769,0.21428571428571427,0.8571428571428571,0.0004
159,1.5564992427825928,1.528888463973999,0.34615384615384615,0.8269230769230769,0.21428571428571427,0.8571428571428571,0.0004
160,1.5707281827926636,1.5342798233032227,0.34615384615384615,0.8269230769230769,0.21428571428571427,0.8571428571428571,0.0004
161,1.5857141613960266,1.536142349243164,0.36538461538461536,0.8269230769230769,0.21428571428571427,0.8571428571428571,0.0004
162,1.56516695022583,1.5376088619232178,0.36538461538461536,0.8269230769230769,0.21428571428571427,0.8571428571428571,0.0004
163,1.5890121459960938,1.5384302139282227,0.36538461538461536,0.8269230769230769,0.21428571428571427,0.8571428571428571,0.0004
164,1.5759786367416382,1.5346897840499878,0.36538461538461536,0.8269230769230769,0.21428571428571427,0.8571428571428571,0.0004
165,1.5497127175331116,1.5325030088424683,0.36538461538461536,0.8269230769230769,0.21428571428571427,0.8571428571428571,0.0004
166,1.56285160779953,1.5288695096969604,0.38461538461538464,0.8269230769230769,0.21428571428571427,0.8571428571428571,0.0004
167,1.543215811252594,1.5301411151885986,0.40384615384615385,0.8269230769230769,0.21428571428571427,0.8571428571428571,0.0004
168,1.5511291027069092,1.5263981819152832,0.40384615384615385,0.8269230769230769,0.21428571428571427,0.8571428571428571,0.0004
169,1.5422467589378357,1.5255687236785889,0.36538461538461536,0.8269230769230769,0.21428571428571427,0.8571428571428571,0.0004
170,1.5782827138900757,1.5214567184448242,0.3269230769230769,0.8269230769230769,0.21428571428571427,0.8571428571428571,0.0004
171,1.5419825315475464,1.5173563957214355,0.40384615384615385,0.8269230769230769,0.42857142857142855,0.8571428571428571,0.0004
172,1.5513815879821777,1.5175611972808838,0.38461538461538464,0.8269230769230769,0.21428571428571427,0.8571428571428571,0.0004
173,1.5585356950759888,1.5211278200149536,0.40384615384615385,0.8269230769230769,0.21428571428571427,0.8571428571428571,0.0004
174,1.534037172794342,1.5225235223770142,0.36538461538461536,0.8269230769230769,0.21428571428571427,0.8571428571428571,0.0004
175,1.5632866621017456,1.5274574756622314,0.34615384615384615,0.8269230769230769,0.21428571428571427,0.8571428571428571,0.0004
176,1.5283273458480835,1.5347048044204712,0.36538461538461536,0.8269230769230769,0.21428571428571427,0.8571428571428571,0.0004
177,1.5619030594825745,1.5330122709274292,0.36538461538461536,0.8269230769230769,0.21428571428571427,0.8571428571428571,0.0004
178,1.5288448929786682,1.53571617603302,0.36538461538461536,0.8269230769230769,0.21428571428571427,0.8571428571428571,0.0004
179,1.5059384107589722,1.5298045873641968,0.36538461538461536,0.8269230769230769,0.21428571428571427,0.8571428571428571,0.0004
180,1.5546901226043701,1.5185620784759521,0.36538461538461536,0.8269230769230769,0.21428571428571427,0.8571428571428571,0.0004
181,1.5249949097633362,1.5100672245025635,0.38461538461538464,0.8269230769230769,0.21428571428571427,0.8571428571428571,0.0004
182,1.5821945071220398,1.5091184377670288,0.4423076923076923,0.8269230769230769,0.21428571428571427,0.8571428571428571,0.0004
183,1.5280157327651978,1.5075750350952148,0.34615384615384615,0.8269230769230769,0.21428571428571427,0.8571428571428571,0.0004
184,1.5271064639091492,1.505002737045288,0.40384615384615385,0.8269230769230769,0.5,0.8571428571428571,0.0004
185,1.5066277980804443,1.4796810150146484,0.5,0.8269230769230769,0.5,0.8571428571428571,0.0004
186,1.5547237396240234,1.466839075088501,0.4807692307692308,0.8269230769230769,0.5,0.8571428571428571,0.0004
187,1.5207993984222412,1.4926429986953735,0.4230769230769231,0.8269230769230769,0.35714285714285715,0.8571428571428571,0.0004
188,1.4915064573287964,1.4896235466003418,0.4230769230769231,0.8269230769230769,0.35714285714285715,0.8571428571428571,0.0004
189,1.5281438827514648,1.4286448955535889,0.40384615384615385,0.8269230769230769,0.5,0.8571428571428571,0.0004
190,1.4697519540786743,1.4017916917800903,0.46153846153846156,0.8269230769230769,0.5,0.8571428571428571,0.0004
191,1.4703449010849,1.4621070623397827,0.4423076923076923,0.8269230769230769,0.42857142857142855,0.8571428571428571,0.0004
192,1.5083942413330078,1.4391053915023804,0.38461538461538464,0.8269230769230769,0.5,0.8571428571428571,0.0004
193,1.4709402918815613,1.3839492797851562,0.4807692307692308,0.8269230769230769,0.5,0.8571428571428571,0.0004
194,1.5309378504753113,1.4716037511825562,0.38461538461538464,0.8269230769230769,0.5,0.8571428571428571,0.0004
195,1.40577894449234,1.3880386352539062,0.5192307692307693,0.8269230769230769,0.5,0.8571428571428571,0.0004
196,1.5381348133087158,1.3751606941223145,0.40384615384615385,0.8269230769230769,0.5,0.8571428571428571,0.0004
197,1.5216261744499207,1.3709988594055176,0.4230769230769231,0.8269230769230769,0.5714285714285714,0.8571428571428571,0.0004
198,1.4954069256782532,1.5720945596694946,0.5384615384615384,0.8269230769230769,0.14285714285714285,0.8571428571428571,0.0004
199,1.5295470356941223,1.3571144342422485,0.40384615384615385,0.8269230769230769,0.5714285714285714,0.8571428571428571,0.0004
200,1.5031561851501465,1.4648644924163818,0.40384615384615385,0.8269230769230769,0.42857142857142855,0.8571428571428571,0.0004
201,1.557395100593567,1.4596785306930542,0.3269230769230769,0.8269230769230769,0.42857142857142855,0.8571428571428571,0.0004
202,1.5167208313941956,1.4611849784851074,0.3269230769230769,0.8269230769230769,0.42857142857142855,0.8571428571428571,0.0004
203,1.5487651824951172,1.4805667400360107,0.3269230769230769,0.8269230769230769,0.5714285714285714,0.8571428571428571,0.0004
204,1.5246010422706604,1.4966042041778564,0.40384615384615385,0.8269230769230769,0.35714285714285715,0.8571428571428571,0.0004
205,1.5515499114990234,1.5277369022369385,0.34615384615384615,0.8269230769230769,0.21428571428571427,0.8571428571428571,0.0004
206,1.558706283569336,1.5656523704528809,0.38461538461538464,0.8269230769230769,0.21428571428571427,0.8571428571428571,0.0004
207,1.5397736430168152,1.5870249271392822,0.36538461538461536,0.8269230769230769,0.21428571428571427,0.8571428571428571,0.0004
208,1.558952271938324,1.5917518138885498,0.36538461538461536,0.8269230769230769,0.21428571428571427,0.8571428571428571,0.0004
209,1.5324270129203796,1.5956958532333374,0.36538461538461536,0.8269230769230769,0.21428571428571427,0.8571428571428571,0.0004
210,1.5750980973243713,1.5926523208618164,0.36538461538461536,0.8269230769230769,0.21428571428571427,0.8571428571428571,0.0004
211,1.5685795545578003,1.5767165422439575,0.36538461538461536,0.8269230769230769,0.21428571428571427,0.8571428571428571,0.0004
212,1.5083420276641846,1.549708366394043,0.36538461538461536,0.8269230769230769,0.21428571428571427,0.8571428571428571,0.0004
213,1.557270586490631,1.5310783386230469,0.36538461538461536,0.8269230769230769,0.21428571428571427,0.8571428571428571,0.0004
214,1.518795132637024,1.5231409072875977,0.36538461538461536,0.8269230769230769,0.21428571428571427,0.8571428571428571,0.0004
215,1.535850465297699,1.4603044986724854,0.46153846153846156,0.8269230769230769,0.35714285714285715,0.8571428571428571,0.0004
216,1.4630469679832458,1.4743422269821167,0.36538461538461536,0.8269230769230769,0.21428571428571427,0.8571428571428571,0.0004
217,1.4397088289260864,1.4732041358947754,0.4230769230769231,0.8269230769230769,0.21428571428571427,0.8571428571428571,0.0004
218,1.4818347692489624,1.4932998418807983,0.38461538461538464,0.8269230769230769,0.21428571428571427,0.8571428571428571,0.0004
219,1.4790996313095093,1.4559519290924072,0.38461538461538464,0.8269230769230769,0.42857142857142855,0.8571428571428571,0.0004
220,1.5420395135879517,1.3745522499084473,0.38461538461538464,0.8269230769230769,0.5,0.8571428571428571,0.0004
221,1.494257926940918,1.3437762260437012,0.4423076923076923,0.8269230769230769,0.5714285714285714,0.8571428571428571,0.0004
222,1.4352604746818542,1.418440580368042,0.4423076923076923,0.8269230769230769,0.6428571428571429,0.8571428571428571,0.0004
223,1.5111788511276245,1.4001277685165405,0.5192307692307693,0.8269230769230769,0.6428571428571429,0.8571428571428571,0.0004
224,1.4909353256225586,1.3829370737075806,0.38461538461538464,0.8269230769230769,0.5714285714285714,0.8571428571428571,0.0004
225,1.4752959609031677,1.467179775238037,0.40384615384615385,0.8269230769230769,0.5714285714285714,0.8571428571428571,0.0004
226,1.4220235347747803,1.4282811880111694,0.5769230769230769,0.8269230769230769,0.5,0.8571428571428571,0.0004
227,1.4817378520965576,1.347090482711792,0.4423076923076923,0.8269230769230769,0.6428571428571429,0.8571428571428571,0.0004
228,1.4513389468193054,1.4019429683685303,0.5,0.8269230769230769,0.5,0.8571428571428571,0.0004
229,1.4576134085655212,1.3364546298980713,0.4807692307692308,0.8269230769230769,0.6428571428571429,0.8571428571428571,0.0004
230,1.452004075050354,1.3580875396728516,0.4423076923076923,0.8269230769230769,0.5714285714285714,0.8571428571428571,0.0004
231,1.5091388821601868,1.4245249032974243,0.4423076923076923,0.8269230769230769,0.5,0.8571428571428571,0.0004
232,1.4144948720932007,1.4842941761016846,0.46153846153846156,0.8269230769230769,0.2857142857142857,0.8571428571428571,0.0004
233,1.4665003418922424,1.4100638628005981,0.3076923076923077,0.8269230769230769,0.6428571428571429,0.8571428571428571,0.0004
234,1.4078660607337952,1.3702514171600342,0.5961538461538461,0.8269230769230769,0.5714285714285714,0.8571428571428571,0.0004
235,1.507307529449463,1.3935301303863525,0.38461538461538464,0.8269230769230769,0.5714285714285714,0.8571428571428571,0.0004
236,1.541167974472046,1.2906910181045532,0.4423076923076923,0.8269230769230769,0.5,0.8571428571428571,0.0004
237,1.4109153747558594,1.4082502126693726,0.5384615384615384,0.8269230769230769,0.42857142857142855,0.8571428571428571,0.0004
238,1.4560590982437134,1.3355449438095093,0.5576923076923077,0.8269230769230769,0.5,0.8571428571428571,0.0004
239,1.4388689994812012,1.2703248262405396,0.5,0.8269230769230769,0.5714285714285714,0.8571428571428571,0.0004
240,1.4643153548240662,1.4254155158996582,0.46153846153846156,0.8269230769230769,0.5,0.8571428571428571,0.0004
241,1.3776822686195374,1.6757981777191162,0.5,0.8269230769230769,0.42857142857142855,0.8571428571428571,0.0004
242,1.3945953845977783,1.3547263145446777,0.46153846153846156,0.8269230769230769,0.5,0.8571428571428571,0.0004
243,1.4045304656028748,1.4738500118255615,0.5192307692307693,0.8269230769230769,0.42857142857142855,0.8571428571428571,0.0004
244,1.5813511610031128,1.3762520551681519,0.4230769230769231,0.8269230769230769,0.5,0.8571428571428571,0.0004
245,1.5297173857688904,1.2293939590454102,0.4423076923076923,0.8269230769230769,0.6428571428571429,0.8571428571428571,0.0004
246,1.380419671535492,1.6936780214309692,0.5576923076923077,0.8269230769230769,0.5,0.8571428571428571,0.0004
247,1.543793499469757,1.7250678539276123,0.4230769230769231,0.8269230769230769,0.35714285714285715,0.8571428571428571,0.0004
248,1.5081113576889038,1.3832963705062866,0.4807692307692308,0.8269230769230769,0.5714285714285714,0.8571428571428571,0.0004
249,1.4149412512779236,1.3189659118652344,0.5192307692307693,0.8269230769230769,0.5714285714285714,0.8571428571428571,0.0004
250,1.4797307848930359,1.4145183563232422,0.40384615384615385,0.8269230769230769,0.5,0.8571428571428571,0.0004
251,1.4528626203536987,1.3898563385009766,0.4423076923076923,0.8269230769230769,0.5,0.8571428571428571,0.0004
252,1.440645456314087,1.3379050493240356,0.40384615384615385,0.8269230769230769,0.6428571428571429,0.8571428571428571,0.0004
253,1.4570765495300293,1.4468469619750977,0.5192307692307693,0.8269230769230769,0.5,0.8571428571428571,0.0004
254,1.377197027206421,1.3851699829101562,0.46153846153846156,0.8269230769230769,0.5714285714285714,0.8571428571428571,0.0004
255,1.412617564201355,1.4405467510223389,0.4230769230769231,0.8269230769230769,0.42857142857142855,0.8571428571428571,0.0004
256,1.4297300577163696,1.3503754138946533,0.38461538461538464,0.8269230769230769,0.8571428571428571,0.8571428571428571,0.0004
257,1.4324848651885986,1.358650803565979,0.5384615384615384,0.8269230769230769,0.6428571428571429,0.8571428571428571,0.0004
258,1.426094114780426,1.4084340333938599,0.5576923076923077,0.8269230769230769,0.5,0.8571428571428571,0.0004
259,1.4282088875770569,1.3832383155822754,0.4807692307692308,0.8269230769230769,0.42857142857142855,0.8571428571428571,0.0004
260,1.5168794989585876,1.381561040878296,0.46153846153846156,0.8269230769230769,0.5,0.8571428571428571,0.0004
261,1.3785669207572937,1.3893585205078125,0.4807692307692308,0.8269230769230769,0.5,0.8571428571428571,0.0004
262,1.4683107137680054,1.3615888357162476,0.5576923076923077,0.8269230769230769,0.5714285714285714,0.8571428571428571,0.0004
263,1.544823944568634,1.4010844230651855,0.5192307692307693,0.8269230769230769,0.42857142857142855,0.8571428571428571,0.0004
264,1.438141107559204,1.5339432954788208,0.4423076923076923,0.8269230769230769,0.5714285714285714,0.8571428571428571,0.0004
265,1.4308613538742065,1.2632765769958496,0.4807692307692308,0.8269230769230769,0.6428571428571429,0.8571428571428571,0.0004
266,1.3737792372703552,1.4218294620513916,0.5,0.8269230769230769,0.5,0.8571428571428571,0.0004
267,1.4847187995910645,1.3678925037384033,0.40384615384615385,0.8269230769230769,0.5714285714285714,0.8571428571428571,0.0004
268,1.4852294921875,1.288177728652954,0.4230769230769231,0.8269230769230769,0.5714285714285714,0.8571428571428571,0.0004
269,1.4544773697853088,1.3383290767669678,0.4423076923076923,0.8269230769230769,0.5714285714285714,0.8571428571428571,0.0004
270,1.3427618145942688,1.3526570796966553,0.4807692307692308,0.8269230769230769,0.6428571428571429,0.8571428571428571,0.0004
271,1.440095067024231,1.1304219961166382,0.5192307692307693,0.8269230769230769,0.8571428571428571,0.8571428571428571,0.0004
272,1.4699851274490356,1.3752532005310059,0.5192307692307693,0.8269230769230769,0.5714285714285714,0.8571428571428571,0.0004
273,1.466461718082428,1.1891270875930786,0.4807692307692308,0.8269230769230769,0.6428571428571429,0.8571428571428571,0.0004
274,1.359782338142395,1.2656805515289307,0.5192307692307693,0.8269230769230769,0.7142857142857143,0.8571428571428571,0.0004
275,1.3853806853294373,1.2033969163894653,0.5769230769230769,0.8269230769230769,0.7142857142857143,0.8571428571428571,0.0004
276,1.4638716578483582,1.2573461532592773,0.4423076923076923,0.8269230769230769,0.6428571428571429,0.8571428571428571,0.0004
277,1.4420289993286133,1.2834155559539795,0.5,0.8269230769230769,0.5714285714285714,0.8571428571428571,0.0004
278,1.3378764390945435,1.1840660572052002,0.5192307692307693,0.8269230769230769,0.7857142857142857,0.8571428571428571,0.0004
279,1.2799500226974487,1.2958292961120605,0.5961538461538461,0.8269230769230769,0.6428571428571429,0.8571428571428571,0.0004
280,1.3315524458885193,1.4611636400222778,0.5192307692307693,0.8269230769230769,0.42857142857142855,0.8571428571428571,0.0004
281,1.4189950227737427,1.3258025646209717,0.5192307692307693,0.8269230769230769,0.7142857142857143,0.8571428571428571,0.0004
282,1.3119948506355286,1.1971303224563599,0.5576923076923077,0.8269230769230769,0.7857142857142857,0.8571428571428571,0.0004
283,1.3773937225341797,1.2303223609924316,0.5576923076923077,0.8269230769230769,0.7857142857142857,0.8571428571428571,0.0004
284,1.3875166177749634,1.3704255819320679,0.5192307692307693,0.8269230769230769,0.5714285714285714,0.8571428571428571,0.0004
285,1.3830409049987793,1.4157299995422363,0.5,0.8269230769230769,0.5,0.8571428571428571,0.0004
286,1.4228214025497437,1.1076059341430664,0.5576923076923077,0.8269230769230769,0.7142857142857143,0.8571428571428571,0.0004
287,1.3489941358566284,1.366593599319458,0.4807692307692308,0.8269230769230769,0.5714285714285714,0.8571428571428571,0.0004
288,1.2951669692993164,1.3548970222473145,0.5769230769230769,0.8269230769230769,0.5,0.8571428571428571,0.0004
289,1.3448858261108398,1.0809811353683472,0.5769230769230769,0.8269230769230769,0.8571428571428571,0.8571428571428571,0.0004
290,1.213093101978302,1.334352731704712,0.5576923076923077,0.8269230769230769,0.5714285714285714,0.8571428571428571,0.0004
291,1.4577622413635254,1.1491146087646484,0.5384615384615384,0.8269230769230769,0.7142857142857143,0.8571428571428571,0.0004
292,1.4001672863960266,1.1514147520065308,0.4807692307692308,0.8269230769230769,0.6428571428571429,0.8571428571428571,0.0004
293,1.3549641370773315,1.2774608135223389,0.5192307692307693,0.8269230769230769,0.5714285714285714,0.8571428571428571,0.0004
294,1.3060516119003296,1.3214876651763916,0.5384615384615384,0.8269230769230769,0.5714285714285714,0.8571428571428571,0.0004
295,1.2861676216125488,1.232392430305481,0.6153846153846154,0.8269230769230769,0.7142857142857143,0.8571428571428571,0.0004
296,1.3300510048866272,1.2731670141220093,0.5576923076923077,0.8269230769230769,0.6428571428571429,0.8571428571428571,0.0004
297,1.3300416469573975,1.326132893562317,0.5576923076923077,0.8269230769230769,0.6428571428571429,0.8571428571428571,0.0004
298,1.2955262064933777,1.5106921195983887,0.5769230769230769,0.8269230769230769,0.42857142857142855,0.8571428571428571,0.0004
299,1.4415984749794006,1.2988091707229614,0.40384615384615385,0.8269230769230769,0.5,0.8571428571428571,0.0004
300,1.2507483959197998,1.586336612701416,0.6730769230769231,0.8269230769230769,0.42857142857142855,0.8571428571428571,0.0004
301,1.3837356567382812,1.1756130456924438,0.5,0.8269230769230769,0.7142857142857143,0.8571428571428571,0.0004
302,1.263784646987915,1.1458237171173096,0.5769230769230769,0.8269230769230769,0.7142857142857143,0.8571428571428571,0.0004
303,1.317216694355011,1.2133725881576538,0.5961538461538461,0.8269230769230769,0.6428571428571429,0.8571428571428571,0.0004
304,1.4184131622314453,1.2916115522384644,0.5384615384615384,0.8269230769230769,0.5,0.8571428571428571,0.0004
305,1.3108954429626465,1.0177528858184814,0.5,0.8269230769230769,0.7857142857142857,0.8571428571428571,0.0004
306,1.340903103351593,1.192965030670166,0.5192307692307693,0.8269230769230769,0.7142857142857143,0.8571428571428571,0.0004
307,1.3635967373847961,1.0007734298706055,0.5576923076923077,0.8269230769230769,0.7857142857142857,0.8571428571428571,0.0004
308,1.2541703581809998,1.441468358039856,0.5769230769230769,0.8269230769230769,0.5,0.8571428571428571,0.0004
309,1.4380174279212952,1.3611682653427124,0.4807692307692308,0.8269230769230769,0.5,0.8571428571428571,0.0004
310,1.4236358404159546,1.421412706375122,0.5192307692307693,0.8269230769230769,0.5714285714285714,0.8571428571428571,0.0004
311,1.61321622133255,1.3428525924682617,0.4230769230769231,0.8269230769230769,0.6428571428571429,0.8571428571428571,0.0004
312,1.3696947693824768,1.010088324546814,0.5576923076923077,0.8269230769230769,0.8571428571428571,0.8571428571428571,0.0004
313,1.3244435787200928,1.3616361618041992,0.5384615384615384,0.8269230769230769,0.5714285714285714,0.8571428571428571,0.0004
314,1.35237318277359,1.2817254066467285,0.46153846153846156,0.8269230769230769,0.5714285714285714,0.8571428571428571,0.0004
315,1.3201509714126587,1.2228957414627075,0.5192307692307693,0.8269230769230769,0.7142857142857143,0.8571428571428571,0.0004
316,1.3721482753753662,1.358687400817871,0.5576923076923077,0.8269230769230769,0.5714285714285714,0.8571428571428571,0.0004
317,1.3468014597892761,1.4120913743972778,0.46153846153846156,0.8269230769230769,0.5,0.8571428571428571,0.0004
318,1.4094823002815247,1.1373815536499023,0.46153846153846156,0.8269230769230769,0.7857142857142857,0.8571428571428571,0.0004
319,1.359985113143921,1.6017341613769531,0.5,0.8269230769230769,0.35714285714285715,0.8571428571428571,0.0004
320,1.3691938519477844,1.4139275550842285,0.5,0.8269230769230769,0.5,0.8571428571428571,0.0004
321,1.3901634812355042,1.2309447526931763,0.4807692307692308,0.8269230769230769,0.6428571428571429,0.8571428571428571,0.0004
322,1.2351526618003845,1.4008572101593018,0.5961538461538461,0.8269230769230769,0.42857142857142855,0.8571428571428571,0.0004
323,1.4668050408363342,1.1135365962982178,0.38461538461538464,0.8269230769230769,0.7142857142857143,0.8571428571428571,0.0004
324,1.3097463846206665,1.1667567491531372,0.5961538461538461,0.8269230769230769,0.7142857142857143,0.8571428571428571,0.0004
325,1.437477469444275,1.5719622373580933,0.5,0.8269230769230769,0.42857142857142855,0.8571428571428571,0.0004
326,1.3843079805374146,1.4591947793960571,0.5384615384615384,0.8269230769230769,0.5,0.8571428571428571,0.0004
327,1.3532207012176514,1.5443804264068604,0.5384615384615384,0.8269230769230769,0.42857142857142855,0.8571428571428571,0.0004
328,1.5404167771339417,1.5919032096862793,0.4230769230769231,0.8269230769230769,0.35714285714285715,0.8571428571428571,0.0004
329,1.411418616771698,1.2159568071365356,0.5769230769230769,0.8269230769230769,0.6428571428571429,0.8571428571428571,0.0004
330,1.4443667531013489,1.2939696311950684,0.46153846153846156,0.8269230769230769,0.42857142857142855,0.8571428571428571,0.0004
331,1.292770504951477,1.341151237487793,0.5769230769230769,0.8269230769230769,0.5,0.8571428571428571,0.0004
332,1.3016847372055054,1.228968620300293,0.5,0.8269230769230769,0.6428571428571429,0.8571428571428571,0.0004
333,1.412476122379303,1.152858018875122,0.4807692307692308,0.8269230769230769,0.6428571428571429,0.8571428571428571,0.0004
334,1.2613166570663452,1.1445072889328003,0.5192307692307693,0.8269230769230769,0.7142857142857143,0.8571428571428571,0.0004
335,1.3084362149238586,1.2763525247573853,0.5384615384615384,0.8269230769230769,0.6428571428571429,0.8571428571428571,0.0004
336,1.3727179169654846,1.0239903926849365,0.5769230769230769,0.8269230769230769,0.7857142857142857,0.8571428571428571,0.0004
337,1.3133320212364197,1.5498183965682983,0.5576923076923077,0.8269230769230769,0.5,0.8571428571428571,0.0004
338,1.2611104249954224,1.2384636402130127,0.6730769230769231,0.8269230769230769,0.5714285714285714,0.8571428571428571,0.0004
339,1.2416382431983948,1.379064917564392,0.4807692307692308,0.8269230769230769,0.7142857142857143,0.8571428571428571,0.0004
340,1.394797444343567,1.4833072423934937,0.5192307692307693,0.8269230769230769,0.5714285714285714,0.8571428571428571,0.0004
341,1.2260644435882568,1.0832680463790894,0.6538461538461539,0.8269230769230769,0.7857142857142857,0.8571428571428571,0.0004
342,1.323269248008728,1.3423866033554077,0.5576923076923077,0.8269230769230769,0.5714285714285714,0.8571428571428571,0.0004
343,1.3331086039543152,1.2284398078918457,0.5384615384615384,0.8269230769230769,0.7142857142857143,0.8571428571428571,0.0004
344,1.1494174003601074,1.5616543292999268,0.5769230769230769,0.8269230769230769,0.5,0.8571428571428571,0.0004
345,1.2966341972351074,1.5922826528549194,0.5576923076923077,0.8269230769230769,0.5714285714285714,0.8571428571428571,0.0004
346,1.2765823006629944,1.4335670471191406,0.5769230769230769,0.8269230769230769,0.5714285714285714,0.8571428571428571,0.0004
347,1.3011470437049866,1.1121271848678589,0.6153846153846154,0.8269230769230769,0.7857142857142857,0.8571428571428571,0.0004
348,1.3818632364273071,1.2818973064422607,0.5,0.8269230769230769,0.6428571428571429,0.8571428571428571,0.0004
349,1.3571050763130188,0.9999326467514038,0.5576923076923077,0.8269230769230769,0.7857142857142857,0.8571428571428571,0.0004
350,1.3045944571495056,0.9955414533615112,0.5,0.8269230769230769,0.7142857142857143,0.8571428571428571,0.0004
351,1.050374448299408,1.4826980829238892,0.6923076923076923,0.8269230769230769,0.5,0.8571428571428571,0.0004
352,1.2061938643455505,1.1112334728240967,0.5384615384615384,0.8269230769230769,0.7142857142857143,0.8571428571428571,0.0004
353,1.3187405467033386,1.474732518196106,0.5384615384615384,0.8269230769230769,0.5,0.8571428571428571,0.0004
354,1.3199806213378906,1.3226306438446045,0.5192307692307693,0.8269230769230769,0.6428571428571429,0.8571428571428571,0.0004
355,1.2412851452827454,0.9767025113105774,0.5384615384615384,0.8269230769230769,0.7857142857142857,0.8571428571428571,0.0004
356,1.3224228620529175,1.46769380569458,0.6153846153846154,0.8269230769230769,0.5714285714285714,0.8571428571428571,0.0004
357,1.2954152822494507,1.3411835432052612,0.46153846153846156,0.8269230769230769,0.6428571428571429,0.8571428571428571,0.0004
358,1.269240140914917,1.3610788583755493,0.5576923076923077,0.8269230769230769,0.6428571428571429,0.8571428571428571,0.0004
359,1.4055285453796387,1.2307747602462769,0.5,0.8269230769230769,0.7142857142857143,0.8571428571428571,0.0004
360,1.2354402542114258,1.0875834226608276,0.5961538461538461,0.8269230769230769,0.7857142857142857,0.8571428571428571,0.0004
361,1.230262577533722,1.4538180828094482,0.5192307692307693,0.8269230769230769,0.7142857142857143,0.8571428571428571,0.0004
362,1.25318443775177,1.1068687438964844,0.5576923076923077,0.8269230769230769,0.7142857142857143,0.8571428571428571,0.0004
363,1.1525887250900269,1.4557441473007202,0.6346153846153846,0.8269230769230769,0.5714285714285714,0.8571428571428571,0.0004
364,1.324908196926117,1.116040587425232,0.5,0.8269230769230769,0.7857142857142857,0.8571428571428571,0.0004
365,1.2716112732887268,1.6834642887115479,0.5384615384615384,0.8269230769230769,0.5,0.8571428571428571,0.0004
366,1.084143340587616,1.2551953792572021,0.6923076923076923,0.8269230769230769,0.7142857142857143,0.8571428571428571,0.0004
367,1.2468881607055664,1.1644566059112549,0.5769230769230769,0.8269230769230769,0.5714285714285714,0.8571428571428571,0.0004
368,1.2483534812927246,1.114406704902649,0.6153846153846154,0.8269230769230769,0.7142857142857143,0.8571428571428571,0.0004
369,1.158815622329712,1.3397133350372314,0.6538461538461539,0.8269230769230769,0.5714285714285714,0.8571428571428571,0.0004
370,1.1902834177017212,1.4069874286651611,0.5961538461538461,0.8269230769230769,0.5714285714285714,0.8571428571428571,0.0004
371,1.2183390259742737,1.2020498514175415,0.5769230769230769,0.8269230769230769,0.6428571428571429,0.8571428571428571,0.0004
372,1.2419999241828918,1.4056055545806885,0.5576923076923077,0.8269230769230769,0.7142857142857143,0.8571428571428571,0.0004
373,1.1481614112854004,1.3960514068603516,0.6346153846153846,0.8269230769230769,0.7142857142857143,0.8571428571428571,0.0004
374,1.2540353536605835,1.0406869649887085,0.5769230769230769,0.8269230769230769,0.6428571428571429,0.8571428571428571,0.0004
375,1.3079003691673279,1.2468080520629883,0.5769230769230769,0.8269230769230769,0.7142857142857143,0.8571428571428571,0.0004
376,1.229115068912506,1.066617488861084,0.46153846153846156,0.8269230769230769,0.7857142857142857,0.8571428571428571,0.0004
377,1.2115038633346558,0.9200894832611084,0.5384615384615384,0.8269230769230769,0.8571428571428571,0.8571428571428571,0.0004
378,1.1701833009719849,1.5647475719451904,0.5769230769230769,0.8269230769230769,0.6428571428571429,0.8571428571428571,0.0004
379,1.1031157970428467,1.0285755395889282,0.6346153846153846,0.8269230769230769,0.7142857142857143,0.8571428571428571,0.0004
380,1.2085784077644348,0.9984627962112427,0.5961538461538461,0.8269230769230769,0.7857142857142857,0.8571428571428571,0.0004
381,1.1572179794311523,1.2568955421447754,0.5769230769230769,0.8269230769230769,0.5,0.8571428571428571,0.0004
382,1.160965085029602,1.4350793361663818,0.6538461538461539,0.8269230769230769,0.6428571428571429,0.8571428571428571,0.0004
383,1.4153683185577393,1.0376147031784058,0.46153846153846156,0.8269230769230769,0.7857142857142857,0.8571428571428571,0.0004
384,1.3504794836044312,1.105047345161438,0.5576923076923077,0.8269230769230769,0.6428571428571429,0.8571428571428571,0.0004
385,1.286673903465271,1.341543197631836,0.5769230769230769,0.8269230769230769,0.5,0.8571428571428571,0.0004
386,1.2832226753234863,1.3167802095413208,0.5192307692307693,0.8269230769230769,0.7142857142857143,0.8571428571428571,0.0004
387,1.1987058520317078,1.1496096849441528,0.5961538461538461,0.8269230769230769,0.6428571428571429,0.8571428571428571,0.0004
388,1.2333534359931946,1.0509101152420044,0.5961538461538461,0.8269230769230769,0.7857142857142857,0.8571428571428571,0.0004
389,1.2834952473640442,1.627354621887207,0.5192307692307693,0.8269230769230769,0.5714285714285714,0.8571428571428571,0.0004
390,1.2482038736343384,1.418355107307434,0.5,0.8269230769230769,0.5714285714285714,0.8571428571428571,0.0004
391,1.0897575616836548,1.6522616147994995,0.6346153846153846,0.8269230769230769,0.5,0.8571428571428571,0.0004
392,1.35772705078125,0.9753271341323853,0.5384615384615384,0.8269230769230769,0.7857142857142857,0.8571428571428571,0.0004
393,1.187537670135498,1.6497780084609985,0.6346153846153846,0.8269230769230769,0.5714285714285714,0.8571428571428571,0.0004
394,1.2218440771102905,1.3290785551071167,0.6153846153846154,0.8269230769230769,0.5,0.8571428571428571,0.0004
395,1.5143947005271912,1.241213321685791,0.5,0.8269230769230769,0.6428571428571429,0.8571428571428571,0.0004
396,1.2501401901245117,1.4699304103851318,0.4807692307692308,0.8269230769230769,0.6428571428571429,0.8571428571428571,0.0004
397,1.184002697467804,1.1987335681915283,0.5961538461538461,0.8269230769230769,0.7857142857142857,0.8571428571428571,0.0004
398,1.3663238883018494,1.4718377590179443,0.46153846153846156,0.8269230769230769,0.5714285714285714,0.8571428571428571,0.0004
399,1.3712425827980042,1.3453261852264404,0.4423076923076923,0.8269230769230769,0.5,0.8571428571428571,0.0004
400,1.1519536972045898,1.062159538269043,0.5961538461538461,0.8269230769230769,0.6428571428571429,0.8571428571428571,0.0004
401,1.1823393106460571,1.312841773033142,0.7115384615384616,0.8269230769230769,0.35714285714285715,0.8571428571428571,0.0004
402,1.2777971029281616,1.5908771753311157,0.4807692307692308,0.8269230769230769,0.42857142857142855,0.8571428571428571,0.0004
403,1.366352915763855,1.2517828941345215,0.46153846153846156,0.8269230769230769,0.42857142857142855,0.8571428571428571,0.0004
404,1.3030611872673035,1.0175573825836182,0.5576923076923077,0.8269230769230769,0.7142857142857143,0.8571428571428571,0.0004
405,1.3976935148239136,1.2112821340560913,0.4807692307692308,0.8269230769230769,0.42857142857142855,0.8571428571428571,0.0004
406,1.2900246381759644,1.2571593523025513,0.5384615384615384,0.8269230769230769,0.42857142857142855,0.8571428571428571,0.0004
407,1.3673555850982666,1.3566112518310547,0.4807692307692308,0.8269230769230769,0.5,0.8571428571428571,0.0004
408,1.2985418438911438,1.1982636451721191,0.5384615384615384,0.8269230769230769,0.5,0.8571428571428571,0.0004
409,1.247768223285675,1.1165385246276855,0.5576923076923077,0.8269230769230769,0.7857142857142857,0.8571428571428571,0.0004
410,1.1619771122932434,0.9857325553894043,0.6153846153846154,0.8269230769230769,0.6428571428571429,0.8571428571428571,0.0004
411,1.1248058080673218,1.2716002464294434,0.6346153846153846,0.8269230769230769,0.6428571428571429,0.8571428571428571,0.0004
412,1.2467753887176514,1.1945494413375854,0.6346153846153846,0.8269230769230769,0.7142857142857143,0.8571428571428571,0.0004
413,1.2673287391662598,1.7512667179107666,0.5576923076923077,0.8269230769230769,0.5,0.8571428571428571,0.0004
414,1.1636014580726624,1.2563855648040771,0.6153846153846154,0.8269230769230769,0.7142857142857143,0.8571428571428571,0.0004
415,1.1126293540000916,0.9657557010650635,0.6538461538461539,0.8269230769230769,0.7857142857142857,0.8571428571428571,0.0004
416,1.257119059562683,1.1133782863616943,0.5769230769230769,0.8269230769230769,0.6428571428571429,0.8571428571428571,0.0004
417,1.2360267043113708,1.1155381202697754,0.6538461538461539,0.8269230769230769,0.7857142857142857,0.8571428571428571,0.0004
418,1.196160912513733,1.3689041137695312,0.6346153846153846,0.8269230769230769,0.7857142857142857,0.8571428571428571,0.0004
419,1.2403563857078552,1.0598567724227905,0.5961538461538461,0.8269230769230769,0.7142857142857143,0.8571428571428571,0.0004
420,1.1546813249588013,1.3381189107894897,0.5961538461538461,0.8269230769230769,0.5714285714285714,0.8571428571428571,0.0004
421,1.6382891535758972,1.648568868637085,0.4230769230769231,0.8269230769230769,0.35714285714285715,0.8571428571428571,0.0004
422,1.3089971542358398,1.279542088508606,0.5,0.8269230769230769,0.5714285714285714,0.8571428571428571,0.0004
423,1.2990288138389587,1.2000837326049805,0.5576923076923077,0.8269230769230769,0.42857142857142855,0.8571428571428571,0.0004
424,1.3093608021736145,1.4466745853424072,0.5384615384615384,0.8269230769230769,0.42857142857142855,0.8571428571428571,0.0004
425,1.4969497323036194,1.5305222272872925,0.5,0.8269230769230769,0.5,0.8571428571428571,0.0004
426,1.3105409145355225,1.0733699798583984,0.5384615384615384,0.8269230769230769,0.6428571428571429,0.8571428571428571,0.0004
427,1.3169971108436584,1.350462794303894,0.5769230769230769,0.8269230769230769,0.5714285714285714,0.8571428571428571,0.0004
428,1.4425556659698486,1.5538393259048462,0.5384615384615384,0.8269230769230769,0.5,0.8571428571428571,0.0004
429,1.4549514055252075,1.6351786851882935,0.5,0.8269230769230769,0.5,0.8571428571428571,0.0004
430,1.640105962753296,1.7175650596618652,0.38461538461538464,0.8269230769230769,0.42857142857142855,0.8571428571428571,0.0004
431,1.5437932014465332,1.720413327217102,0.5,0.8269230769230769,0.42857142857142855,0.8571428571428571,0.0004
432,1.6325843334197998,1.4725022315979004,0.4423076923076923,0.8269230769230769,0.5714285714285714,0.8571428571428571,0.0004
433,1.532913863658905,1.6578495502471924,0.4230769230769231,0.8269230769230769,0.35714285714285715,0.8571428571428571,0.0004
434,1.4468780159950256,1.6552528142929077,0.5,0.8269230769230769,0.35714285714285715,0.8571428571428571,0.0004
435,1.5812046527862549,1.6218308210372925,0.40384615384615385,0.8269230769230769,0.42857142857142855,0.8571428571428571,0.0004
436,1.5164287686347961,1.3836485147476196,0.4423076923076923,0.8269230769230769,0.6428571428571429,0.8571428571428571,0.0004
437,1.5310930013656616,1.5154496431350708,0.4423076923076923,0.8269230769230769,0.5,0.8571428571428571,0.0004
438,1.4991565942764282,1.5177412033081055,0.4807692307692308,0.8269230769230769,0.6428571428571429,0.8571428571428571,0.0004
439,1.5844001770019531,1.4623782634735107,0.5384615384615384,0.8269230769230769,0.5,0.8571428571428571,0.0004
440,1.5242699980735779,1.4890639781951904,0.5,0.8269230769230769,0.5714285714285714,0.8571428571428571,0.0004
441,1.5272701978683472,1.3532702922821045,0.38461538461538464,0.8269230769230769,0.5,0.8571428571428571,0.0004
442,1.4910231232643127,1.2484623193740845,0.46153846153846156,0.8269230769230769,0.5,0.8571428571428571,0.0004
443,1.5432139039039612,1.3931437730789185,0.36538461538461536,0.8269230769230769,0.5,0.8571428571428571,0.0004
444,1.4951440691947937,1.3506135940551758,0.4230769230769231,0.8269230769230769,0.5714285714285714,0.8571428571428571,0.0004
445,1.4527532458305359,1.4420197010040283,0.4807692307692308,0.8269230769230769,0.5,0.8571428571428571,0.0004
446,1.3737428784370422,1.218666434288025,0.4423076923076923,0.8269230769230769,0.6428571428571429,0.8571428571428571,0.0004
447,1.3950272798538208,1.2626103162765503,0.46153846153846156,0.8269230769230769,0.5,0.8571428571428571,0.0004
448,1.381840169429779,1.2093479633331299,0.5384615384615384,0.8269230769230769,0.5,0.8571428571428571,0.0004
449,1.4211746454238892,1.188068151473999,0.46153846153846156,0.8269230769230769,0.5714285714285714,0.8571428571428571,0.0004
450,1.4707034230232239,1.1138150691986084,0.46153846153846156,0.8269230769230769,0.5,0.8571428571428571,0.0004
451,1.267062246799469,1.2942116260528564,0.5769230769230769,0.8269230769230769,0.5,0.8571428571428571,0.0004
452,1.3734342455863953,1.4445114135742188,0.5384615384615384,0.8269230769230769,0.5,0.8571428571428571,0.0004
453,1.215293824672699,1.179392695426941,0.5384615384615384,0.8269230769230769,0.5,0.8571428571428571,0.0004
454,1.2310290932655334,1.0596860647201538,0.5192307692307693,0.8269230769230769,0.7142857142857143,0.8571428571428571,0.0004
455,1.1932927966117859,1.6770217418670654,0.5769230769230769,0.8269230769230769,0.5714285714285714,0.8571428571428571,0.0004
456,1.2384312152862549,1.1059861183166504,0.5576923076923077,0.8269230769230769,0.7857142857142857,0.8571428571428571,0.0004
457,1.337609052658081,1.07669997215271,0.5192307692307693,0.8269230769230769,0.7857142857142857,0.8571428571428571,0.0004
458,1.194140911102295,1.071299433708191,0.5384615384615384,0.8269230769230769,0.5,0.8571428571428571,0.0004
459,1.2579217553138733,1.612547516822815,0.4807692307692308,0.8269230769230769,0.5,0.8571428571428571,0.0004
460,1.294859528541565,1.5553076267242432,0.5,0.8269230769230769,0.42857142857142855,0.8571428571428571,0.0004
461,1.2131064534187317,1.653764247894287,0.5192307692307693,0.8269230769230769,0.5714285714285714,0.8571428571428571,0.0004
462,1.2211263179779053,1.6302913427352905,0.4423076923076923,0.8269230769230769,0.5,0.8571428571428571,0.0004
463,1.167318046092987,1.404619574546814,0.5,0.8269230769230769,0.5714285714285714,0.8571428571428571,0.0004
464,1.0995963215827942,1.2521098852157593,0.6346153846153846,0.8269230769230769,0.6428571428571429,0.8571428571428571,0.0004
465,1.2581936717033386,1.0234944820404053,0.5961538461538461,0.8269230769230769,0.7857142857142857,0.8571428571428571,0.0004
466,1.129500925540924,1.739601731300354,0.6346153846153846,0.8269230769230769,0.5714285714285714,0.8571428571428571,0.0004
467,1.078952431678772,0.9930278062820435,0.6923076923076923,0.8269230769230769,0.7857142857142857,0.8571428571428571,0.0004
468,1.203652799129486,1.3821817636489868,0.5961538461538461,0.8269230769230769,0.7142857142857143,0.8571428571428571,0.0004
469,1.253156304359436,1.5955209732055664,0.6153846153846154,0.8269230769230769,0.6428571428571429,0.8571428571428571,0.0004
470,1.4840258359909058,0.895717978477478,0.5192307692307693,0.8269230769230769,0.9285714285714286,0.8571428571428571,0.0004
471,1.351781189441681,0.9324772357940674,0.5192307692307693,0.8269230769230769,0.7857142857142857,0.8571428571428571,0.0004
472,1.2186035513877869,1.9165823459625244,0.5384615384615384,0.8269230769230769,0.5714285714285714,0.8571428571428571,0.0004
473,1.233382135629654,1.7290031909942627,0.6730769230769231,0.8269230769230769,0.6428571428571429,0.8571428571428571,0.0004
474,1.0941175818443298,1.5124386548995972,0.6538461538461539,0.8269230769230769,0.5714285714285714,0.8571428571428571,0.0004
475,1.1818514466285706,1.6785651445388794,0.6153846153846154,0.8269230769230769,0.6428571428571429,0.8571428571428571,0.0004
476,1.1265148520469666,1.6694331169128418,0.6923076923076923,0.8269230769230769,0.5714285714285714,0.8571428571428571,0.0004
477,1.0856833159923553,1.460722804069519,0.6730769230769231,0.8269230769230769,0.7142857142857143,0.8571428571428571,0.0004
478,1.1512578129768372,0.9753127098083496,0.5769230769230769,0.8269230769230769,0.7142857142857143,0.8571428571428571,0.0004
479,1.1999111771583557,1.4868640899658203,0.5384615384615384,0.8269230769230769,0.5,0.8571428571428571,0.0004
480,1.2076722383499146,1.4061088562011719,0.5192307692307693,0.8269230769230769,0.7857142857142857,0.8571428571428571,0.0004
481,1.2031391263008118,2.11366868019104,0.5576923076923077,0.8269230769230769,0.42857142857142855,0.8571428571428571,0.0004
482,1.2652812600135803,1.512972116470337,0.5576923076923077,0.8269230769230769,0.5714285714285714,0.8571428571428571,0.0004
483,1.3621891736984253,1.2552123069763184,0.5576923076923077,0.8269230769230769,0.7142857142857143,0.8571428571428571,0.0004
484,1.257733404636383,0.893481433391571,0.5769230769230769,0.8269230769230769,0.7857142857142857,0.8571428571428571,0.0004
485,1.3006643056869507,1.3288683891296387,0.5769230769230769,0.8269230769230769,0.7142857142857143,0.8571428571428571,0.0004
486,1.587526798248291,1.309282660484314,0.46153846153846156,0.8269230769230769,0.5714285714285714,0.8571428571428571,0.0004
487,1.4550193548202515,1.0958391427993774,0.4807692307692308,0.8269230769230769,0.7142857142857143,0.8571428571428571,0.0004
488,1.3139449954032898,1.178964614868164,0.5961538461538461,0.8269230769230769,0.6428571428571429,0.8571428571428571,0.0004
489,1.4715595245361328,1.019256830215454,0.4423076923076923,0.8269230769230769,0.6428571428571429,0.8571428571428571,0.0004
490,1.236366629600525,1.1619349718093872,0.6346153846153846,0.8269230769230769,0.6428571428571429,0.8571428571428571,0.0004
491,1.1764578819274902,1.2211710214614868,0.6346153846153846,0.8269230769230769,0.6428571428571429,0.8571428571428571,0.0004
492,1.320947527885437,1.403100609779358,0.4423076923076923,0.8269230769230769,0.6428571428571429,0.8571428571428571,0.0004
493,1.2137194275856018,1.2953321933746338,0.5192307692307693,0.8269230769230769,0.6428571428571429,0.8571428571428571,0.0004
494,1.3290898203849792,1.1322274208068848,0.5384615384615384,0.8269230769230769,0.6428571428571429,0.8571428571428571,0.0004
495,1.2601290345191956,1.586506724357605,0.5192307692307693,0.8269230769230769,0.42857142857142855,0.8571428571428571,0.0004
496,1.2571960091590881,1.557215929031372,0.5192307692307693,0.8269230769230769,0.5714285714285714,0.8571428571428571,0.0004
497,1.240667462348938,1.2459825277328491,0.5,0.8269230769230769,0.6428571428571429,0.8571428571428571,0.0004
498,1.1882624626159668,1.9401755332946777,0.6153846153846154,0.8269230769230769,0.35714285714285715,0.8571428571428571,0.0004
499,1.3395295143127441,1.0023919343948364,0.5384615384615384,0.8269230769230769,0.7857142857142857,0.8571428571428571,0.0004
500,1.2467036843299866,1.1900993585586548,0.5,0.8269230769230769,0.6428571428571429,0.8571428571428571,0.0004
501,1.1780080795288086,1.3097490072250366,0.5961538461538461,0.8269230769230769,0.5,0.8571428571428571,0.0004
502,1.1921924948692322,1.113401174545288,0.6153846153846154,0.8269230769230769,0.7142857142857143,0.8571428571428571,0.0004
503,1.2031345963478088,1.3348557949066162,0.6346153846153846,0.8269230769230769,0.7857142857142857,0.8571428571428571,0.0004
504,1.3283278942108154,0.8800396919250488,0.5769230769230769,0.8269230769230769,0.8571428571428571,0.8571428571428571,0.0004
505,1.2520062923431396,1.0683143138885498,0.5384615384615384,0.8269230769230769,0.7142857142857143,0.8571428571428571,0.0004
506,1.1467813849449158,1.0018616914749146,0.5961538461538461,0.8269230769230769,0.6428571428571429,0.8571428571428571,0.0004
507,1.2133623361587524,1.6436946392059326,0.5769230769230769,0.8269230769230769,0.5714285714285714,0.8571428571428571,0.0004
508,1.1376724243164062,1.5084514617919922,0.6153846153846154,0.8269230769230769,0.5,0.8571428571428571,0.0004
509,1.179246962070465,1.050187349319458,0.6346153846153846,0.8269230769230769,0.7142857142857143,0.8571428571428571,0.0004
510,1.2810065746307373,1.0974059104919434,0.5576923076923077,0.8269230769230769,0.7142857142857143,0.8571428571428571,0.0004
511,1.1573544144630432,1.6600379943847656,0.5961538461538461,0.8269230769230769,0.42857142857142855,0.8571428571428571,0.0004
512,1.2312809824943542,1.5334041118621826,0.5576923076923077,0.8269230769230769,0.6428571428571429,0.8571428571428571,0.0004
513,1.3534401059150696,1.4919637441635132,0.5,0.8269230769230769,0.6428571428571429,0.8571428571428571,0.0004
514,1.2958834171295166,1.2351734638214111,0.5576923076923077,0.8269230769230769,0.7142857142857143,0.8571428571428571,0.0004
515,1.1906964182853699,1.4779860973358154,0.5961538461538461,0.8269230769230769,0.6428571428571429,0.8571428571428571,0.0004
516,1.1481027603149414,1.3863404989242554,0.6346153846153846,0.8269230769230769,0.5714285714285714,0.8571428571428571,0.0004
517,1.2915579676628113,1.2741200923919678,0.6153846153846154,0.8269230769230769,0.7142857142857143,0.8571428571428571,0.0004
518,1.2994815111160278,1.6860817670822144,0.5,0.8269230769230769,0.5714285714285714,0.8571428571428571,0.0004
519,1.281000792980194,1.117760419845581,0.5384615384615384,0.8269230769230769,0.7142857142857143,0.8571428571428571,0.0004
520,1.2027587294578552,1.2728351354599,0.5769230769230769,0.8269230769230769,0.5714285714285714,0.8571428571428571,0.0004
521,1.3079675436019897,1.528000831604004,0.5576923076923077,0.8269230769230769,0.6428571428571429,0.8571428571428571,0.0004
522,1.2476449608802795,1.0990819931030273,0.5384615384615384,0.8269230769230769,0.7142857142857143,0.8571428571428571,0.0004
523,1.1779608130455017,0.939711332321167,0.5961538461538461,0.8269230769230769,0.8571428571428571,0.8571428571428571,0.0004
524,1.2616057395935059,1.3653701543807983,0.6346153846153846,0.8269230769230769,0.7142857142857143,0.8571428571428571,0.0004
525,1.1536506414413452,0.9653143882751465,0.6538461538461539,0.8269230769230769,0.7857142857142857,0.8571428571428571,0.0004
526,1.1433885991573334,1.5179651975631714,0.6346153846153846,0.8269230769230769,0.5714285714285714,0.8571428571428571,0.0004
527,1.2516090869903564,1.1764558553695679,0.5769230769230769,0.8269230769230769,0.6428571428571429,0.8571428571428571,0.0004
528,1.2019326090812683,1.2240245342254639,0.6153846153846154,0.8269230769230769,0.7857142857142857,0.8571428571428571,0.0004
529,1.120870590209961,0.8507694005966187,0.5769230769230769,0.8269230769230769,0.8571428571428571,0.8571428571428571,0.0004
530,1.0963533520698547,0.9716445803642273,0.6730769230769231,0.8269230769230769,0.8571428571428571,0.8571428571428571,0.0004
531,1.3399460911750793,0.9449136257171631,0.5384615384615384,0.8269230769230769,0.8571428571428571,0.8571428571428571,0.0004
532,1.1790603995323181,1.3547782897949219,0.5384615384615384,0.8269230769230769,0.7142857142857143,0.8571428571428571,0.0004
533,1.183225154876709,1.1105438470840454,0.5769230769230769,0.8269230769230769,0.7142857142857143,0.8571428571428571,0.0004
534,1.1948440074920654,1.0340135097503662,0.6730769230769231,0.8269230769230769,0.8571428571428571,0.8571428571428571,0.0004
535,1.1508876085281372,1.4333381652832031,0.5769230769230769,0.8269230769230769,0.5,0.8571428571428571,0.0004
536,1.18892902135849,1.1379551887512207,0.6538461538461539,0.8269230769230769,0.7142857142857143,0.8571428571428571,0.0004
537,1.299960970878601,1.304229974746704,0.4807692307692308,0.8269230769230769,0.7142857142857143,0.8571428571428571,0.0004
538,1.1463727951049805,1.2627873420715332,0.6538461538461539,0.8269230769230769,0.5714285714285714,0.8571428571428571,0.0004
539,1.3231464624404907,1.2124476432800293,0.5769230769230769,0.8269230769230769,0.5,0.8571428571428571,0.0004
540,1.4286203384399414,1.0896759033203125,0.5384615384615384,0.8269230769230769,0.7857142857142857,0.8571428571428571,0.0004
541,1.481132447719574,1.510999083518982,0.4807692307692308,0.8269230769230769,0.5,0.8571428571428571,0.0004
542,1.3440346121788025,1.4530519247055054,0.4807692307692308,0.8269230769230769,0.42857142857142855,0.8571428571428571,0.0004
543,1.2583867311477661,1.4458937644958496,0.5192307692307693,0.8269230769230769,0.5714285714285714,0.8571428571428571,0.0004
544,1.1463888883590698,1.0884931087493896,0.6346153846153846,0.8269230769230769,0.7142857142857143,0.8571428571428571,0.0004
545,1.1657534837722778,1.332398772239685,0.5769230769230769,0.8269230769230769,0.5,0.8571428571428571,0.0004
546,1.4030036926269531,1.5475187301635742,0.4807692307692308,0.8269230769230769,0.5714285714285714,0.8571428571428571,0.0004
547,1.1936949491500854,1.1330636739730835,0.5384615384615384,0.8269230769230769,0.7142857142857143,0.8571428571428571,0.0004
548,1.2583969831466675,1.4041221141815186,0.5769230769230769,0.8269230769230769,0.7142857142857143,0.8571428571428571,0.0004
549,1.2887169122695923,1.2982311248779297,0.5384615384615384,0.8269230769230769,0.6428571428571429,0.8571428571428571,0.0004
550,1.3476078510284424,1.633500099182129,0.5192307692307693,0.8269230769230769,0.5,0.8571428571428571,0.0004
551,1.2203494310379028,1.5681387186050415,0.6153846153846154,0.8269230769230769,0.5,0.8571428571428571,0.0004
552,1.1149400472640991,1.0862846374511719,0.6730769230769231,0.8269230769230769,0.7857142857142857,0.8571428571428571,0.0004
553,1.1752793788909912,1.1917591094970703,0.6153846153846154,0.8269230769230769,0.6428571428571429,0.8571428571428571,0.0004
554,1.3359084725379944,1.3438878059387207,0.5769230769230769,0.8269230769230769,0.5714285714285714,0.8571428571428571,0.0004
555,1.2251450419425964,1.2068395614624023,0.6153846153846154,0.8269230769230769,0.5714285714285714,0.8571428571428571,0.0004
556,1.1125577092170715,1.4437239170074463,0.5961538461538461,0.8269230769230769,0.6428571428571429,0.8571428571428571,0.0004
557,1.234519124031067,1.4860330820083618,0.5576923076923077,0.8269230769230769,0.5714285714285714,0.8571428571428571,0.0004
558,1.2742878198623657,1.3641698360443115,0.5192307692307693,0.8269230769230769,0.7142857142857143,0.8571428571428571,0.0004
559,1.349079966545105,1.1523977518081665,0.5576923076923077,0.8269230769230769,0.7142857142857143,0.8571428571428571,0.0004
560,1.1843019723892212,1.0285829305648804,0.5961538461538461,0.8269230769230769,0.7857142857142857,0.8571428571428571,0.0004
561,1.239734411239624,1.4670867919921875,0.5769230769230769,0.8269230769230769,0.5,0.8571428571428571,0.0004
562,1.2722400426864624,1.1635260581970215,0.5384615384615384,0.8269230769230769,0.6428571428571429,0.8571428571428571,0.0004
563,1.1302136778831482,1.1519912481307983,0.6346153846153846,0.8269230769230769,0.6428571428571429,0.8571428571428571,0.0004
564,1.208848237991333,1.0729048252105713,0.5769230769230769,0.8269230769230769,0.7142857142857143,0.8571428571428571,0.0004
565,1.0648300647735596,1.1586451530456543,0.6730769230769231,0.8269230769230769,0.6428571428571429,0.8571428571428571,0.0004
566,1.323813796043396,1.0346167087554932,0.5,0.8269230769230769,0.7857142857142857,0.8571428571428571,0.0004
567,1.1723223328590393,1.1339043378829956,0.5961538461538461,0.8269230769230769,0.7142857142857143,0.8571428571428571,0.0004
568,1.227834165096283,1.3546241521835327,0.5769230769230769,0.8269230769230769,0.6428571428571429,0.8571428571428571,0.0004
569,1.0430585741996765,1.6229652166366577,0.6730769230769231,0.8269230769230769,0.5714285714285714,0.8571428571428571,0.0004
570,1.177784502506256,1.4637203216552734,0.5961538461538461,0.8269230769230769,0.6428571428571429,0.8571428571428571,0.0004
571,1.0378146469593048,0.9007657766342163,0.6730769230769231,0.8269230769230769,0.7857142857142857,0.8571428571428571,0.0004
572,1.2920816540718079,1.3202331066131592,0.5384615384615384,0.8269230769230769,0.7142857142857143,0.8571428571428571,0.0004
573,1.207774817943573,1.4210622310638428,0.5576923076923077,0.8269230769230769,0.7142857142857143,0.8571428571428571,0.0004
574,1.2318655252456665,0.9791890382766724,0.5769230769230769,0.8269230769230769,0.7857142857142857,0.8571428571428571,0.0004
575,1.1586087346076965,1.4710302352905273,0.6153846153846154,0.8269230769230769,0.6428571428571429,0.8571428571428571,0.0004
576,1.3092149496078491,1.3338654041290283,0.5769230769230769,0.8269230769230769,0.5714285714285714,0.8571428571428571,0.0004
577,1.0936687588691711,1.3954408168792725,0.6346153846153846,0.8269230769230769,0.5714285714285714,0.8571428571428571,0.0004
578,1.204780638217926,1.3526926040649414,0.6153846153846154,0.8269230769230769,0.7857142857142857,0.8571428571428571,0.0004
579,1.1268180012702942,1.1985756158828735,0.6346153846153846,0.8269230769230769,0.7142857142857143,0.8571428571428571,0.0004
580,1.3082379698753357,0.8094627261161804,0.5576923076923077,0.8269230769230769,0.8571428571428571,0.8571428571428571,0.0004
581,1.2889977097511292,1.2150628566741943,0.5,0.8269230769230769,0.6428571428571429,0.8571428571428571,0.0004
582,1.0371105074882507,1.2681524753570557,0.6538461538461539,0.8269230769230769,0.6428571428571429,0.8571428571428571,0.0004
583,1.1391790807247162,1.007596731185913,0.5192307692307693,0.8269230769230769,0.7857142857142857,0.8571428571428571,0.0004
584,1.1329689025878906,1.358260154724121,0.5769230769230769,0.8269230769230769,0.5714285714285714,0.8571428571428571,0.0004
585,1.1621548533439636,1.0827558040618896,0.5769230769230769,0.8269230769230769,0.7142857142857143,0.8571428571428571,0.0004
586,1.1755667328834534,1.1030869483947754,0.6346153846153846,0.8269230769230769,0.7142857142857143,0.8571428571428571,0.0004
587,1.3634584546089172,1.4884936809539795,0.5192307692307693,0.8269230769230769,0.6428571428571429,0.8571428571428571,0.0004
588,1.1846949458122253,1.2372698783874512,0.6153846153846154,0.8269230769230769,0.7142857142857143,0.8571428571428571,0.0004
589,1.203903615474701,1.6838624477386475,0.5576923076923077,0.8269230769230769,0.5,0.8571428571428571,0.0004
590,1.1248483657836914,1.2064437866210938,0.5576923076923077,0.8269230769230769,0.6428571428571429,0.8571428571428571,0.0004
591,1.2112995386123657,1.362335205078125,0.6923076923076923,0.8269230769230769,0.6428571428571429,0.8571428571428571,0.0004
592,1.2563558220863342,1.5102914571762085,0.5961538461538461,0.8269230769230769,0.5714285714285714,0.8571428571428571,0.0004
593,1.4393190145492554,1.6025605201721191,0.5384615384615384,0.8269230769230769,0.5714285714285714,0.8571428571428571,0.0004
594,1.360899269580841,1.109501600265503,0.5384615384615384,0.8269230769230769,0.7142857142857143,0.8571428571428571,0.0004
595,1.3604429960250854,1.481501579284668,0.5961538461538461,0.8269230769230769,0.6428571428571429,0.8571428571428571,0.0004
596,1.2604591846466064,1.0837942361831665,0.5576923076923077,0.8269230769230769,0.7857142857142857,0.8571428571428571,0.0004
597,1.1334868371486664,1.2666465044021606,0.6153846153846154,0.8269230769230769,0.6428571428571429,0.8571428571428571,0.0004
598,1.1879873871803284,1.128686785697937,0.6153846153846154,0.8269230769230769,0.5714285714285714,0.8571428571428571,0.0004
599,1.3075430393218994,1.327427625656128,0.5384615384615384,0.8269230769230769,0.5714285714285714,0.8571428571428571,0.0004
600,1.1680055260658264,1.4604133367538452,0.5769230769230769,0.8269230769230769,0.6428571428571429,0.8571428571428571,0.0004
601,1.1693843603134155,1.3896820545196533,0.5961538461538461,0.8269230769230769,0.5714285714285714,0.8571428571428571,0.0004
602,1.2130427360534668,1.5510954856872559,0.5576923076923077,0.8269230769230769,0.5,0.8571428571428571,0.0004
603,1.2495208978652954,1.3684971332550049,0.5192307692307693,0.8269230769230769,0.5714285714285714,0.8571428571428571,0.0004
604,1.3075577020645142,1.2115182876586914,0.4807692307692308,0.8269230769230769,0.7857142857142857,0.8571428571428571,0.0004
605,1.1586628556251526,1.0579038858413696,0.5769230769230769,0.8269230769230769,0.6428571428571429,0.8571428571428571,0.0004
606,1.412462592124939,1.3244102001190186,0.4807692307692308,0.8269230769230769,0.5714285714285714,0.8571428571428571,0.0004
607,1.1933596730232239,1.4521195888519287,0.5576923076923077,0.8269230769230769,0.5,0.8571428571428571,0.0004
608,1.246650218963623,1.5696282386779785,0.5769230769230769,0.8269230769230769,0.5,0.8571428571428571,0.0004
609,1.1542805433273315,1.1948838233947754,0.6538461538461539,0.8269230769230769,0.6428571428571429,0.8571428571428571,0.0004
610,1.1091603636741638,1.9641590118408203,0.5961538461538461,0.8269230769230769,0.42857142857142855,0.8571428571428571,0.0004
611,1.1774808168411255,1.2132481336593628,0.5576923076923077,0.8269230769230769,0.7142857142857143,0.8571428571428571,0.0004
612,1.1415719985961914,1.1896387338638306,0.6153846153846154,0.8269230769230769,0.5714285714285714,0.8571428571428571,0.0004
613,1.2386565208435059,1.779906988143921,0.6153846153846154,0.8269230769230769,0.5,0.8571428571428571,0.0004
614,1.318228304386139,0.9609153270721436,0.5576923076923077,0.8269230769230769,0.7857142857142857,0.8571428571428571,0.0004
615,1.0716812014579773,1.0143928527832031,0.6346153846153846,0.8269230769230769,0.7142857142857143,0.8571428571428571,0.0004
616,1.292046844959259,1.118732213973999,0.5384615384615384,0.8269230769230769,0.7142857142857143,0.8571428571428571,0.0004
617,1.2084314227104187,1.4941082000732422,0.5769230769230769,0.8269230769230769,0.5,0.8571428571428571,0.0004
618,1.174375057220459,0.9675422310829163,0.5961538461538461,0.8269230769230769,0.7857142857142857,0.8571428571428571,0.0004
619,1.2724530696868896,1.0486373901367188,0.5576923076923077,0.8269230769230769,0.7142857142857143,0.8571428571428571,0.0004
620,1.4074144959449768,1.5237302780151367,0.5192307692307693,0.8269230769230769,0.7142857142857143,0.8571428571428571,0.0004
621,1.343353509902954,1.207224726676941,0.5769230769230769,0.8269230769230769,0.7142857142857143,0.8571428571428571,0.0004
622,1.160923719406128,0.9709238409996033,0.6153846153846154,0.8269230769230769,0.7857142857142857,0.8571428571428571,0.0004
623,1.1682718992233276,1.4628933668136597,0.6346153846153846,0.8269230769230769,0.5714285714285714,0.8571428571428571,0.0004
624,1.4035882353782654,1.664505124092102,0.5,0.8269230769230769,0.5714285714285714,0.8571428571428571,0.0004
625,1.1829842925071716,1.3250508308410645,0.5961538461538461,0.8269230769230769,0.6428571428571429,0.8571428571428571,0.0004
626,1.2106888890266418,1.2747985124588013,0.6153846153846154,0.8269230769230769,0.5714285714285714,0.8571428571428571,0.0004
627,1.3194919228553772,1.4054820537567139,0.5,0.8269230769230769,0.5,0.8571428571428571,0.0004
628,1.4820160269737244,1.2567081451416016,0.5192307692307693,0.8269230769230769,0.5714285714285714,0.8571428571428571,0.0004
629,1.5558334589004517,1.2420717477798462,0.4230769230769231,0.8269230769230769,0.5714285714285714,0.8571428571428571,0.0004
630,1.4954699277877808,1.7212061882019043,0.4423076923076923,0.8269230769230769,0.5,0.8571428571428571,0.0004
631,1.3429555892944336,1.2475597858428955,0.5576923076923077,0.8269230769230769,0.6428571428571429,0.8571428571428571,0.0004
632,1.212365746498108,0.9365130662918091,0.5576923076923077,0.8269230769230769,0.7857142857142857,0.8571428571428571,0.0004
633,1.2382670044898987,1.4877123832702637,0.5769230769230769,0.8269230769230769,0.7142857142857143,0.8571428571428571,0.0004
634,1.0925231575965881,1.3903414011001587,0.6346153846153846,0.8269230769230769,0.5,0.8571428571428571,0.0004
635,1.420589566230774,1.0703855752944946,0.4807692307692308,0.8269230769230769,0.7142857142857143,0.8571428571428571,0.0004
636,1.279884696006775,1.4511959552764893,0.5769230769230769,0.8269230769230769,0.6428571428571429,0.8571428571428571,0.0004
637,1.1896255612373352,1.2638181447982788,0.6153846153846154,0.8269230769230769,0.6428571428571429,0.8571428571428571,0.0004
638,1.2830104231834412,1.5937262773513794,0.5576923076923077,0.8269230769230769,0.42857142857142855,0.8571428571428571,0.0004
639,1.3209521770477295,1.0601238012313843,0.5,0.8269230769230769,0.7857142857142857,0.8571428571428571,0.0004
640,1.376848042011261,1.2224829196929932,0.46153846153846156,0.8269230769230769,0.6428571428571429,0.8571428571428571,0.0004
641,1.2726951837539673,1.185143232345581,0.6346153846153846,0.8269230769230769,0.7142857142857143,0.8571428571428571,0.0004
642,1.3068536520004272,1.104604959487915,0.5384615384615384,0.8269230769230769,0.7857142857142857,0.8571428571428571,0.0004
643,1.1137287616729736,1.2907416820526123,0.6538461538461539,0.8269230769230769,0.7142857142857143,0.8571428571428571,0.0004
644,1.1863850355148315,1.3871023654937744,0.5384615384615384,0.8269230769230769,0.7142857142857143,0.8571428571428571,0.0004
645,1.211076557636261,1.3907272815704346,0.5769230769230769,0.8269230769230769,0.5,0.8571428571428571,0.0004
646,1.2497302889823914,1.4739806652069092,0.5,0.8269230769230769,0.5714285714285714,0.8571428571428571,0.0004
647,1.2586339712142944,1.5321004390716553,0.5961538461538461,0.8269230769230769,0.6428571428571429,0.8571428571428571,0.0004
648,1.1983060836791992,1.145119071006775,0.5961538461538461,0.8269230769230769,0.7142857142857143,0.8571428571428571,0.0004
649,1.2714254260063171,1.1665143966674805,0.5769230769230769,0.8269230769230769,0.7857142857142857,0.8571428571428571,0.0004
650,1.0458484292030334,1.2943322658538818,0.6923076923076923,0.8269230769230769,0.6428571428571429,0.8571428571428571,0.0004
651,1.2734395265579224,0.9923242926597595,0.5384615384615384,0.8269230769230769,0.7857142857142857,0.8571428571428571,0.0004
652,1.2125526666641235,1.2004932165145874,0.5769230769230769,0.8269230769230769,0.7142857142857143,0.8571428571428571,0.0004
653,1.2767818570137024,0.9483547806739807,0.5384615384615384,0.8269230769230769,0.7142857142857143,0.8571428571428571,0.0004
654,1.3160794973373413,1.3615988492965698,0.5,0.8269230769230769,0.7142857142857143,0.8571428571428571,0.0004
655,1.132734477519989,1.0806233882904053,0.5961538461538461,0.8269230769230769,0.6428571428571429,0.8571428571428571,0.0004
656,1.133090853691101,1.556375503540039,0.6538461538461539,0.8269230769230769,0.5714285714285714,0.8571428571428571,0.0004
657,1.1892126202583313,1.505932331085205,0.6923076923076923,0.8269230769230769,0.7142857142857143,0.8571428571428571,0.0004
658,1.118192970752716,1.4212539196014404,0.6153846153846154,0.8269230769230769,0.5,0.8571428571428571,0.0004
659,1.1299923658370972,1.433632493019104,0.5769230769230769,0.8269230769230769,0.42857142857142855,0.8571428571428571,0.0004
660,1.2555521726608276,1.302825689315796,0.5192307692307693,0.8269230769230769,0.5714285714285714,0.8571428571428571,0.0004
661,1.2537481784820557,0.9824138879776001,0.5192307692307693,0.8269230769230769,0.7857142857142857,0.8571428571428571,0.0004
662,1.0774772763252258,1.5496525764465332,0.7115384615384616,0.8269230769230769,0.5714285714285714,0.8571428571428571,0.0004
663,1.046169936656952,0.9389739632606506,0.6923076923076923,0.8269230769230769,0.8571428571428571,0.8571428571428571,0.0004
664,1.1085916459560394,1.0093543529510498,0.7307692307692307,0.8269230769230769,0.8571428571428571,0.8571428571428571,0.0004
665,1.1277921199798584,1.0173306465148926,0.6153846153846154,0.8269230769230769,0.8571428571428571,0.8571428571428571,0.0004
666,1.2506053447723389,1.0349719524383545,0.5192307692307693,0.8269230769230769,0.7857142857142857,0.8571428571428571,0.0004
667,1.2451626658439636,0.979141354560852,0.5384615384615384,0.8269230769230769,0.7142857142857143,0.8571428571428571,0.0004
668,1.1675748229026794,0.8754975199699402,0.6538461538461539,0.8269230769230769,0.8571428571428571,0.8571428571428571,0.0004
669,1.0585560202598572,0.9098589420318604,0.6730769230769231,0.8269230769230769,0.7857142857142857,0.8571428571428571,0.0004
670,1.0501359701156616,1.2965412139892578,0.5961538461538461,0.8269230769230769,0.7142857142857143,0.8571428571428571,0.0004
671,1.0895419716835022,1.221440076828003,0.5961538461538461,0.8269230769230769,0.6428571428571429,0.8571428571428571,0.0004
672,0.9755073189735413,1.0806467533111572,0.7307692307692307,0.8269230769230769,0.7142857142857143,0.8571428571428571,0.0004
673,1.1660399436950684,0.8161821365356445,0.5384615384615384,0.8269230769230769,0.9285714285714286,0.8571428571428571,0.0004
674,1.2423685193061829,1.202721357345581,0.5576923076923077,0.8269230769230769,0.7142857142857143,0.8571428571428571,0.0004
675,1.315743327140808,1.1418319940567017,0.5576923076923077,0.8269230769230769,0.7142857142857143,0.8571428571428571,0.0004
676,1.2771666646003723,1.7999155521392822,0.6153846153846154,0.8269230769230769,0.5714285714285714,0.8571428571428571,0.0004
677,1.2794163227081299,1.7639216184616089,0.5961538461538461,0.8269230769230769,0.5,0.8571428571428571,0.0004
678,1.1573024988174438,1.0930761098861694,0.6153846153846154,0.8269230769230769,0.5714285714285714,0.8571428571428571,0.0004
679,1.3434409499168396,1.5833412408828735,0.5576923076923077,0.8269230769230769,0.5714285714285714,0.8571428571428571,0.0004
680,1.156682312488556,1.2089481353759766,0.5769230769230769,0.8269230769230769,0.6428571428571429,0.8571428571428571,0.0004
681,1.186306118965149,1.3818354606628418,0.6346153846153846,0.8269230769230769,0.5714285714285714,0.8571428571428571,0.0004
682,1.3257394433021545,1.495131015777588,0.6538461538461539,0.8269230769230769,0.7857142857142857,0.8571428571428571,0.0004
683,1.3234072923660278,1.252485752105713,0.4807692307692308,0.8269230769230769,0.7142857142857143,0.8571428571428571,0.0004
684,1.1896076202392578,0.9452822804450989,0.6346153846153846,0.8269230769230769,0.8571428571428571,0.8571428571428571,0.0004
685,1.1651921272277832,0.851463258266449,0.5961538461538461,0.8269230769230769,0.7857142857142857,0.8571428571428571,0.0004
686,1.3698809146881104,1.296614170074463,0.5192307692307693,0.8269230769230769,0.5714285714285714,0.8571428571428571,0.0004
687,1.087199330329895,0.9995502829551697,0.6346153846153846,0.8269230769230769,0.7857142857142857,0.8571428571428571,0.0004
688,1.1079373359680176,1.0200512409210205,0.5576923076923077,0.8269230769230769,0.7142857142857143,0.8571428571428571,0.0004
689,1.140458881855011,0.8816465139389038,0.5576923076923077,0.8269230769230769,0.9285714285714286,0.8571428571428571,0.0004
690,1.0983688831329346,1.3211959600448608,0.6346153846153846,0.8269230769230769,0.5,0.8571428571428571,0.0004
691,1.025865912437439,1.712360143661499,0.5769230769230769,0.8269230769230769,0.5714285714285714,0.8571428571428571,0.0004
692,1.1526928544044495,1.4383952617645264,0.5961538461538461,0.8269230769230769,0.5,0.8571428571428571,0.0004
693,1.085858941078186,1.4353973865509033,0.6538461538461539,0.8269230769230769,0.7857142857142857,0.8571428571428571,0.0004
694,1.1523054242134094,1.130642056465149,0.6346153846153846,0.8269230769230769,0.8571428571428571,0.8571428571428571,0.0004
695,1.2469239830970764,1.3249717950820923,0.5961538461538461,0.8269230769230769,0.5,0.8571428571428571,0.0004
696,1.3480731844902039,1.4653284549713135,0.5,0.8269230769230769,0.5714285714285714,0.8571428571428571,0.0004
697,1.0966601967811584,1.341015338897705,0.5961538461538461,0.8269230769230769,0.7142857142857143,0.8571428571428571,0.0004
698,1.1228159070014954,1.3318305015563965,0.5384615384615384,0.8269230769230769,0.7142857142857143,0.8571428571428571,0.0004
699,1.0862717628479004,1.4120399951934814,0.6538461538461539,0.8269230769230769,0.5714285714285714,0.8571428571428571,0.0004
700,1.1057302951812744,1.5091038942337036,0.6346153846153846,0.8269230769230769,0.5,0.8571428571428571,0.0004
701,1.232880413532257,0.9729602932929993,0.5769230769230769,0.8269230769230769,0.8571428571428571,0.8571428571428571,0.0004
702,1.1748082637786865,1.443739652633667,0.5769230769230769,0.8269230769230769,0.5714285714285714,0.8571428571428571,0.0004
703,1.0713645219802856,1.2290420532226562,0.6923076923076923,0.8269230769230769,0.6428571428571429,0.8571428571428571,0.0004
704,1.24038565158844,1.5249953269958496,0.5961538461538461,0.8269230769230769,0.5714285714285714,0.8571428571428571,0.0004
705,1.4543397426605225,1.14689040184021,0.4807692307692308,0.8269230769230769,0.7142857142857143,0.8571428571428571,0.0004
706,1.0185509324073792,1.1375234127044678,0.6538461538461539,0.8269230769230769,0.6428571428571429,0.8571428571428571,0.0004
707,1.2778960466384888,1.0267044305801392,0.5961538461538461,0.8269230769230769,0.7142857142857143,0.8571428571428571,0.0004
708,1.1316492557525635,1.3151605129241943,0.5576923076923077,0.8269230769230769,0.42857142857142855,0.8571428571428571,0.0004
709,1.2013314962387085,1.2624762058258057,0.5769230769230769,0.8269230769230769,0.5714285714285714,0.8571428571428571,0.0004
710,1.3301589488983154,0.9976851940155029,0.5,0.8269230769230769,0.5,0.8571428571428571,0.0004
711,1.4390499591827393,1.4638973474502563,0.4807692307692308,0.8269230769230769,0.42857142857142855,0.8571428571428571,0.0004
712,1.1866360902786255,0.9602394104003906,0.5384615384615384,0.8269230769230769,0.5,0.8571428571428571,0.0004
713,1.0810123980045319,1.542421817779541,0.5769230769230769,0.8269230769230769,0.42857142857142855,0.8571428571428571,0.0004
714,1.2150567173957825,1.1820473670959473,0.5961538461538461,0.8269230769230769,0.5,0.8571428571428571,0.0004
715,1.251446008682251,1.0466443300247192,0.5576923076923077,0.8269230769230769,0.5,0.8571428571428571,0.0004
716,1.3371278643608093,0.9097534418106079,0.5,0.8269230769230769,0.8571428571428571,0.8571428571428571,0.0004
717,1.141994833946228,1.039590835571289,0.6346153846153846,0.8269230769230769,0.7142857142857143,0.8571428571428571,0.0004
718,1.1564033031463623,0.9845077991485596,0.5576923076923077,0.8269230769230769,0.7857142857142857,0.8571428571428571,0.0004
719,1.1326473355293274,1.0877056121826172,0.5384615384615384,0.8269230769230769,0.6428571428571429,0.8571428571428571,0.0004
720,1.207824945449829,1.0424213409423828,0.5961538461538461,0.8269230769230769,0.7142857142857143,0.8571428571428571,0.0004
721,1.16769677400589,1.4885435104370117,0.6346153846153846,0.8269230769230769,0.42857142857142855,0.8571428571428571,0.0004
722,1.1807088255882263,1.0061646699905396,0.5769230769230769,0.8269230769230769,0.7857142857142857,0.8571428571428571,0.0004
723,1.2419872283935547,0.8813226222991943,0.5576923076923077,0.8269230769230769,0.7857142857142857,0.8571428571428571,0.0004
724,1.123789131641388,1.2223458290100098,0.5961538461538461,0.8269230769230769,0.6428571428571429,0.8571428571428571,0.0004
725,1.0711527466773987,1.0398600101470947,0.5961538461538461,0.8269230769230769,0.7857142857142857,0.8571428571428571,0.0004
726,1.3133387565612793,1.015598177909851,0.5,0.8269230769230769,0.7857142857142857,0.8571428571428571,0.0004
727,1.0549381971359253,0.9738240242004395,0.6153846153846154,0.8269230769230769,0.8571428571428571,0.8571428571428571,0.0004
728,1.128913402557373,1.4348810911178589,0.5769230769230769,0.8269230769230769,0.6428571428571429,0.8571428571428571,0.0004
729,1.1610204577445984,1.5599288940429688,0.6153846153846154,0.8269230769230769,0.5714285714285714,0.8571428571428571,0.0004
730,1.2448561787605286,1.4172122478485107,0.5769230769230769,0.8269230769230769,0.6428571428571429,0.8571428571428571,0.0004
731,1.312267780303955,1.175532341003418,0.5,0.8269230769230769,0.6428571428571429,0.8571428571428571,0.0004
732,1.2537293434143066,1.1739126443862915,0.5384615384615384,0.8269230769230769,0.7857142857142857,0.8571428571428571,0.0004
733,1.0780304670333862,1.7529488801956177,0.6153846153846154,0.8269230769230769,0.42857142857142855,0.8571428571428571,0.0004
734,1.247898280620575,1.6800912618637085,0.5192307692307693,0.8269230769230769,0.6428571428571429,0.8571428571428571,0.0004
735,1.3489341735839844,1.7680344581604004,0.5769230769230769,0.8269230769230769,0.5,0.8571428571428571,0.0004
736,1.247436761856079,1.2225866317749023,0.5384615384615384,0.8269230769230769,0.6428571428571429,0.8571428571428571,0.0004
737,1.1168057322502136,1.0091660022735596,0.6346153846153846,0.8269230769230769,0.7857142857142857,0.8571428571428571,0.0004
738,1.3984954953193665,1.4363198280334473,0.5576923076923077,0.8269230769230769,0.5714285714285714,0.8571428571428571,0.0004
739,1.5596061944961548,1.389959692955017,0.4807692307692308,0.8269230769230769,0.5714285714285714,0.8571428571428571,0.0004
740,1.4397327899932861,1.6610009670257568,0.5192307692307693,0.8269230769230769,0.42857142857142855,0.8571428571428571,0.0004
741,1.3389700055122375,1.588737964630127,0.5384615384615384,0.8269230769230769,0.5714285714285714,0.8571428571428571,0.0004
742,1.7233376502990723,1.1645036935806274,0.38461538461538464,0.8269230769230769,0.7857142857142857,0.8571428571428571,0.0004
743,1.3836885690689087,1.254956841468811,0.4807692307692308,0.8269230769230769,0.6428571428571429,0.8571428571428571,0.0004
744,1.3192188739776611,1.2446160316467285,0.5769230769230769,0.8269230769230769,0.5714285714285714,0.8571428571428571,0.0004
745,1.2212842106819153,1.1957087516784668,0.5384615384615384,0.8269230769230769,0.7142857142857143,0.8571428571428571,0.0004
746,1.1723679304122925,1.059241771697998,0.5769230769230769,0.8269230769230769,0.7142857142857143,0.8571428571428571,0.0004
747,1.1865031719207764,1.2164503335952759,0.5576923076923077,0.8269230769230769,0.5714285714285714,0.8571428571428571,0.0004
748,1.1820798516273499,1.1289641857147217,0.5384615384615384,0.8269230769230769,0.5714285714285714,0.8571428571428571,0.0004
749,1.2665917873382568,1.4306913614273071,0.5961538461538461,0.8269230769230769,0.5714285714285714,0.8571428571428571,0.0004
750,1.305218517780304,1.798323631286621,0.5,0.8269230769230769,0.42857142857142855,0.8571428571428571,0.0004
751,1.257967472076416,1.051415205001831,0.5576923076923077,0.8269230769230769,0.7857142857142857,0.8571428571428571,0.0004
752,1.236044466495514,1.3234888315200806,0.5384615384615384,0.8269230769230769,0.5714285714285714,0.8571428571428571,0.0004
753,1.1453089118003845,1.0016692876815796,0.6153846153846154,0.8269230769230769,0.7857142857142857,0.8571428571428571,0.0004
754,1.3159981966018677,1.492121934890747,0.5576923076923077,0.8269230769230769,0.5714285714285714,0.8571428571428571,0.0004
755,1.1892816424369812,1.699023723602295,0.6153846153846154,0.8269230769230769,0.5714285714285714,0.8571428571428571,0.0004
756,1.1695734858512878,1.3877531290054321,0.6153846153846154,0.8269230769230769,0.7142857142857143,0.8571428571428571,0.0004
757,1.2194282412528992,0.9830771684646606,0.5769230769230769,0.8269230769230769,0.7857142857142857,0.8571428571428571,0.0004
758,1.1508705615997314,1.223731517791748,0.6538461538461539,0.8269230769230769,0.7142857142857143,0.8571428571428571,0.0004
759,1.2333880066871643,1.5722689628601074,0.5769230769230769,0.8269230769230769,0.7142857142857143,0.8571428571428571,0.0004
760,1.0399331450462341,1.8811744451522827,0.6730769230769231,0.8269230769230769,0.5,0.8571428571428571,0.0004
761,1.0842673778533936,1.4548100233078003,0.6538461538461539,0.8269230769230769,0.5714285714285714,0.8571428571428571,0.0004
762,1.0420466363430023,1.0821444988250732,0.5961538461538461,0.8269230769230769,0.6428571428571429,0.8571428571428571,0.0004
763,0.9665611684322357,1.0184599161148071,0.6538461538461539,0.8269230769230769,0.7857142857142857,0.8571428571428571,0.0004
764,1.1788966655731201,1.004815936088562,0.6346153846153846,0.8269230769230769,0.7857142857142857,0.8571428571428571,0.0004
765,1.0979157090187073,1.7396295070648193,0.6538461538461539,0.8269230769230769,0.6428571428571429,0.8571428571428571,0.0004
766,1.2781500816345215,1.1168867349624634,0.5384615384615384,0.8269230769230769,0.6428571428571429,0.8571428571428571,0.0004
767,1.3869876861572266,1.0680001974105835,0.5384615384615384,0.8269230769230769,0.7142857142857143,0.8571428571428571,0.0004
768,1.3751286268234253,1.06318199634552,0.5769230769230769,0.8269230769230769,0.7142857142857143,0.8571428571428571,0.0004
769,1.1718882322311401,1.1276068687438965,0.6730769230769231,0.8269230769230769,0.7857142857142857,0.8571428571428571,0.0004
770,1.172614872455597,0.9946112632751465,0.6346153846153846,0.8269230769230769,0.7142857142857143,0.8571428571428571,0.0004
771,1.0338987708091736,1.2942581176757812,0.6153846153846154,0.8269230769230769,0.5,0.8571428571428571,0.0004
772,1.2210609912872314,1.0710564851760864,0.5961538461538461,0.8269230769230769,0.7142857142857143,0.8571428571428571,0.0004
773,1.1459875106811523,1.454978585243225,0.6346153846153846,0.8269230769230769,0.5714285714285714,0.8571428571428571,0.0004
774,1.162315011024475,1.136289358139038,0.5961538461538461,0.8269230769230769,0.6428571428571429,0.8571428571428571,0.0004
775,1.110989511013031,0.9981886744499207,0.6153846153846154,0.8269230769230769,0.7142857142857143,0.8571428571428571,0.0004
776,1.1482793092727661,1.416386365890503,0.6153846153846154,0.8269230769230769,0.5,0.8571428571428571,0.0004
777,1.130643367767334,1.1291170120239258,0.5576923076923077,0.8269230769230769,0.6428571428571429,0.8571428571428571,0.0004
778,1.1675648093223572,1.477982997894287,0.5961538461538461,0.8269230769230769,0.7142857142857143,0.8571428571428571,0.0004
779,1.2232605814933777,0.9877865314483643,0.5384615384615384,0.8269230769230769,0.6428571428571429,0.8571428571428571,0.0004
780,1.338741958141327,1.387993574142456,0.5192307692307693,0.8269230769230769,0.5714285714285714,0.8571428571428571,0.0004
781,1.2991453409194946,1.1859159469604492,0.5384615384615384,0.8269230769230769,0.7857142857142857,0.8571428571428571,0.0004
782,1.0939325392246246,1.319044589996338,0.6346153846153846,0.8269230769230769,0.5714285714285714,0.8571428571428571,0.0004
783,1.353579580783844,1.7542996406555176,0.6153846153846154,0.8269230769230769,0.5,0.8571428571428571,0.0004
784,1.0857594013214111,1.3972687721252441,0.6730769230769231,0.8269230769230769,0.6428571428571429,0.8571428571428571,0.0004
785,1.1734097003936768,1.4894545078277588,0.5769230769230769,0.8269230769230769,0.5714285714285714,0.8571428571428571,0.0004
786,1.3475880026817322,1.3336764574050903,0.5192307692307693,0.8269230769230769,0.6428571428571429,0.8571428571428571,0.0004
787,1.249194860458374,1.233222484588623,0.5192307692307693,0.8269230769230769,0.5714285714285714,0.8571428571428571,0.0004
788,1.4304097890853882,1.4199073314666748,0.5192307692307693,0.8269230769230769,0.35714285714285715,0.8571428571428571,0.0004
789,1.4721333980560303,1.5486583709716797,0.40384615384615385,0.8269230769230769,0.5,0.8571428571428571,0.0004
790,1.3255102038383484,1.2939918041229248,0.5576923076923077,0.8269230769230769,0.5714285714285714,0.8571428571428571,0.0004
791,1.2105580568313599,1.3461756706237793,0.6153846153846154,0.8269230769230769,0.5,0.8571428571428571,0.0004
792,1.173418402671814,1.0466631650924683,0.6538461538461539,0.8269230769230769,0.7142857142857143,0.8571428571428571,0.0004
793,1.1498445868492126,1.263792872428894,0.7115384615384616,0.8269230769230769,0.7142857142857143,0.8571428571428571,0.0004
794,1.0711498856544495,1.208829641342163,0.6730769230769231,0.8269230769230769,0.7142857142857143,0.8571428571428571,0.0004
795,1.3843041062355042,1.2615270614624023,0.5192307692307693,0.8269230769230769,0.5,0.8571428571428571,0.0004
796,1.1478215456008911,1.2792844772338867,0.5192307692307693,0.8269230769230769,0.42857142857142855,0.8571428571428571,0.0004
797,1.200150966644287,1.069563865661621,0.5769230769230769,0.8269230769230769,0.42857142857142855,0.8571428571428571,0.0004
798,1.192002296447754,1.1932364702224731,0.6153846153846154,0.8269230769230769,0.5,0.8571428571428571,0.0004
799,1.2473078966140747,1.3214359283447266,0.5,0.8269230769230769,0.42857142857142855,0.8571428571428571,0.0004
800,1.2558299899101257,1.2871073484420776,0.5961538461538461,0.8269230769230769,0.42857142857142855,0.8571428571428571,0.0004
801,1.2617051005363464,1.927849531173706,0.5576923076923077,0.8269230769230769,0.42857142857142855,0.8571428571428571,0.0004
802,1.2996113300323486,1.3820674419403076,0.4423076923076923,0.8269230769230769,0.5,0.8571428571428571,0.0004
803,1.412478744983673,1.4268609285354614,0.5,0.8269230769230769,0.5,0.8571428571428571,0.0004
804,1.2215771079063416,1.624135136604309,0.5384615384615384,0.8269230769230769,0.35714285714285715,0.8571428571428571,0.0004
805,1.3015832901000977,1.4855246543884277,0.5,0.8269230769230769,0.5714285714285714,0.8571428571428571,0.0004
806,1.0849531590938568,1.362815499305725,0.5769230769230769,0.8269230769230769,0.42857142857142855,0.8571428571428571,0.0004
807,1.290679156780243,1.1189522743225098,0.5384615384615384,0.8269230769230769,0.7142857142857143,0.8571428571428571,0.0004
808,1.1372182965278625,0.9899861812591553,0.5576923076923077,0.8269230769230769,0.7857142857142857,0.8571428571428571,0.0004
809,1.2366119027137756,1.303483486175537,0.5384615384615384,0.8269230769230769,0.5,0.8571428571428571,0.0004
810,1.2405421733856201,1.0785020589828491,0.5961538461538461,0.8269230769230769,0.7857142857142857,0.8571428571428571,0.0004
811,1.2438687682151794,1.3660128116607666,0.5384615384615384,0.8269230769230769,0.6428571428571429,0.8571428571428571,0.0004
812,1.340631365776062,1.4526896476745605,0.5769230769230769,0.8269230769230769,0.5714285714285714,0.8571428571428571,0.0004
813,1.4488020539283752,1.153376579284668,0.5,0.8269230769230769,0.7142857142857143,0.8571428571428571,0.0004
814,1.1896212100982666,1.3145045042037964,0.5961538461538461,0.8269230769230769,0.6428571428571429,0.8571428571428571,0.0004
815,1.2817672491073608,1.2561811208724976,0.5769230769230769,0.8269230769230769,0.6428571428571429,0.8571428571428571,0.0004
816,1.3719519972801208,1.6922521591186523,0.4807692307692308,0.8269230769230769,0.6428571428571429,0.8571428571428571,0.0004
817,1.3183326721191406,1.6302342414855957,0.5192307692307693,0.8269230769230769,0.6428571428571429,0.8571428571428571,0.0004
818,1.148726463317871,1.5770056247711182,0.6346153846153846,0.8269230769230769,0.5714285714285714,0.8571428571428571,0.0004
819,1.2635447978973389,0.9358713626861572,0.5576923076923077,0.8269230769230769,0.7857142857142857,0.8571428571428571,0.0004
820,1.1411904692649841,1.092717170715332,0.5961538461538461,0.8269230769230769,0.7142857142857143,0.8571428571428571,0.0004
821,1.265506088733673,1.4708425998687744,0.6153846153846154,0.8269230769230769,0.5714285714285714,0.8571428571428571,0.0004
822,1.08474600315094,1.5792711973190308,0.5961538461538461,0.8269230769230769,0.5714285714285714,0.8571428571428571,0.0004
823,1.2156087756156921,1.194669246673584,0.5961538461538461,0.8269230769230769,0.5714285714285714,0.8571428571428571,0.0004
824,1.2169866561889648,1.3314168453216553,0.5961538461538461,0.8269230769230769,0.7142857142857143,0.8571428571428571,0.0004
825,1.333159327507019,1.2831896543502808,0.5192307692307693,0.8269230769230769,0.5714285714285714,0.8571428571428571,0.0004
826,1.3313897848129272,1.579519271850586,0.5192307692307693,0.8269230769230769,0.6428571428571429,0.8571428571428571,0.0004
827,1.0225448310375214,1.372100591659546,0.6538461538461539,0.8269230769230769,0.42857142857142855,0.8571428571428571,0.0004
828,1.0811273455619812,0.9063039422035217,0.6153846153846154,0.8269230769230769,0.7857142857142857,0.8571428571428571,0.0004
829,1.2158492803573608,1.272825837135315,0.6346153846153846,0.8269230769230769,0.42857142857142855,0.8571428571428571,0.0004
830,1.3041514158248901,1.1851800680160522,0.4807692307692308,0.8269230769230769,0.5,0.8571428571428571,0.0004
831,1.224254548549652,1.0783931016921997,0.5576923076923077,0.8269230769230769,0.5714285714285714,0.8571428571428571,0.0004
832,1.074454128742218,1.138779878616333,0.5769230769230769,0.8269230769230769,0.5,0.8571428571428571,0.0004
833,1.1779214143753052,1.6624772548675537,0.5576923076923077,0.8269230769230769,0.35714285714285715,0.8571428571428571,0.0004
834,1.147345244884491,1.0419408082962036,0.5576923076923077,0.8269230769230769,0.6428571428571429,0.8571428571428571,0.0004
835,0.9986422061920166,1.380110502243042,0.6730769230769231,0.8269230769230769,0.5,0.8571428571428571,0.0004
836,1.1428602933883667,1.2886285781860352,0.5769230769230769,0.8269230769230769,0.5,0.8571428571428571,0.0004
837,1.1154839396476746,1.4276916980743408,0.5961538461538461,0.8269230769230769,0.42857142857142855,0.8571428571428571,0.0004
838,1.091003656387329,1.350712537765503,0.5961538461538461,0.8269230769230769,0.6428571428571429,0.8571428571428571,0.0004
839,1.261887401342392,1.2509820461273193,0.6346153846153846,0.8269230769230769,0.5714285714285714,0.8571428571428571,0.0004
840,1.14463472366333,1.1965612173080444,0.5961538461538461,0.8269230769230769,0.5714285714285714,0.8571428571428571,0.0004
841,1.1526859998703003,1.3538637161254883,0.5769230769230769,0.8269230769230769,0.6428571428571429,0.8571428571428571,0.0004
842,1.223792552947998,1.0526998043060303,0.5576923076923077,0.8269230769230769,0.7142857142857143,0.8571428571428571,0.0004
843,1.21028071641922,1.4389008283615112,0.5769230769230769,0.8269230769230769,0.5714285714285714,0.8571428571428571,0.0004
844,1.2177154421806335,1.2699227333068848,0.6153846153846154,0.8269230769230769,0.6428571428571429,0.8571428571428571,0.0004
845,1.111182153224945,0.8746659755706787,0.6153846153846154,0.8269230769230769,0.8571428571428571,0.8571428571428571,0.0004
846,1.192241609096527,0.910010576248169,0.5961538461538461,0.8269230769230769,0.7142857142857143,0.8571428571428571,0.0004
847,1.063737541437149,1.0973963737487793,0.6153846153846154,0.8269230769230769,0.7142857142857143,0.8571428571428571,0.0004
848,1.2086346745491028,0.8015462160110474,0.6153846153846154,0.8269230769230769,0.8571428571428571,0.8571428571428571,0.0004
849,1.1272943615913391,1.0047428607940674,0.5576923076923077,0.8269230769230769,0.7142857142857143,0.8571428571428571,0.0004
850,1.09476900100708,1.0805028676986694,0.5576923076923077,0.8269230769230769,0.6428571428571429,0.8571428571428571,0.0004
851,1.1105270981788635,1.252368450164795,0.6153846153846154,0.8269230769230769,0.6428571428571429,0.8571428571428571,0.0004
852,1.0877327919006348,1.3023133277893066,0.5384615384615384,0.8269230769230769,0.7142857142857143,0.8571428571428571,0.0004
853,1.263214886188507,1.2587088346481323,0.5769230769230769,0.8269230769230769,0.6428571428571429,0.8571428571428571,0.0004
854,1.3068817853927612,1.4212037324905396,0.5384615384615384,0.8269230769230769,0.5714285714285714,0.8571428571428571,0.0004
855,1.0818122327327728,1.1250001192092896,0.6346153846153846,0.8269230769230769,0.7142857142857143,0.8571428571428571,0.0004
856,1.159749150276184,1.0362272262573242,0.5769230769230769,0.8269230769230769,0.7857142857142857,0.8571428571428571,0.0004
857,1.0570902228355408,1.1807433366775513,0.6923076923076923,0.8269230769230769,0.6428571428571429,0.8571428571428571,0.0004
858,1.0967841744422913,1.467278003692627,0.5961538461538461,0.8269230769230769,0.7142857142857143,0.8571428571428571,0.0004
859,1.1668840050697327,1.1477059125900269,0.5961538461538461,0.8269230769230769,0.7142857142857143,0.8571428571428571,0.0004
860,1.1908512711524963,1.7298136949539185,0.6346153846153846,0.8269230769230769,0.5714285714285714,0.8571428571428571,0.0004
861,1.04388427734375,1.7562668323516846,0.5961538461538461,0.8269230769230769,0.5,0.8571428571428571,0.0004
862,1.1275343894958496,1.3622788190841675,0.5769230769230769,0.8269230769230769,0.7857142857142857,0.8571428571428571,0.0004
863,1.4079160690307617,1.0228973627090454,0.5576923076923077,0.8269230769230769,0.7142857142857143,0.8571428571428571,0.0004
864,1.1686968803405762,1.0356003046035767,0.5961538461538461,0.8269230769230769,0.7142857142857143,0.8571428571428571,0.0004
865,1.0911861062049866,0.8317136764526367,0.6538461538461539,0.8269230769230769,0.7857142857142857,0.8571428571428571,0.0004
866,1.2400619983673096,1.6048047542572021,0.5769230769230769,0.8269230769230769,0.5714285714285714,0.8571428571428571,0.0004
867,1.1621224284172058,1.0475728511810303,0.5961538461538461,0.8269230769230769,0.7857142857142857,0.8571428571428571,0.0004
868,0.9296591579914093,0.9719801545143127,0.7115384615384616,0.8269230769230769,0.6428571428571429,0.8571428571428571,0.0004
869,1.1554496884346008,1.5704329013824463,0.6730769230769231,0.8269230769230769,0.35714285714285715,0.8571428571428571,0.0004
870,1.1254401803016663,1.2220569849014282,0.6923076923076923,0.8269230769230769,0.5714285714285714,0.8571428571428571,0.0004
871,1.262833833694458,1.0564991235733032,0.6346153846153846,0.8269230769230769,0.7142857142857143,0.8571428571428571,0.0004
872,1.3019245266914368,1.9017280340194702,0.4230769230769231,0.8269230769230769,0.2857142857142857,0.8571428571428571,0.0004
873,1.0977752804756165,1.3636974096298218,0.6730769230769231,0.8269230769230769,0.5714285714285714,0.8571428571428571,0.0004
874,1.1383098363876343,1.320585012435913,0.5769230769230769,0.8269230769230769,0.5714285714285714,0.8571428571428571,0.0004
875,1.1617043018341064,1.5295602083206177,0.6153846153846154,0.8269230769230769,0.5714285714285714,0.8571428571428571,0.0004
876,1.0194039940834045,1.1445232629776,0.6538461538461539,0.8269230769230769,0.7142857142857143,0.8571428571428571,0.0004
877,1.040895164012909,1.9699418544769287,0.6153846153846154,0.8269230769230769,0.42857142857142855,0.8571428571428571,0.0004
878,1.207748830318451,1.1289575099945068,0.5,0.8269230769230769,0.7142857142857143,0.8571428571428571,0.0004
879,1.3015501499176025,0.7983459234237671,0.5192307692307693,0.8269230769230769,0.8571428571428571,0.8571428571428571,0.0004
880,1.142713487148285,0.9404358863830566,0.6153846153846154,0.8269230769230769,0.7857142857142857,0.8571428571428571,0.0004
881,1.217393934726715,0.7987659573554993,0.5576923076923077,0.8269230769230769,0.8571428571428571,0.8571428571428571,0.0004
882,1.3264288306236267,1.0071232318878174,0.5961538461538461,0.8269230769230769,0.7857142857142857,0.8571428571428571,0.0004
883,1.3790947794914246,0.9614776372909546,0.5384615384615384,0.8269230769230769,0.7857142857142857,0.8571428571428571,0.0004
884,1.2677887678146362,1.609633445739746,0.5384615384615384,0.8269230769230769,0.5,0.8571428571428571,0.0004
885,1.0672624707221985,1.1251367330551147,0.6538461538461539,0.8269230769230769,0.7142857142857143,0.8571428571428571,0.0004
886,1.4329625964164734,1.0192456245422363,0.5576923076923077,0.8269230769230769,0.7142857142857143,0.8571428571428571,0.0004
887,1.0010310411453247,0.8617850542068481,0.6730769230769231,0.8269230769230769,0.7857142857142857,0.8571428571428571,0.0004
888,1.1227508783340454,1.0138218402862549,0.5576923076923077,0.8269230769230769,0.7142857142857143,0.8571428571428571,0.0004
889,1.2714964747428894,1.0646127462387085,0.5576923076923077,0.8269230769230769,0.7857142857142857,0.8571428571428571,0.0004
890,1.2558026313781738,1.4055864810943604,0.6153846153846154,0.8269230769230769,0.7142857142857143,0.8571428571428571,0.0004
891,1.4198362231254578,1.3193769454956055,0.5192307692307693,0.8269230769230769,0.6428571428571429,0.8571428571428571,0.0004
892,1.1773942708969116,1.380648136138916,0.5769230769230769,0.8269230769230769,0.6428571428571429,0.8571428571428571,0.0004
893,1.3531054258346558,0.971678614616394,0.5,0.8269230769230769,0.7857142857142857,0.8571428571428571,0.0004
894,1.0393681526184082,1.5268378257751465,0.6153846153846154,0.8269230769230769,0.5,0.8571428571428571,0.0004
895,1.2561134696006775,1.4954755306243896,0.5769230769230769,0.8269230769230769,0.6428571428571429,0.8571428571428571,0.0004
896,1.2201047539710999,1.5463171005249023,0.5192307692307693,0.8269230769230769,0.42857142857142855,0.8571428571428571,0.0004
897,1.295091152191162,1.3399442434310913,0.5384615384615384,0.8269230769230769,0.6428571428571429,0.8571428571428571,0.0004
898,1.269950807094574,1.3635632991790771,0.5961538461538461,0.8269230769230769,0.6428571428571429,0.8571428571428571,0.0004
899,1.1923568844795227,1.3068760633468628,0.5961538461538461,0.8269230769230769,0.7142857142857143,0.8571428571428571,0.0004
900,1.4041725993156433,1.1239148378372192,0.5576923076923077,0.8269230769230769,0.7857142857142857,0.8571428571428571,0.0004
901,1.3307360410690308,1.5215260982513428,0.5576923076923077,0.8269230769230769,0.5714285714285714,0.8571428571428571,0.0004
902,1.2400743961334229,1.3309262990951538,0.6346153846153846,0.8269230769230769,0.5714285714285714,0.8571428571428571,0.0004
903,1.2784462571144104,1.5512279272079468,0.5961538461538461,0.8269230769230769,0.5,0.8571428571428571,0.0004
904,1.21134352684021,1.067094087600708,0.5769230769230769,0.8269230769230769,0.7142857142857143,0.8571428571428571,0.0004
905,1.3252185583114624,0.9586817026138306,0.5192307692307693,0.8269230769230769,0.7857142857142857,0.8571428571428571,0.0004
906,1.2215183973312378,1.545062780380249,0.6153846153846154,0.8269230769230769,0.5,0.8571428571428571,0.0004
907,1.2334327697753906,1.1166751384735107,0.5961538461538461,0.8269230769230769,0.6428571428571429,0.8571428571428571,0.0004
908,1.1698347330093384,1.3641903400421143,0.5961538461538461,0.8269230769230769,0.6428571428571429,0.8571428571428571,0.0004
909,1.2922430038452148,1.0071899890899658,0.5384615384615384,0.8269230769230769,0.7142857142857143,0.8571428571428571,0.0004
910,1.1613059043884277,1.1669423580169678,0.5576923076923077,0.8269230769230769,0.6428571428571429,0.8571428571428571,0.0004
911,1.1852786540985107,1.189192771911621,0.5961538461538461,0.8269230769230769,0.6428571428571429,0.8571428571428571,0.0004
912,1.041801929473877,1.4518922567367554,0.7115384615384616,0.8269230769230769,0.6428571428571429,0.8571428571428571,0.0004
913,1.1894490718841553,1.122485876083374,0.5961538461538461,0.8269230769230769,0.7142857142857143,0.8571428571428571,0.0004
914,1.2355421781539917,1.2876842021942139,0.5384615384615384,0.8269230769230769,0.6428571428571429,0.8571428571428571,0.0004
915,1.395549237728119,1.1833072900772095,0.5192307692307693,0.8269230769230769,0.7142857142857143,0.8571428571428571,0.0004
916,1.2083399891853333,1.2454909086227417,0.5961538461538461,0.8269230769230769,0.5714285714285714,0.8571428571428571,0.0004
917,1.0736417174339294,0.9445697665214539,0.6153846153846154,0.8269230769230769,0.7857142857142857,0.8571428571428571,0.0004
918,1.1160890460014343,1.4273731708526611,0.6346153846153846,0.8269230769230769,0.6428571428571429,0.8571428571428571,0.0004
919,1.0565890073776245,1.5045785903930664,0.6730769230769231,0.8269230769230769,0.5714285714285714,0.8571428571428571,0.0004
920,1.2921403050422668,1.0521348714828491,0.5384615384615384,0.8269230769230769,0.7142857142857143,0.8571428571428571,0.0004
921,1.2776547074317932,2.0475518703460693,0.5769230769230769,0.8269230769230769,0.35714285714285715,0.8571428571428571,0.0004
922,1.1099547147750854,0.9143832921981812,0.6153846153846154,0.8269230769230769,0.7857142857142857,0.8571428571428571,0.0004
923,1.2997924089431763,1.1170023679733276,0.5192307692307693,0.8269230769230769,0.7857142857142857,0.8571428571428571,0.0004
924,1.3582577109336853,0.9449728727340698,0.5384615384615384,0.8269230769230769,0.7857142857142857,0.8571428571428571,0.0004
925,1.2989397048950195,1.131460189819336,0.5384615384615384,0.8269230769230769,0.6428571428571429,0.8571428571428571,0.0004
926,1.1899732947349548,0.9856787919998169,0.5384615384615384,0.8269230769230769,0.7142857142857143,0.8571428571428571,0.0004
927,1.2008644938468933,1.1090749502182007,0.6153846153846154,0.8269230769230769,0.6428571428571429,0.8571428571428571,0.0004
928,1.1047524809837341,0.891564667224884,0.5769230769230769,0.8269230769230769,0.6428571428571429,0.8571428571428571,0.0004
929,1.1078056693077087,1.2927933931350708,0.6346153846153846,0.8269230769230769,0.5,0.8571428571428571,0.0004
930,1.2392040491104126,1.7086846828460693,0.5576923076923077,0.8269230769230769,0.35714285714285715,0.8571428571428571,0.0004
931,1.1362747550010681,0.9602322578430176,0.5576923076923077,0.8269230769230769,0.7142857142857143,0.8571428571428571,0.0004
932,1.2846277952194214,1.112977385520935,0.5192307692307693,0.8269230769230769,0.42857142857142855,0.8571428571428571,0.0004
933,1.1539368629455566,1.1795380115509033,0.6346153846153846,0.8269230769230769,0.35714285714285715,0.8571428571428571,0.0004
934,1.1525506377220154,1.0530983209609985,0.5,0.8269230769230769,0.5714285714285714,0.8571428571428571,0.0004
935,1.2142839431762695,1.6006824970245361,0.6153846153846154,0.8269230769230769,0.42857142857142855,0.8571428571428571,0.0004
936,1.2229380011558533,1.1726154088974,0.5,0.8269230769230769,0.6428571428571429,0.8571428571428571,0.0004
937,1.111201822757721,1.182386040687561,0.5576923076923077,0.8269230769230769,0.6428571428571429,0.8571428571428571,0.0004
938,1.0391562581062317,0.9561871290206909,0.6346153846153846,0.8269230769230769,0.7142857142857143,0.8571428571428571,0.0004
939,1.2767668962478638,1.3011257648468018,0.5961538461538461,0.8269230769230769,0.5,0.8571428571428571,0.0004
940,1.1583344340324402,1.205548644065857,0.5961538461538461,0.8269230769230769,0.6428571428571429,0.8571428571428571,0.0004
941,1.1126257181167603,1.1803884506225586,0.5961538461538461,0.8269230769230769,0.5714285714285714,0.8571428571428571,0.0004
942,1.1302312016487122,0.8455266952514648,0.5961538461538461,0.8269230769230769,0.8571428571428571,0.8571428571428571,0.0004
943,1.1391727328300476,1.0021307468414307,0.5961538461538461,0.8269230769230769,0.7857142857142857,0.8571428571428571,0.0004
944,1.0838667154312134,1.3645377159118652,0.5961538461538461,0.8269230769230769,0.5714285714285714,0.8571428571428571,0.0004
945,1.0061796307563782,0.8410601615905762,0.6538461538461539,0.8269230769230769,0.7857142857142857,0.8571428571428571,0.0004
946,1.0488295555114746,0.8551369309425354,0.6346153846153846,0.8269230769230769,0.8571428571428571,0.8571428571428571,0.0004
947,1.1852681636810303,1.0912750959396362,0.5769230769230769,0.8269230769230769,0.5714285714285714,0.8571428571428571,0.0004
948,1.0777514576911926,1.0345594882965088,0.6346153846153846,0.8269230769230769,0.7142857142857143,0.8571428571428571,0.0004
949,1.1948657035827637,1.1735906600952148,0.5192307692307693,0.8269230769230769,0.7857142857142857,0.8571428571428571,0.0004
950,1.151514708995819,1.1333882808685303,0.5769230769230769,0.8269230769230769,0.6428571428571429,0.8571428571428571,0.0004
951,1.2054724097251892,1.2141815423965454,0.5769230769230769,0.8269230769230769,0.7142857142857143,0.8571428571428571,0.0004
952,1.1962553262710571,1.137878179550171,0.5384615384615384,0.8269230769230769,0.7142857142857143,0.8571428571428571,0.0004
953,1.1333054900169373,1.3882336616516113,0.5769230769230769,0.8269230769230769,0.6428571428571429,0.8571428571428571,0.0004
954,1.1372005343437195,0.9529482126235962,0.5769230769230769,0.8269230769230769,0.7142857142857143,0.8571428571428571,0.0004
955,1.151536226272583,1.228232979774475,0.6153846153846154,0.8269230769230769,0.5714285714285714,0.8571428571428571,0.0004
956,1.0761789083480835,0.9454123377799988,0.6538461538461539,0.8269230769230769,0.8571428571428571,0.8571428571428571,0.0004
957,1.070462167263031,0.9389611482620239,0.6730769230769231,0.8269230769230769,0.7857142857142857,0.8571428571428571,0.0004
958,1.1320711970329285,1.3000538349151611,0.6346153846153846,0.8269230769230769,0.6428571428571429,0.8571428571428571,0.0004
959,1.1625781059265137,1.2935404777526855,0.5576923076923077,0.8269230769230769,0.6428571428571429,0.8571428571428571,0.0004
960,1.1494920253753662,1.7598903179168701,0.5961538461538461,0.8269230769230769,0.42857142857142855,0.8571428571428571,0.0004
961,1.1654708087444305,0.8820372819900513,0.5961538461538461,0.8269230769230769,0.7857142857142857,0.8571428571428571,0.0004
962,1.0336849391460419,1.0968883037567139,0.6346153846153846,0.8269230769230769,0.7142857142857143,0.8571428571428571,0.0004
963,1.1031036078929901,1.0313247442245483,0.5961538461538461,0.8269230769230769,0.7857142857142857,0.8571428571428571,0.0004
964,1.033991277217865,1.845581293106079,0.6538461538461539,0.8269230769230769,0.35714285714285715,0.8571428571428571,0.0004
965,1.2796745896339417,1.6411116123199463,0.5384615384615384,0.8269230769230769,0.5714285714285714,0.8571428571428571,0.0004
966,1.265947937965393,1.3754901885986328,0.5576923076923077,0.8269230769230769,0.7857142857142857,0.8571428571428571,0.0004
967,1.0465024411678314,1.2150778770446777,0.6730769230769231,0.8269230769230769,0.7142857142857143,0.8571428571428571,0.0004
968,1.167885184288025,1.3748242855072021,0.5576923076923077,0.8269230769230769,0.7142857142857143,0.8571428571428571,0.0004
969,1.1778257489204407,1.5908268690109253,0.5769230769230769,0.8269230769230769,0.5,0.8571428571428571,0.0004
970,1.280023217201233,1.4971835613250732,0.5576923076923077,0.8269230769230769,0.5,0.8571428571428571,0.0004
971,1.3593424558639526,1.5662620067596436,0.4807692307692308,0.8269230769230769,0.5,0.8571428571428571,0.0004
972,1.1104902625083923,1.1100000143051147,0.6346153846153846,0.8269230769230769,0.7142857142857143,0.8571428571428571,0.0004
973,1.136333167552948,1.1327769756317139,0.6346153846153846,0.8269230769230769,0.7857142857142857,0.8571428571428571,0.0004
974,1.2146304249763489,1.097602128982544,0.6153846153846154,0.8269230769230769,0.7857142857142857,0.8571428571428571,0.0004
975,1.044639229774475,1.1250909566879272,0.5961538461538461,0.8269230769230769,0.5714285714285714,0.8571428571428571,0.0004
976,0.9312461912631989,1.4062812328338623,0.6153846153846154,0.8269230769230769,0.5714285714285714,0.8571428571428571,0.0004
977,1.3010549545288086,1.09434974193573,0.5576923076923077,0.8269230769230769,0.7142857142857143,0.8571428571428571,0.0004
978,1.1968530416488647,1.3015879392623901,0.5192307692307693,0.8269230769230769,0.6428571428571429,0.8571428571428571,0.0004
979,1.2143518328666687,0.9318820238113403,0.5961538461538461,0.8269230769230769,0.9285714285714286,0.8571428571428571,0.0004
980,1.1030794978141785,1.1177704334259033,0.5576923076923077,0.8269230769230769,0.7142857142857143,0.8571428571428571,0.0004
981,1.2214000225067139,1.8224048614501953,0.5,0.8269230769230769,0.2857142857142857,0.8571428571428571,0.0004
