epoch,train_loss,val_loss,train_acc_action,train_acc_status,val_acc_action,val_acc_status,learning_rate
1,1.7704342007637024,1.7537074089050293,0.3076923076923077,0.8269230769230769,0.42857142857142855,0.8571428571428571,0.0004
2,1.7608948349952698,1.7459831237792969,0.3076923076923077,0.8269230769230769,0.42857142857142855,0.8571428571428571,0.0004
3,1.7525160312652588,1.7389445304870605,0.3076923076923077,0.8269230769230769,0.42857142857142855,0.8571428571428571,0.0004
4,1.7422044277191162,1.7313086986541748,0.3076923076923077,0.8269230769230769,0.42857142857142855,0.8571428571428571,0.0004
5,1.741990089416504,1.7233076095581055,0.3076923076923077,0.8269230769230769,0.42857142857142855,0.8571428571428571,0.0004
6,1.7336845397949219,1.7130253314971924,0.3076923076923077,0.8269230769230769,0.42857142857142855,0.8571428571428571,0.0004
7,1.7156288027763367,1.6978685855865479,0.3076923076923077,0.8269230769230769,0.21428571428571427,0.8571428571428571,0.0004
8,1.7102017402648926,1.6748900413513184,0.36538461538461536,0.8269230769230769,0.21428571428571427,0.8571428571428571,0.0004
9,1.6743886470794678,1.6381926536560059,0.36538461538461536,0.8269230769230769,0.21428571428571427,0.8571428571428571,0.0004
10,1.634219765663147,1.5918720960617065,0.36538461538461536,0.8269230769230769,0.21428571428571427,0.8571428571428571,0.0004
11,1.5759259462356567,1.5719971656799316,0.36538461538461536,0.8269230769230769,0.21428571428571427,0.8571428571428571,0.0004
12,1.5610610842704773,1.5725146532058716,0.36538461538461536,0.8269230769230769,0.21428571428571427,0.8571428571428571,0.0004
13,1.5676336884498596,1.5664796829223633,0.36538461538461536,0.8269230769230769,0.21428571428571427,0.8571428571428571,0.0004
14,1.583496630191803,1.5524365901947021,0.36538461538461536,0.8269230769230769,0.21428571428571427,0.8571428571428571,0.0004
15,1.522957444190979,1.536914587020874,0.36538461538461536,0.8269230769230769,0.21428571428571427,0.8571428571428571,0.0004
16,1.5569111704826355,1.5247999429702759,0.36538461538461536,0.8269230769230769,0.21428571428571427,0.8571428571428571,0.0004
17,1.53950834274292,1.5177013874053955,0.36538461538461536,0.8269230769230769,0.21428571428571427,0.8571428571428571,0.0004
18,1.5744341611862183,1.5133882761001587,0.36538461538461536,0.8269230769230769,0.21428571428571427,0.8571428571428571,0.0004
19,1.522719919681549,1.5111708641052246,0.36538461538461536,0.8269230769230769,0.21428571428571427,0.8571428571428571,0.0004
20,1.5863168239593506,1.5118920803070068,0.36538461538461536,0.8269230769230769,0.21428571428571427,0.8571428571428571,0.0004
21,1.5684202909469604,1.5137455463409424,0.36538461538461536,0.8269230769230769,0.21428571428571427,0.8571428571428571,0.0004
22,1.5516979694366455,1.5173238515853882,0.36538461538461536,0.8269230769230769,0.21428571428571427,0.8571428571428571,0.0004
23,1.5853471755981445,1.5221123695373535,0.36538461538461536,0.8269230769230769,0.21428571428571427,0.8571428571428571,0.0004
24,1.5636308193206787,1.5246944427490234,0.36538461538461536,0.8269230769230769,0.21428571428571427,0.8571428571428571,0.0004
25,1.5657349228858948,1.5287094116210938,0.36538461538461536,0.8269230769230769,0.21428571428571427,0.8571428571428571,0.0004
26,1.5548820495605469,1.5326080322265625,0.36538461538461536,0.8269230769230769,0.21428571428571427,0.8571428571428571,0.0004
27,1.5779753923416138,1.5350421667099,0.36538461538461536,0.8269230769230769,0.21428571428571427,0.8571428571428571,0.0004
28,1.5655004978179932,1.5375285148620605,0.36538461538461536,0.8269230769230769,0.21428571428571427,0.8571428571428571,0.0004
29,1.5960162281990051,1.539868950843811,0.36538461538461536,0.8269230769230769,0.21428571428571427,0.8571428571428571,0.0004
30,1.5656567215919495,1.5411953926086426,0.36538461538461536,0.8269230769230769,0.21428571428571427,0.8571428571428571,0.0004
31,1.5697516202926636,1.5423110723495483,0.36538461538461536,0.8269230769230769,0.21428571428571427,0.8571428571428571,0.0004
32,1.577390432357788,1.5420949459075928,0.36538461538461536,0.8269230769230769,0.21428571428571427,0.8571428571428571,0.0004
33,1.5438458919525146,1.542402744293213,0.36538461538461536,0.8269230769230769,0.21428571428571427,0.8571428571428571,0.0004
34,1.5382419228553772,1.5413882732391357,0.36538461538461536,0.8269230769230769,0.21428571428571427,0.8571428571428571,0.0004
35,1.5385030508041382,1.5404253005981445,0.36538461538461536,0.8269230769230769,0.21428571428571427,0.8571428571428571,0.0004
36,1.5639027953147888,1.5394229888916016,0.36538461538461536,0.8269230769230769,0.21428571428571427,0.8571428571428571,0.0004
37,1.565313994884491,1.5387669801712036,0.36538461538461536,0.8269230769230769,0.21428571428571427,0.8571428571428571,0.0004
38,1.5500441193580627,1.5380951166152954,0.36538461538461536,0.8269230769230769,0.21428571428571427,0.8571428571428571,0.0004
39,1.5491543412208557,1.5375561714172363,0.36538461538461536,0.8269230769230769,0.21428571428571427,0.8571428571428571,0.0004
40,1.5486901998519897,1.5375218391418457,0.36538461538461536,0.8269230769230769,0.21428571428571427,0.8571428571428571,0.0004
41,1.5529230237007141,1.5376217365264893,0.36538461538461536,0.8269230769230769,0.21428571428571427,0.8571428571428571,0.0004
42,1.5177703499794006,1.536848545074463,0.36538461538461536,0.8269230769230769,0.21428571428571427,0.8571428571428571,0.0004
43,1.5322166085243225,1.5364006757736206,0.36538461538461536,0.8269230769230769,0.21428571428571427,0.8571428571428571,0.0004
44,1.5666136741638184,1.5365159511566162,0.36538461538461536,0.8269230769230769,0.21428571428571427,0.8571428571428571,0.0004
45,1.5393044352531433,1.5362935066223145,0.36538461538461536,0.8269230769230769,0.21428571428571427,0.8571428571428571,0.0004
46,1.5669896006584167,1.5349127054214478,0.36538461538461536,0.8269230769230769,0.21428571428571427,0.8571428571428571,0.0004
47,1.534014105796814,1.5330480337142944,0.36538461538461536,0.8269230769230769,0.21428571428571427,0.8571428571428571,0.0004
48,1.585232675075531,1.531762957572937,0.36538461538461536,0.8269230769230769,0.21428571428571427,0.8571428571428571,0.0004
49,1.5551568269729614,1.5301766395568848,0.36538461538461536,0.8269230769230769,0.21428571428571427,0.8571428571428571,0.0004
50,1.5707969665527344,1.528370976448059,0.36538461538461536,0.8269230769230769,0.21428571428571427,0.8571428571428571,0.0004
51,1.6000882387161255,1.5262192487716675,0.36538461538461536,0.8269230769230769,0.21428571428571427,0.8571428571428571,0.0004
52,1.5177016854286194,1.524874210357666,0.36538461538461536,0.8269230769230769,0.21428571428571427,0.8571428571428571,0.0004
53,1.5665611624717712,1.5245933532714844,0.36538461538461536,0.8269230769230769,0.21428571428571427,0.8571428571428571,0.0004
54,1.5189862847328186,1.5242726802825928,0.36538461538461536,0.8269230769230769,0.21428571428571427,0.8571428571428571,0.0004
55,1.5331218838691711,1.5244953632354736,0.36538461538461536,0.8269230769230769,0.21428571428571427,0.8571428571428571,0.0004
56,1.5665155053138733,1.5261034965515137,0.36538461538461536,0.8269230769230769,0.21428571428571427,0.8571428571428571,0.0004
57,1.5202987790107727,1.5274877548217773,0.36538461538461536,0.8269230769230769,0.21428571428571427,0.8571428571428571,0.0004
58,1.5708515644073486,1.5291484594345093,0.36538461538461536,0.8269230769230769,0.21428571428571427,0.8571428571428571,0.0004
59,1.5510926246643066,1.5294520854949951,0.36538461538461536,0.8269230769230769,0.21428571428571427,0.8571428571428571,0.0004
60,1.5643189549446106,1.5295659303665161,0.36538461538461536,0.8269230769230769,0.21428571428571427,0.8571428571428571,0.0004
61,1.5682779550552368,1.530411720275879,0.36538461538461536,0.8269230769230769,0.21428571428571427,0.8571428571428571,0.0004
62,1.5776454210281372,1.5305001735687256,0.36538461538461536,0.8269230769230769,0.21428571428571427,0.8571428571428571,0.0004
63,1.612587571144104,1.531293511390686,0.36538461538461536,0.8269230769230769,0.21428571428571427,0.8571428571428571,0.0004
64,1.5369852185249329,1.5316333770751953,0.36538461538461536,0.8269230769230769,0.21428571428571427,0.8571428571428571,0.0004
65,1.5313730239868164,1.5314271450042725,0.36538461538461536,0.8269230769230769,0.21428571428571427,0.8571428571428571,0.0004
66,1.5489707589149475,1.5325199365615845,0.36538461538461536,0.8269230769230769,0.21428571428571427,0.8571428571428571,0.0004
67,1.582512378692627,1.534003734588623,0.36538461538461536,0.8269230769230769,0.21428571428571427,0.8571428571428571,0.0004
68,1.5351582765579224,1.5345593690872192,0.36538461538461536,0.8269230769230769,0.21428571428571427,0.8571428571428571,0.0004
69,1.520445704460144,1.5352206230163574,0.36538461538461536,0.8269230769230769,0.21428571428571427,0.8571428571428571,0.0004
70,1.554814636707306,1.5363636016845703,0.36538461538461536,0.8269230769230769,0.21428571428571427,0.8571428571428571,0.0004
71,1.5648701190948486,1.536421537399292,0.36538461538461536,0.8269230769230769,0.21428571428571427,0.8571428571428571,0.0004
72,1.5686012506484985,1.5365524291992188,0.36538461538461536,0.8269230769230769,0.21428571428571427,0.8571428571428571,0.0004
73,1.5496087074279785,1.5359331369400024,0.36538461538461536,0.8269230769230769,0.21428571428571427,0.8571428571428571,0.0004
74,1.5090461373329163,1.5355925559997559,0.36538461538461536,0.8269230769230769,0.21428571428571427,0.8571428571428571,0.0004
75,1.5624926090240479,1.5344315767288208,0.36538461538461536,0.8269230769230769,0.21428571428571427,0.8571428571428571,0.0004
76,1.5855864882469177,1.5344774723052979,0.36538461538461536,0.8269230769230769,0.21428571428571427,0.8571428571428571,0.0004
77,1.5481353998184204,1.53377366065979,0.36538461538461536,0.8269230769230769,0.21428571428571427,0.8571428571428571,0.0004
78,1.55402010679245,1.533858299255371,0.36538461538461536,0.8269230769230769,0.21428571428571427,0.8571428571428571,0.0004
79,1.5661330819129944,1.5331135988235474,0.36538461538461536,0.8269230769230769,0.21428571428571427,0.8571428571428571,0.0004
80,1.5661290287971497,1.532541275024414,0.36538461538461536,0.8269230769230769,0.21428571428571427,0.8571428571428571,0.0004
81,1.5643795728683472,1.532051682472229,0.36538461538461536,0.8269230769230769,0.21428571428571427,0.8571428571428571,0.0004
82,1.552586317062378,1.5317413806915283,0.36538461538461536,0.8269230769230769,0.21428571428571427,0.8571428571428571,0.0004
83,1.5656442046165466,1.5313109159469604,0.36538461538461536,0.8269230769230769,0.21428571428571427,0.8571428571428571,0.0004
84,1.581997036933899,1.5308680534362793,0.36538461538461536,0.8269230769230769,0.21428571428571427,0.8571428571428571,0.0004
85,1.5495145320892334,1.530147671699524,0.36538461538461536,0.8269230769230769,0.21428571428571427,0.8571428571428571,0.0004
86,1.5376365780830383,1.529895305633545,0.36538461538461536,0.8269230769230769,0.21428571428571427,0.8571428571428571,0.0004
87,1.5650778412818909,1.5290216207504272,0.36538461538461536,0.8269230769230769,0.21428571428571427,0.8571428571428571,0.0004
88,1.5225889682769775,1.5285077095031738,0.36538461538461536,0.8269230769230769,0.21428571428571427,0.8571428571428571,0.0004
89,1.5495980381965637,1.5276262760162354,0.36538461538461536,0.8269230769230769,0.21428571428571427,0.8571428571428571,0.0004
90,1.5633946657180786,1.5270473957061768,0.36538461538461536,0.8269230769230769,0.21428571428571427,0.8571428571428571,0.0004
91,1.5496378540992737,1.5274884700775146,0.36538461538461536,0.8269230769230769,0.21428571428571427,0.8571428571428571,0.0004
92,1.562853217124939,1.5281134843826294,0.36538461538461536,0.8269230769230769,0.21428571428571427,0.8571428571428571,0.0004
93,1.5805596709251404,1.529565691947937,0.36538461538461536,0.8269230769230769,0.21428571428571427,0.8571428571428571,0.0004
94,1.5641633868217468,1.530888319015503,0.36538461538461536,0.8269230769230769,0.21428571428571427,0.8571428571428571,0.0004
95,1.579189658164978,1.5322937965393066,0.36538461538461536,0.8269230769230769,0.21428571428571427,0.8571428571428571,0.0004
96,1.5338748097419739,1.5337220430374146,0.36538461538461536,0.8269230769230769,0.21428571428571427,0.8571428571428571,0.0004
97,1.5169801712036133,1.5351051092147827,0.36538461538461536,0.8269230769230769,0.21428571428571427,0.8571428571428571,0.0004
98,1.5522894263267517,1.537196159362793,0.36538461538461536,0.8269230769230769,0.21428571428571427,0.8571428571428571,0.0004
99,1.5969289541244507,1.5386343002319336,0.36538461538461536,0.8269230769230769,0.21428571428571427,0.8571428571428571,0.0004
100,1.5317262411117554,1.5392042398452759,0.36538461538461536,0.8269230769230769,0.21428571428571427,0.8571428571428571,0.0004
101,1.579889714717865,1.5402147769927979,0.36538461538461536,0.8269230769230769,0.21428571428571427,0.8571428571428571,0.0004
102,1.5650624632835388,1.5408096313476562,0.36538461538461536,0.8269230769230769,0.21428571428571427,0.8571428571428571,0.0004
103,1.5664585828781128,1.5412087440490723,0.36538461538461536,0.8269230769230769,0.21428571428571427,0.8571428571428571,0.0004
104,1.601147174835205,1.5411937236785889,0.36538461538461536,0.8269230769230769,0.21428571428571427,0.8571428571428571,0.0004
105,1.5498459339141846,1.5402144193649292,0.36538461538461536,0.8269230769230769,0.21428571428571427,0.8571428571428571,0.0004
106,1.5458338856697083,1.5390286445617676,0.36538461538461536,0.8269230769230769,0.21428571428571427,0.8571428571428571,0.0004
107,1.5803706049919128,1.5386420488357544,0.36538461538461536,0.8269230769230769,0.21428571428571427,0.8571428571428571,0.0004
108,1.5380582809448242,1.538172960281372,0.36538461538461536,0.8269230769230769,0.21428571428571427,0.8571428571428571,0.0004
109,1.5820202231407166,1.5372343063354492,0.36538461538461536,0.8269230769230769,0.21428571428571427,0.8571428571428571,0.0004
110,1.5464057922363281,1.5356743335723877,0.36538461538461536,0.8269230769230769,0.21428571428571427,0.8571428571428571,0.0004
111,1.5520946979522705,1.5351171493530273,0.36538461538461536,0.8269230769230769,0.21428571428571427,0.8571428571428571,0.0004
112,1.5511694550514221,1.5342254638671875,0.36538461538461536,0.8269230769230769,0.21428571428571427,0.8571428571428571,0.0004
113,1.581712782382965,1.5333197116851807,0.36538461538461536,0.8269230769230769,0.21428571428571427,0.8571428571428571,0.0004
114,1.5332571268081665,1.5320415496826172,0.36538461538461536,0.8269230769230769,0.21428571428571427,0.8571428571428571,0.0004
115,1.5634888410568237,1.5313674211502075,0.36538461538461536,0.8269230769230769,0.21428571428571427,0.8571428571428571,0.0004
116,1.5207311511039734,1.5311832427978516,0.36538461538461536,0.8269230769230769,0.21428571428571427,0.8571428571428571,0.0004
117,1.532624363899231,1.5310131311416626,0.36538461538461536,0.8269230769230769,0.21428571428571427,0.8571428571428571,0.0004
118,1.5635798573493958,1.5316557884216309,0.36538461538461536,0.8269230769230769,0.21428571428571427,0.8571428571428571,0.0004
119,1.55288964509964,1.5328402519226074,0.36538461538461536,0.8269230769230769,0.21428571428571427,0.8571428571428571,0.0004
120,1.5506739020347595,1.5333232879638672,0.36538461538461536,0.8269230769230769,0.21428571428571427,0.8571428571428571,0.0004
121,1.5686439275741577,1.5337162017822266,0.36538461538461536,0.8269230769230769,0.21428571428571427,0.8571428571428571,0.0004
122,1.5373132824897766,1.533536434173584,0.36538461538461536,0.8269230769230769,0.21428571428571427,0.8571428571428571,0.0004
123,1.5329822897911072,1.5328433513641357,0.36538461538461536,0.8269230769230769,0.21428571428571427,0.8571428571428571,0.0004
124,1.5463046431541443,1.5322222709655762,0.36538461538461536,0.8269230769230769,0.21428571428571427,0.8571428571428571,0.0004
125,1.5505961179733276,1.5324116945266724,0.36538461538461536,0.8269230769230769,0.21428571428571427,0.8571428571428571,0.0004
126,1.518265426158905,1.5324666500091553,0.36538461538461536,0.8269230769230769,0.21428571428571427,0.8571428571428571,0.0004
127,1.5676771998405457,1.5324853658676147,0.36538461538461536,0.8269230769230769,0.21428571428571427,0.8571428571428571,0.0004
128,1.5870649218559265,1.5323694944381714,0.36538461538461536,0.8269230769230769,0.21428571428571427,0.8571428571428571,0.0004
129,1.569310486316681,1.5319652557373047,0.36538461538461536,0.8269230769230769,0.21428571428571427,0.8571428571428571,0.0004
130,1.5677149295806885,1.53123939037323,0.36538461538461536,0.8269230769230769,0.21428571428571427,0.8571428571428571,0.0004
131,1.5813133120536804,1.5301079750061035,0.36538461538461536,0.8269230769230769,0.21428571428571427,0.8571428571428571,0.0004
132,1.5334539413452148,1.5292950868606567,0.36538461538461536,0.8269230769230769,0.21428571428571427,0.8571428571428571,0.0004
133,1.5805675983428955,1.5288035869598389,0.36538461538461536,0.8269230769230769,0.21428571428571427,0.8571428571428571,0.0004
134,1.5501952767372131,1.5289380550384521,0.36538461538461536,0.8269230769230769,0.21428571428571427,0.8571428571428571,0.0004
135,1.565948486328125,1.529174566268921,0.36538461538461536,0.8269230769230769,0.21428571428571427,0.8571428571428571,0.0004
136,1.5360268950462341,1.5294958353042603,0.36538461538461536,0.8269230769230769,0.21428571428571427,0.8571428571428571,0.0004
137,1.5782420635223389,1.5295500755310059,0.36538461538461536,0.8269230769230769,0.21428571428571427,0.8571428571428571,0.0004
138,1.5364122986793518,1.530308485031128,0.36538461538461536,0.8269230769230769,0.21428571428571427,0.8571428571428571,0.0004
139,1.5476778149604797,1.530657172203064,0.36538461538461536,0.8269230769230769,0.21428571428571427,0.8571428571428571,0.0004
140,1.5372263193130493,1.5316882133483887,0.36538461538461536,0.8269230769230769,0.21428571428571427,0.8571428571428571,0.0004
141,1.5328888893127441,1.532289743423462,0.36538461538461536,0.8269230769230769,0.21428571428571427,0.8571428571428571,0.0004
142,1.533981740474701,1.5333539247512817,0.36538461538461536,0.8269230769230769,0.21428571428571427,0.8571428571428571,0.0004
143,1.5796411037445068,1.5346513986587524,0.36538461538461536,0.8269230769230769,0.21428571428571427,0.8571428571428571,0.0004
144,1.5483326315879822,1.5357534885406494,0.36538461538461536,0.8269230769230769,0.21428571428571427,0.8571428571428571,0.0004
145,1.6090620756149292,1.536899209022522,0.36538461538461536,0.8269230769230769,0.21428571428571427,0.8571428571428571,0.0004
146,1.5755200386047363,1.538006067276001,0.36538461538461536,0.8269230769230769,0.21428571428571427,0.8571428571428571,0.0004
147,1.5538705587387085,1.539371371269226,0.36538461538461536,0.8269230769230769,0.21428571428571427,0.8571428571428571,0.0004
148,1.5788077116012573,1.5398468971252441,0.36538461538461536,0.8269230769230769,0.21428571428571427,0.8571428571428571,0.0004
149,1.5685253143310547,1.5402623414993286,0.36538461538461536,0.8269230769230769,0.21428571428571427,0.8571428571428571,0.0004
150,1.5637388825416565,1.5398914813995361,0.36538461538461536,0.8269230769230769,0.21428571428571427,0.8571428571428571,0.0004
151,1.5813259482383728,1.5395063161849976,0.36538461538461536,0.8269230769230769,0.21428571428571427,0.8571428571428571,0.0004
152,1.5841610431671143,1.5390372276306152,0.36538461538461536,0.8269230769230769,0.21428571428571427,0.8571428571428571,0.0004
153,1.5799482464790344,1.5375001430511475,0.36538461538461536,0.8269230769230769,0.21428571428571427,0.8571428571428571,0.0004
154,1.5498478412628174,1.5358777046203613,0.36538461538461536,0.8269230769230769,0.21428571428571427,0.8571428571428571,0.0004
155,1.5597129464149475,1.5343900918960571,0.36538461538461536,0.8269230769230769,0.21428571428571427,0.8571428571428571,0.0004
156,1.5632935762405396,1.5338554382324219,0.36538461538461536,0.8269230769230769,0.21428571428571427,0.8571428571428571,0.0004
157,1.5465854406356812,1.5338445901870728,0.36538461538461536,0.8269230769230769,0.21428571428571427,0.8571428571428571,0.0004
158,1.5647374391555786,1.5345062017440796,0.36538461538461536,0.8269230769230769,0.21428571428571427,0.8571428571428571,0.0004
159,1.5499089360237122,1.5351245403289795,0.36538461538461536,0.8269230769230769,0.21428571428571427,0.8571428571428571,0.0004
160,1.567085325717926,1.5360946655273438,0.36538461538461536,0.8269230769230769,0.21428571428571427,0.8571428571428571,0.0004
161,1.5506343245506287,1.5361640453338623,0.36538461538461536,0.8269230769230769,0.21428571428571427,0.8571428571428571,0.0004
162,1.5632003545761108,1.536414384841919,0.36538461538461536,0.8269230769230769,0.21428571428571427,0.8571428571428571,0.0004
163,1.5510090589523315,1.5366036891937256,0.36538461538461536,0.8269230769230769,0.21428571428571427,0.8571428571428571,0.0004
164,1.548226237297058,1.5366530418395996,0.36538461538461536,0.8269230769230769,0.21428571428571427,0.8571428571428571,0.0004
165,1.550121784210205,1.5370659828186035,0.36538461538461536,0.8269230769230769,0.21428571428571427,0.8571428571428571,0.0004
166,1.5691692233085632,1.5372202396392822,0.36538461538461536,0.8269230769230769,0.21428571428571427,0.8571428571428571,0.0004
167,1.5462375283241272,1.536802053451538,0.36538461538461536,0.8269230769230769,0.21428571428571427,0.8571428571428571,0.0004
168,1.5465341806411743,1.536500096321106,0.36538461538461536,0.8269230769230769,0.21428571428571427,0.8571428571428571,0.0004
169,1.565932273864746,1.5371817350387573,0.36538461538461536,0.8269230769230769,0.21428571428571427,0.8571428571428571,0.0004
170,1.5805432200431824,1.5369267463684082,0.36538461538461536,0.8269230769230769,0.21428571428571427,0.8571428571428571,0.0004
171,1.5688801407814026,1.5367774963378906,0.36538461538461536,0.8269230769230769,0.21428571428571427,0.8571428571428571,0.0004
172,1.5485923886299133,1.535935640335083,0.36538461538461536,0.8269230769230769,0.21428571428571427,0.8571428571428571,0.0004
173,1.5452163219451904,1.5350390672683716,0.36538461538461536,0.8269230769230769,0.21428571428571427,0.8571428571428571,0.0004
174,1.549802005290985,1.5346521139144897,0.36538461538461536,0.8269230769230769,0.21428571428571427,0.8571428571428571,0.0004
175,1.5225977897644043,1.5347161293029785,0.36538461538461536,0.8269230769230769,0.21428571428571427,0.8571428571428571,0.0004
176,1.5368783473968506,1.5341987609863281,0.36538461538461536,0.8269230769230769,0.21428571428571427,0.8571428571428571,0.0004
177,1.58216392993927,1.533288598060608,0.36538461538461536,0.8269230769230769,0.21428571428571427,0.8571428571428571,0.0004
178,1.5691627860069275,1.5324122905731201,0.36538461538461536,0.8269230769230769,0.21428571428571427,0.8571428571428571,0.0004
179,1.5514762997627258,1.5303521156311035,0.36538461538461536,0.8269230769230769,0.21428571428571427,0.8571428571428571,0.0004
180,1.5326388478279114,1.5281667709350586,0.36538461538461536,0.8269230769230769,0.21428571428571427,0.8571428571428571,0.0004
181,1.5459486246109009,1.5271815061569214,0.36538461538461536,0.8269230769230769,0.21428571428571427,0.8571428571428571,0.0004
182,1.564431369304657,1.5261255502700806,0.36538461538461536,0.8269230769230769,0.21428571428571427,0.8571428571428571,0.0004
183,1.5795308351516724,1.5261752605438232,0.36538461538461536,0.8269230769230769,0.21428571428571427,0.8571428571428571,0.0004
184,1.5497159957885742,1.5260744094848633,0.36538461538461536,0.8269230769230769,0.21428571428571427,0.8571428571428571,0.0004
185,1.56552255153656,1.5259478092193604,0.36538461538461536,0.8269230769230769,0.21428571428571427,0.8571428571428571,0.0004
186,1.576385498046875,1.5267826318740845,0.36538461538461536,0.8269230769230769,0.21428571428571427,0.8571428571428571,0.0004
187,1.5948255062103271,1.5275177955627441,0.36538461538461536,0.8269230769230769,0.21428571428571427,0.8571428571428571,0.0004
188,1.5336113572120667,1.5285431146621704,0.36538461538461536,0.8269230769230769,0.21428571428571427,0.8571428571428571,0.0004
189,1.5330556631088257,1.528199315071106,0.36538461538461536,0.8269230769230769,0.21428571428571427,0.8571428571428571,0.0004
190,1.5672841668128967,1.5305440425872803,0.36538461538461536,0.8269230769230769,0.21428571428571427,0.8571428571428571,0.0004
191,1.5976925492286682,1.5319433212280273,0.36538461538461536,0.8269230769230769,0.21428571428571427,0.8571428571428571,0.0004
192,1.5386162400245667,1.531982660293579,0.36538461538461536,0.8269230769230769,0.21428571428571427,0.8571428571428571,0.0004
193,1.5467252135276794,1.5316283702850342,0.36538461538461536,0.8269230769230769,0.21428571428571427,0.8571428571428571,0.0004
194,1.5783214569091797,1.5306392908096313,0.36538461538461536,0.8269230769230769,0.21428571428571427,0.8571428571428571,0.0004
195,1.5341854691505432,1.5292367935180664,0.36538461538461536,0.8269230769230769,0.21428571428571427,0.8571428571428571,0.0004
196,1.5582331418991089,1.5307114124298096,0.36538461538461536,0.8269230769230769,0.21428571428571427,0.8571428571428571,0.0004
197,1.516301155090332,1.5288119316101074,0.36538461538461536,0.8269230769230769,0.21428571428571427,0.8571428571428571,0.0004
198,1.5462042093276978,1.530691385269165,0.36538461538461536,0.8269230769230769,0.21428571428571427,0.8571428571428571,0.0004
199,1.5160099267959595,1.5315542221069336,0.36538461538461536,0.8269230769230769,0.21428571428571427,0.8571428571428571,0.0004
200,1.543509602546692,1.5422016382217407,0.36538461538461536,0.8269230769230769,0.21428571428571427,0.8571428571428571,0.0004
201,1.5406231880187988,1.5276882648468018,0.36538461538461536,0.8269230769230769,0.21428571428571427,0.8571428571428571,0.0004
202,1.5322911143302917,1.5375057458877563,0.36538461538461536,0.8269230769230769,0.21428571428571427,0.8571428571428571,0.0004
203,1.534565031528473,1.534152865409851,0.36538461538461536,0.8269230769230769,0.21428571428571427,0.8571428571428571,0.0004
204,1.5462178587913513,1.549676537513733,0.36538461538461536,0.8269230769230769,0.21428571428571427,0.8571428571428571,0.0004
205,1.5638790726661682,1.5306777954101562,0.36538461538461536,0.8269230769230769,0.21428571428571427,0.8571428571428571,0.0004
206,1.5436956286430359,1.5409340858459473,0.36538461538461536,0.8269230769230769,0.21428571428571427,0.8571428571428571,0.0004
207,1.5163676738739014,1.5438376665115356,0.36538461538461536,0.8269230769230769,0.21428571428571427,0.8571428571428571,0.0004
208,1.5432468056678772,1.5474495887756348,0.36538461538461536,0.8269230769230769,0.21428571428571427,0.8571428571428571,0.0004
209,1.540596604347229,1.5445160865783691,0.36538461538461536,0.8269230769230769,0.21428571428571427,0.8571428571428571,0.0004
210,1.5560041666030884,1.541355013847351,0.36538461538461536,0.8269230769230769,0.21428571428571427,0.8571428571428571,0.0004
211,1.5497522354125977,1.508467435836792,0.36538461538461536,0.8269230769230769,0.21428571428571427,0.8571428571428571,0.0004
212,1.5429013967514038,1.5963149070739746,0.36538461538461536,0.8269230769230769,0.21428571428571427,0.8571428571428571,0.0004
213,1.5473793148994446,1.5716071128845215,0.36538461538461536,0.8269230769230769,0.21428571428571427,0.8571428571428571,0.0004
214,1.5085616707801819,1.5866471529006958,0.36538461538461536,0.8269230769230769,0.21428571428571427,0.8571428571428571,0.0004
215,1.496454119682312,1.6000607013702393,0.36538461538461536,0.8269230769230769,0.21428571428571427,0.8571428571428571,0.0004
216,1.5437621474266052,1.5861105918884277,0.36538461538461536,0.8269230769230769,0.21428571428571427,0.8571428571428571,0.0004
217,1.5106415152549744,1.4825454950332642,0.3076923076923077,0.8269230769230769,0.42857142857142855,0.8571428571428571,0.0004
218,1.5374495387077332,1.5115845203399658,0.40384615384615385,0.8269230769230769,0.35714285714285715,0.8571428571428571,0.0004
219,1.4845039248466492,1.4982495307922363,0.4423076923076923,0.8269230769230769,0.35714285714285715,0.8571428571428571,0.0004
220,1.5369470119476318,1.5554534196853638,0.36538461538461536,0.8269230769230769,0.21428571428571427,0.8571428571428571,0.0004
221,1.4583288431167603,1.524646520614624,0.40384615384615385,0.8269230769230769,0.2857142857142857,0.8571428571428571,0.0004
222,1.4667459726333618,1.5758390426635742,0.5,0.8269230769230769,0.35714285714285715,0.8571428571428571,0.0004
223,1.4914142489433289,1.531836748123169,0.4230769230769231,0.8269230769230769,0.2857142857142857,0.8571428571428571,0.0004
224,1.4818522334098816,1.512535810470581,0.40384615384615385,0.8269230769230769,0.35714285714285715,0.8571428571428571,0.0004
225,1.4324029684066772,1.4437416791915894,0.46153846153846156,0.8269230769230769,0.42857142857142855,0.8571428571428571,0.0004
226,1.4829663634300232,1.5119258165359497,0.38461538461538464,0.8269230769230769,0.35714285714285715,0.8571428571428571,0.0004
227,1.4727224707603455,1.4771702289581299,0.4423076923076923,0.8269230769230769,0.35714285714285715,0.8571428571428571,0.0004
228,1.5012916326522827,1.6237142086029053,0.28846153846153844,0.8269230769230769,0.14285714285714285,0.8571428571428571,0.0004
229,1.4918972849845886,1.5588958263397217,0.38461538461538464,0.8269230769230769,0.35714285714285715,0.8571428571428571,0.0004
230,1.4463062286376953,1.6853067874908447,0.4423076923076923,0.8269230769230769,0.14285714285714285,0.8571428571428571,0.0004
231,1.4803940057754517,1.555583119392395,0.4423076923076923,0.8269230769230769,0.21428571428571427,0.8571428571428571,0.0004
232,1.385522723197937,1.7663242816925049,0.46153846153846156,0.8269230769230769,0.21428571428571427,0.8571428571428571,0.0004
233,1.381762444972992,1.6716930866241455,0.4423076923076923,0.8269230769230769,0.21428571428571427,0.8571428571428571,0.0004
234,1.4101516008377075,1.7339922189712524,0.38461538461538464,0.8269230769230769,0.14285714285714285,0.8571428571428571,0.0004
235,1.4889665842056274,1.6076997518539429,0.38461538461538464,0.8269230769230769,0.21428571428571427,0.8571428571428571,0.0004
236,1.3826311230659485,1.5635895729064941,0.4230769230769231,0.8269230769230769,0.21428571428571427,0.8571428571428571,0.0004
237,1.46324223279953,1.4606338739395142,0.36538461538461536,0.8269230769230769,0.2857142857142857,0.8571428571428571,0.0004
238,1.4119937419891357,1.5585296154022217,0.4423076923076923,0.8269230769230769,0.21428571428571427,0.8571428571428571,0.0004
239,1.357750415802002,1.5504727363586426,0.40384615384615385,0.8269230769230769,0.21428571428571427,0.8571428571428571,0.0004
240,1.3730502724647522,1.5542426109313965,0.40384615384615385,0.8269230769230769,0.2857142857142857,0.8571428571428571,0.0004
241,1.3548485040664673,1.59517240524292,0.4807692307692308,0.8269230769230769,0.21428571428571427,0.8571428571428571,0.0004
242,1.5212087631225586,1.661949872970581,0.38461538461538464,0.8269230769230769,0.21428571428571427,0.8571428571428571,0.0004
243,1.5539810061454773,1.559348702430725,0.36538461538461536,0.8269230769230769,0.2857142857142857,0.8571428571428571,0.0004
244,1.3976198434829712,1.6107299327850342,0.4807692307692308,0.8653846153846154,0.21428571428571427,0.8571428571428571,0.0004
245,1.4805424213409424,1.5825484991073608,0.38461538461538464,0.8269230769230769,0.2857142857142857,0.8571428571428571,0.0004
246,1.3676361441612244,1.6344313621520996,0.46153846153846156,0.8653846153846154,0.42857142857142855,0.7142857142857143,0.0004
247,1.4629904627799988,1.5080015659332275,0.4423076923076923,0.8269230769230769,0.42857142857142855,0.8571428571428571,0.0004
248,1.3884767293930054,1.5243085622787476,0.38461538461538464,0.8653846153846154,0.5,0.7857142857142857,0.0004
249,1.3772895336151123,1.574805736541748,0.4423076923076923,0.8653846153846154,0.35714285714285715,0.7142857142857143,0.0004
250,1.5092193484306335,1.7931339740753174,0.40384615384615385,0.6538461538461539,0.2857142857142857,0.5,0.0004
251,1.4993880987167358,1.7241952419281006,0.40384615384615385,0.6923076923076923,0.2857142857142857,0.7142857142857143,0.0004
252,1.2696622610092163,1.8193044662475586,0.4423076923076923,0.8653846153846154,0.35714285714285715,0.7142857142857143,0.0004
253,1.281358003616333,1.6189022064208984,0.4423076923076923,0.8846153846153846,0.35714285714285715,0.7857142857142857,0.0004
254,1.4987499713897705,1.6642130613327026,0.40384615384615385,0.8269230769230769,0.21428571428571427,0.8571428571428571,0.0004
255,1.6399078965187073,1.7575817108154297,0.40384615384615385,0.8653846153846154,0.21428571428571427,0.7857142857142857,0.0004
256,1.766198992729187,1.6607542037963867,0.36538461538461536,0.8269230769230769,0.21428571428571427,0.8571428571428571,0.0004
257,1.6597732901573181,1.6456787586212158,0.36538461538461536,0.8269230769230769,0.21428571428571427,0.8571428571428571,0.0004
258,1.6120376586914062,1.6274341344833374,0.36538461538461536,0.8269230769230769,0.21428571428571427,0.8571428571428571,0.0004
259,1.6719313263893127,1.609104871749878,0.36538461538461536,0.8269230769230769,0.21428571428571427,0.8571428571428571,0.0004
260,1.6527912020683289,1.5904185771942139,0.36538461538461536,0.8269230769230769,0.21428571428571427,0.8571428571428571,0.0004
261,1.6058616638183594,1.577047348022461,0.36538461538461536,0.8269230769230769,0.21428571428571427,0.8571428571428571,0.0004
262,1.569094181060791,1.565111756324768,0.36538461538461536,0.8269230769230769,0.21428571428571427,0.8571428571428571,0.0004
263,1.5878626108169556,1.5546212196350098,0.36538461538461536,0.8269230769230769,0.21428571428571427,0.8571428571428571,0.0004
264,1.5181396007537842,1.5479819774627686,0.36538461538461536,0.8269230769230769,0.21428571428571427,0.8571428571428571,0.0004
265,1.5421671271324158,1.5521056652069092,0.36538461538461536,0.8269230769230769,0.21428571428571427,0.8571428571428571,0.0004
266,1.5357543230056763,1.5508031845092773,0.36538461538461536,0.8269230769230769,0.21428571428571427,0.8571428571428571,0.0004
267,1.5586920976638794,1.5529451370239258,0.4230769230769231,0.8269230769230769,0.35714285714285715,0.8571428571428571,0.0004
268,1.540615975856781,1.550856590270996,0.3269230769230769,0.8269230769230769,0.35714285714285715,0.8571428571428571,0.0004
269,1.5535715818405151,1.5525221824645996,0.3269230769230769,0.8269230769230769,0.35714285714285715,0.8571428571428571,0.0004
270,1.560804009437561,1.54998779296875,0.3269230769230769,0.8269230769230769,0.35714285714285715,0.8571428571428571,0.0004
271,1.5910768508911133,1.5515186786651611,0.3269230769230769,0.8269230769230769,0.35714285714285715,0.8571428571428571,0.0004
272,1.5638450384140015,1.5535374879837036,0.3269230769230769,0.8269230769230769,0.35714285714285715,0.8571428571428571,0.0004
273,1.580146610736847,1.5470490455627441,0.3269230769230769,0.8269230769230769,0.35714285714285715,0.8571428571428571,0.0004
274,1.5718039274215698,1.545735239982605,0.3269230769230769,0.8269230769230769,0.35714285714285715,0.8571428571428571,0.0004
275,1.5594848990440369,1.554241418838501,0.3269230769230769,0.8269230769230769,0.35714285714285715,0.8571428571428571,0.0004
276,1.52093106508255,1.5598970651626587,0.3269230769230769,0.8269230769230769,0.35714285714285715,0.8571428571428571,0.0004
277,1.5310322046279907,1.6222697496414185,0.3269230769230769,0.8269230769230769,0.35714285714285715,0.8571428571428571,0.0004
278,1.485731303691864,1.5661811828613281,0.3269230769230769,0.8269230769230769,0.35714285714285715,0.8571428571428571,0.0004
279,1.5627708435058594,1.5296838283538818,0.3269230769230769,0.8269230769230769,0.35714285714285715,0.8571428571428571,0.0004
280,1.5790011286735535,1.526867389678955,0.38461538461538464,0.8269230769230769,0.21428571428571427,0.8571428571428571,0.0004
281,1.5948739647865295,1.525248646736145,0.36538461538461536,0.8269230769230769,0.21428571428571427,0.8571428571428571,0.0004
282,1.565319299697876,1.5261101722717285,0.36538461538461536,0.8269230769230769,0.21428571428571427,0.8571428571428571,0.0004
283,1.5648202896118164,1.524953007698059,0.36538461538461536,0.8269230769230769,0.21428571428571427,0.8571428571428571,0.0004
284,1.550845205783844,1.5263478755950928,0.36538461538461536,0.8269230769230769,0.21428571428571427,0.8571428571428571,0.0004
285,1.5343002676963806,1.5264664888381958,0.36538461538461536,0.8269230769230769,0.21428571428571427,0.8571428571428571,0.0004
286,1.5492128729820251,1.5266362428665161,0.36538461538461536,0.8269230769230769,0.21428571428571427,0.8571428571428571,0.0004
287,1.5826988220214844,1.5264759063720703,0.36538461538461536,0.8269230769230769,0.21428571428571427,0.8571428571428571,0.0004
288,1.5655828714370728,1.526026964187622,0.36538461538461536,0.8269230769230769,0.21428571428571427,0.8571428571428571,0.0004
289,1.5655874609947205,1.5287662744522095,0.36538461538461536,0.8269230769230769,0.21428571428571427,0.8571428571428571,0.0004
290,1.5022040605545044,1.5302507877349854,0.36538461538461536,0.8269230769230769,0.21428571428571427,0.8571428571428571,0.0004
291,1.6074857115745544,1.529715895652771,0.36538461538461536,0.8269230769230769,0.21428571428571427,0.8571428571428571,0.0004
292,1.5677850246429443,1.5314195156097412,0.36538461538461536,0.8269230769230769,0.21428571428571427,0.8571428571428571,0.0004
293,1.5659205317497253,1.5304384231567383,0.36538461538461536,0.8269230769230769,0.21428571428571427,0.8571428571428571,0.0004
294,1.5831921100616455,1.5316323041915894,0.36538461538461536,0.8269230769230769,0.21428571428571427,0.8571428571428571,0.0004
295,1.528659701347351,1.5304406881332397,0.36538461538461536,0.8269230769230769,0.21428571428571427,0.8571428571428571,0.0004
296,1.518740177154541,1.5322215557098389,0.36538461538461536,0.8269230769230769,0.21428571428571427,0.8571428571428571,0.0004
297,1.549477458000183,1.5329797267913818,0.36538461538461536,0.8269230769230769,0.21428571428571427,0.8571428571428571,0.0004
298,1.550071895122528,1.534189224243164,0.36538461538461536,0.8269230769230769,0.21428571428571427,0.8571428571428571,0.0004
299,1.5178364515304565,1.5353314876556396,0.36538461538461536,0.8269230769230769,0.21428571428571427,0.8571428571428571,0.0004
300,1.567405641078949,1.5344128608703613,0.36538461538461536,0.8269230769230769,0.21428571428571427,0.8571428571428571,0.0004
301,1.534150779247284,1.5341639518737793,0.36538461538461536,0.8269230769230769,0.21428571428571427,0.8571428571428571,0.0004
302,1.5654104948043823,1.5341668128967285,0.36538461538461536,0.8269230769230769,0.21428571428571427,0.8571428571428571,0.0004
303,1.5704612731933594,1.5337517261505127,0.36538461538461536,0.8269230769230769,0.21428571428571427,0.8571428571428571,0.0004
304,1.5469823479652405,1.5321159362792969,0.36538461538461536,0.8269230769230769,0.21428571428571427,0.8571428571428571,0.0004
305,1.6070616245269775,1.5305449962615967,0.36538461538461536,0.8269230769230769,0.21428571428571427,0.8571428571428571,0.0004
306,1.576546549797058,1.5314371585845947,0.36538461538461536,0.8269230769230769,0.21428571428571427,0.8571428571428571,0.0004
307,1.5776169300079346,1.5286264419555664,0.36538461538461536,0.8269230769230769,0.21428571428571427,0.8571428571428571,0.0004
308,1.5484625101089478,1.5294740200042725,0.36538461538461536,0.8269230769230769,0.21428571428571427,0.8571428571428571,0.0004
309,1.560549020767212,1.5279831886291504,0.36538461538461536,0.8269230769230769,0.21428571428571427,0.8571428571428571,0.0004
310,1.5473871231079102,1.5291728973388672,0.36538461538461536,0.8269230769230769,0.21428571428571427,0.8571428571428571,0.0004
311,1.5636755228042603,1.5296663045883179,0.36538461538461536,0.8269230769230769,0.21428571428571427,0.8571428571428571,0.0004
312,1.5462617874145508,1.5306280851364136,0.36538461538461536,0.8269230769230769,0.21428571428571427,0.8571428571428571,0.0004
313,1.5783775448799133,1.5321447849273682,0.36538461538461536,0.8269230769230769,0.21428571428571427,0.8571428571428571,0.0004
314,1.5334733724594116,1.5309020280838013,0.36538461538461536,0.8269230769230769,0.21428571428571427,0.8571428571428571,0.0004
315,1.5616734623908997,1.5316126346588135,0.36538461538461536,0.8269230769230769,0.21428571428571427,0.8571428571428571,0.0004
316,1.5353094339370728,1.5325238704681396,0.36538461538461536,0.8269230769230769,0.21428571428571427,0.8571428571428571,0.0004
317,1.5614287853240967,1.5305469036102295,0.36538461538461536,0.8269230769230769,0.21428571428571427,0.8571428571428571,0.0004
318,1.5288842916488647,1.5315767526626587,0.36538461538461536,0.8269230769230769,0.21428571428571427,0.8571428571428571,0.0004
319,1.545807123184204,1.5338482856750488,0.36538461538461536,0.8269230769230769,0.21428571428571427,0.8571428571428571,0.0004
320,1.5282487869262695,1.5330922603607178,0.36538461538461536,0.8269230769230769,0.21428571428571427,0.8571428571428571,0.0004
321,1.5411251783370972,1.5337584018707275,0.36538461538461536,0.8269230769230769,0.21428571428571427,0.8571428571428571,0.0004
322,1.5213216543197632,1.5368123054504395,0.36538461538461536,0.8269230769230769,0.21428571428571427,0.8571428571428571,0.0004
323,1.5645859241485596,1.53779935836792,0.36538461538461536,0.8269230769230769,0.21428571428571427,0.8571428571428571,0.0004
324,1.5376074314117432,1.5372360944747925,0.36538461538461536,0.8269230769230769,0.21428571428571427,0.8571428571428571,0.0004
325,1.5754872560501099,1.5333596467971802,0.36538461538461536,0.8269230769230769,0.21428571428571427,0.8571428571428571,0.0004
326,1.5882635712623596,1.5387425422668457,0.36538461538461536,0.8269230769230769,0.21428571428571427,0.8571428571428571,0.0004
327,1.5273887515068054,1.5338332653045654,0.36538461538461536,0.8269230769230769,0.21428571428571427,0.8571428571428571,0.0004
328,1.5428759455680847,1.531919002532959,0.36538461538461536,0.8269230769230769,0.21428571428571427,0.8571428571428571,0.0004
329,1.5131410956382751,1.5417673587799072,0.36538461538461536,0.8269230769230769,0.21428571428571427,0.8571428571428571,0.0004
330,1.5514788031578064,1.5374168157577515,0.36538461538461536,0.8269230769230769,0.21428571428571427,0.8571428571428571,0.0004
331,1.5253762006759644,1.5328142642974854,0.36538461538461536,0.8269230769230769,0.21428571428571427,0.8571428571428571,0.0004
332,1.5505799055099487,1.5323874950408936,0.36538461538461536,0.8269230769230769,0.21428571428571427,0.8571428571428571,0.0004
333,1.5309155583381653,1.525870442390442,0.36538461538461536,0.8269230769230769,0.21428571428571427,0.8571428571428571,0.0004
334,1.5476056337356567,1.5325955152511597,0.36538461538461536,0.8269230769230769,0.21428571428571427,0.8571428571428571,0.0004
335,1.5443848371505737,1.5254054069519043,0.36538461538461536,0.8269230769230769,0.21428571428571427,0.8571428571428571,0.0004
336,1.542244791984558,1.526046872138977,0.36538461538461536,0.8269230769230769,0.21428571428571427,0.8571428571428571,0.0004
337,1.5377204418182373,1.5206531286239624,0.36538461538461536,0.8269230769230769,0.21428571428571427,0.8571428571428571,0.0004
338,1.549376904964447,1.5228732824325562,0.36538461538461536,0.8269230769230769,0.21428571428571427,0.8571428571428571,0.0004
339,1.5242438316345215,1.5250455141067505,0.36538461538461536,0.8269230769230769,0.21428571428571427,0.8571428571428571,0.0004
340,1.5378113389015198,1.5227787494659424,0.36538461538461536,0.8269230769230769,0.21428571428571427,0.8571428571428571,0.0004
341,1.5247955322265625,1.5236889123916626,0.36538461538461536,0.8269230769230769,0.21428571428571427,0.8571428571428571,0.0004
342,1.5276834964752197,1.5200212001800537,0.36538461538461536,0.8269230769230769,0.21428571428571427,0.8571428571428571,0.0004
343,1.5365214347839355,1.5319159030914307,0.36538461538461536,0.8269230769230769,0.21428571428571427,0.8571428571428571,0.0004
344,1.507985532283783,1.517625331878662,0.36538461538461536,0.8269230769230769,0.21428571428571427,0.8571428571428571,0.0004
345,1.5219244956970215,1.526100993156433,0.36538461538461536,0.8269230769230769,0.21428571428571427,0.8571428571428571,0.0004
346,1.5074896216392517,1.5134220123291016,0.36538461538461536,0.8269230769230769,0.21428571428571427,0.8571428571428571,0.0004
347,1.575747311115265,1.5401661396026611,0.36538461538461536,0.8269230769230769,0.21428571428571427,0.8571428571428571,0.0004
348,1.527937412261963,1.5211634635925293,0.36538461538461536,0.8269230769230769,0.21428571428571427,0.8571428571428571,0.0004
349,1.5481987595558167,1.5220736265182495,0.36538461538461536,0.8269230769230769,0.21428571428571427,0.8571428571428571,0.0004
350,1.5147700905799866,1.530836820602417,0.36538461538461536,0.8269230769230769,0.21428571428571427,0.8571428571428571,0.0004
351,1.5305107831954956,1.5343835353851318,0.36538461538461536,0.8269230769230769,0.21428571428571427,0.8571428571428571,0.0004
352,1.5527934432029724,1.5376092195510864,0.36538461538461536,0.8269230769230769,0.21428571428571427,0.8571428571428571,0.0004
353,1.512356162071228,1.5495045185089111,0.36538461538461536,0.8269230769230769,0.21428571428571427,0.8571428571428571,0.0004
354,1.534347414970398,1.557904839515686,0.36538461538461536,0.8269230769230769,0.21428571428571427,0.8571428571428571,0.0004
355,1.5319376587867737,1.5368647575378418,0.36538461538461536,0.8269230769230769,0.21428571428571427,0.8571428571428571,0.0004
356,1.4972625970840454,1.5584293603897095,0.36538461538461536,0.8269230769230769,0.21428571428571427,0.8571428571428571,0.0004
357,1.5476666688919067,1.5371527671813965,0.36538461538461536,0.8269230769230769,0.21428571428571427,0.8571428571428571,0.0004
358,1.521323025226593,1.5293552875518799,0.36538461538461536,0.8269230769230769,0.21428571428571427,0.8571428571428571,0.0004
359,1.511661946773529,1.5668344497680664,0.36538461538461536,0.8269230769230769,0.21428571428571427,0.8571428571428571,0.0004
360,1.4992144107818604,1.506482481956482,0.36538461538461536,0.8269230769230769,0.21428571428571427,0.8571428571428571,0.0004
361,1.495736539363861,1.5245521068572998,0.46153846153846156,0.8269230769230769,0.21428571428571427,0.8571428571428571,0.0004
362,1.4720105528831482,1.5229547023773193,0.38461538461538464,0.8269230769230769,0.21428571428571427,0.8571428571428571,0.0004
363,1.5458109974861145,1.5078883171081543,0.40384615384615385,0.8269230769230769,0.2857142857142857,0.8571428571428571,0.0004
364,1.4805769324302673,1.5625090599060059,0.46153846153846156,0.8269230769230769,0.35714285714285715,0.8571428571428571,0.0004
365,1.5568990111351013,1.5719636678695679,0.40384615384615385,0.8269230769230769,0.2857142857142857,0.8571428571428571,0.0004
366,1.5637861490249634,1.5735485553741455,0.3269230769230769,0.8269230769230769,0.2857142857142857,0.8571428571428571,0.0004
367,1.5467135906219482,1.5663341283798218,0.3269230769230769,0.8269230769230769,0.35714285714285715,0.8571428571428571,0.0004
368,1.5390344858169556,1.5266659259796143,0.36538461538461536,0.8269230769230769,0.42857142857142855,0.8571428571428571,0.0004
369,1.5198737978935242,1.516595482826233,0.40384615384615385,0.8269230769230769,0.5,0.8571428571428571,0.0004
370,1.48353111743927,1.510263204574585,0.4807692307692308,0.8269230769230769,0.2857142857142857,0.8571428571428571,0.0004
371,1.5247337222099304,1.5419917106628418,0.4230769230769231,0.8269230769230769,0.21428571428571427,0.8571428571428571,0.0004
372,1.4763535857200623,1.4933998584747314,0.4230769230769231,0.8269230769230769,0.2857142857142857,0.8571428571428571,0.0004
373,1.44517982006073,1.5181324481964111,0.5192307692307693,0.8269230769230769,0.21428571428571427,0.8571428571428571,0.0004
374,1.4740451574325562,1.5282082557678223,0.46153846153846156,0.8269230769230769,0.21428571428571427,0.8571428571428571,0.0004
375,1.4929259419441223,1.5415326356887817,0.40384615384615385,0.8269230769230769,0.2857142857142857,0.8571428571428571,0.0004
376,1.4829206466674805,1.5001006126403809,0.46153846153846156,0.8269230769230769,0.2857142857142857,0.8571428571428571,0.0004
377,1.418859839439392,1.555896520614624,0.38461538461538464,0.8269230769230769,0.14285714285714285,0.8571428571428571,0.0004
378,1.4182301759719849,1.4706244468688965,0.4423076923076923,0.8269230769230769,0.2857142857142857,0.8571428571428571,0.0004
379,1.3862661719322205,1.58070969581604,0.40384615384615385,0.8269230769230769,0.21428571428571427,0.8571428571428571,0.0004
380,1.4036521315574646,1.611636996269226,0.40384615384615385,0.8269230769230769,0.21428571428571427,0.8571428571428571,0.0004
381,1.3969602584838867,1.5386366844177246,0.38461538461538464,0.8269230769230769,0.21428571428571427,0.8571428571428571,0.0004
382,1.549472153186798,1.548150897026062,0.40384615384615385,0.8269230769230769,0.21428571428571427,0.8571428571428571,0.0004
383,1.5519119501113892,1.525733470916748,0.36538461538461536,0.8269230769230769,0.21428571428571427,0.8571428571428571,0.0004
384,1.4896052479743958,1.5618382692337036,0.36538461538461536,0.8269230769230769,0.21428571428571427,0.8571428571428571,0.0004
385,1.463566780090332,1.5549043416976929,0.4230769230769231,0.8269230769230769,0.2857142857142857,0.8571428571428571,0.0004
386,1.441347599029541,1.6401770114898682,0.4423076923076923,0.8269230769230769,0.2857142857142857,0.8571428571428571,0.0004
387,1.3957717418670654,1.575654149055481,0.5,0.8269230769230769,0.21428571428571427,0.8571428571428571,0.0004
388,1.383825659751892,1.5447407960891724,0.4230769230769231,0.8269230769230769,0.21428571428571427,0.8571428571428571,0.0004
389,1.4549229145050049,1.6782283782958984,0.36538461538461536,0.8269230769230769,0.14285714285714285,0.8571428571428571,0.0004
390,1.3344285488128662,1.5369212627410889,0.46153846153846156,0.8269230769230769,0.21428571428571427,0.8571428571428571,0.0004
391,1.5936844944953918,1.549643635749817,0.36538461538461536,0.8269230769230769,0.21428571428571427,0.8571428571428571,0.0004
392,1.572299301624298,1.538661241531372,0.36538461538461536,0.8269230769230769,0.21428571428571427,0.8571428571428571,0.0004
393,1.5257979035377502,1.517924189567566,0.38461538461538464,0.8269230769230769,0.21428571428571427,0.8571428571428571,0.0004
394,1.485034167766571,1.5200574398040771,0.4807692307692308,0.8269230769230769,0.2857142857142857,0.8571428571428571,0.0004
395,1.4670236706733704,1.5568913221359253,0.40384615384615385,0.8269230769230769,0.35714285714285715,0.8571428571428571,0.0004
396,1.5095415115356445,1.6360288858413696,0.36538461538461536,0.8076923076923077,0.35714285714285715,0.8571428571428571,0.0004
397,1.5169349908828735,1.5344445705413818,0.36538461538461536,0.8076923076923077,0.35714285714285715,0.8571428571428571,0.0004
398,1.380973219871521,1.581457257270813,0.4423076923076923,0.8653846153846154,0.21428571428571427,0.8571428571428571,0.0004
399,1.445131778717041,1.4456560611724854,0.40384615384615385,0.8076923076923077,0.2857142857142857,0.8571428571428571,0.0004
400,1.356772780418396,1.61722993850708,0.4423076923076923,0.8461538461538461,0.21428571428571427,0.7857142857142857,0.0004
401,1.3892094492912292,1.6149883270263672,0.4423076923076923,0.8653846153846154,0.2857142857142857,0.8571428571428571,0.0004
402,1.323651909828186,1.5435675382614136,0.4423076923076923,0.9038461538461539,0.21428571428571427,0.8571428571428571,0.0004
403,1.3888819813728333,1.6525793075561523,0.40384615384615385,0.9230769230769231,0.21428571428571427,0.8571428571428571,0.0004
404,1.3874183297157288,1.61073899269104,0.4423076923076923,0.8461538461538461,0.21428571428571427,0.8571428571428571,0.0004
405,1.5562196969985962,1.53324294090271,0.38461538461538464,0.8269230769230769,0.2857142857142857,0.8571428571428571,0.0004
406,1.4445599913597107,1.6681807041168213,0.38461538461538464,0.8269230769230769,0.2857142857142857,0.7142857142857143,0.0004
407,1.3571869134902954,1.4588427543640137,0.4423076923076923,0.8653846153846154,0.2857142857142857,0.7857142857142857,0.0004
408,1.3254073858261108,1.9033942222595215,0.46153846153846156,0.8653846153846154,0.14285714285714285,0.7857142857142857,0.0004
409,1.326774775981903,1.7325853109359741,0.4423076923076923,0.8846153846153846,0.21428571428571427,0.7857142857142857,0.0004
410,1.3806051015853882,1.576204776763916,0.4807692307692308,0.8269230769230769,0.2857142857142857,0.8571428571428571,0.0004
411,1.372537910938263,1.7217216491699219,0.46153846153846156,0.8269230769230769,0.21428571428571427,0.8571428571428571,0.0004
412,1.3711234331130981,1.5902479887008667,0.4230769230769231,0.8653846153846154,0.2857142857142857,0.9285714285714286,0.0004
413,1.2719284296035767,1.5392237901687622,0.4807692307692308,0.8653846153846154,0.21428571428571427,0.9285714285714286,0.0004
414,1.466015875339508,1.6914230585098267,0.4230769230769231,0.8461538461538461,0.21428571428571427,0.7857142857142857,0.0004
415,1.3773550987243652,1.8168725967407227,0.4230769230769231,0.8076923076923077,0.14285714285714285,0.8571428571428571,0.0004
416,1.3744884133338928,1.63600492477417,0.40384615384615385,0.8076923076923077,0.2857142857142857,0.7857142857142857,0.0004
417,1.288868486881256,1.602663278579712,0.46153846153846156,0.8653846153846154,0.2857142857142857,0.7857142857142857,0.0004
418,1.3453867435455322,2.163498640060425,0.40384615384615385,0.8461538461538461,0.21428571428571427,0.5714285714285714,0.0004
419,1.4233143329620361,1.6087069511413574,0.40384615384615385,0.8076923076923077,0.2857142857142857,0.7857142857142857,0.0004
420,1.3111619353294373,1.8254801034927368,0.4423076923076923,0.8846153846153846,0.14285714285714285,0.7857142857142857,0.0004
421,1.4132513403892517,1.88490891456604,0.36538461538461536,0.7884615384615384,0.14285714285714285,0.6428571428571429,0.0004
422,1.29652738571167,1.8467493057250977,0.4423076923076923,0.8846153846153846,0.14285714285714285,0.8571428571428571,0.0004
423,1.3013563752174377,1.39201021194458,0.4807692307692308,0.8269230769230769,0.2857142857142857,0.9285714285714286,0.0004
424,1.2260759472846985,1.6620699167251587,0.4807692307692308,0.8846153846153846,0.21428571428571427,0.7857142857142857,0.0004
425,1.2667506337165833,1.7086846828460693,0.4230769230769231,0.8846153846153846,0.21428571428571427,0.7142857142857143,0.0004
426,1.328363060951233,1.4991447925567627,0.40384615384615385,0.9038461538461539,0.21428571428571427,0.8571428571428571,0.0004
427,1.277129352092743,1.7925163507461548,0.4230769230769231,0.8461538461538461,0.21428571428571427,0.7857142857142857,0.0004
428,1.5722371935844421,1.5076804161071777,0.36538461538461536,0.8076923076923077,0.2857142857142857,0.8571428571428571,0.0004
429,1.2486828565597534,1.79506254196167,0.4423076923076923,0.9423076923076923,0.14285714285714285,0.7142857142857143,0.0004
430,1.4874789714813232,1.587517261505127,0.40384615384615385,0.8076923076923077,0.21428571428571427,0.7857142857142857,0.0004
431,1.3606332540512085,1.91398024559021,0.4423076923076923,0.8846153846153846,0.14285714285714285,0.6428571428571429,0.0004
432,1.4323885440826416,1.868160605430603,0.38461538461538464,0.8076923076923077,0.2857142857142857,0.5714285714285714,0.0004
433,1.4788686037063599,1.6105828285217285,0.38461538461538464,0.8461538461538461,0.2857142857142857,0.8571428571428571,0.0004
434,1.4327393770217896,1.5962843894958496,0.38461538461538464,0.8653846153846154,0.2857142857142857,0.8571428571428571,0.0004
435,1.373293697834015,1.4728782176971436,0.4230769230769231,0.8269230769230769,0.2857142857142857,0.8571428571428571,0.0004
436,1.345238208770752,1.5707957744598389,0.40384615384615385,0.8269230769230769,0.21428571428571427,0.8571428571428571,0.0004
437,1.3681582808494568,1.6558582782745361,0.4230769230769231,0.8269230769230769,0.21428571428571427,0.8571428571428571,0.0004
438,1.38495934009552,1.5610216856002808,0.4230769230769231,0.8269230769230769,0.21428571428571427,0.8571428571428571,0.0004
439,1.3916776180267334,1.6956877708435059,0.36538461538461536,0.8269230769230769,0.21428571428571427,0.8571428571428571,0.0004
440,1.4145545363426208,1.5455149412155151,0.38461538461538464,0.8269230769230769,0.21428571428571427,0.8571428571428571,0.0004
441,1.3669205904006958,1.6122605800628662,0.38461538461538464,0.8269230769230769,0.14285714285714285,0.8571428571428571,0.0004
442,1.4058854579925537,1.6465274095535278,0.38461538461538464,0.8269230769230769,0.21428571428571427,0.8571428571428571,0.0004
443,1.4817034602165222,1.754596471786499,0.38461538461538464,0.8269230769230769,0.2857142857142857,0.8571428571428571,0.0004
444,1.3350123167037964,1.8111644983291626,0.4423076923076923,0.8269230769230769,0.21428571428571427,0.8571428571428571,0.0004
445,1.3339637517929077,1.5536744594573975,0.40384615384615385,0.8269230769230769,0.21428571428571427,0.8571428571428571,0.0004
446,1.309209406375885,1.6792957782745361,0.4423076923076923,0.8269230769230769,0.21428571428571427,0.8571428571428571,0.0004
447,1.4010783433914185,1.639528751373291,0.46153846153846156,0.8269230769230769,0.21428571428571427,0.8571428571428571,0.0004
448,1.392123818397522,1.5776087045669556,0.40384615384615385,0.8461538461538461,0.2857142857142857,0.8571428571428571,0.0004
449,1.2996856570243835,1.8374520540237427,0.4230769230769231,0.8461538461538461,0.21428571428571427,0.8571428571428571,0.0004
450,1.2813903093338013,1.4824479818344116,0.46153846153846156,0.8461538461538461,0.2857142857142857,0.8571428571428571,0.0004
451,1.3254486918449402,1.6111326217651367,0.4423076923076923,0.8461538461538461,0.2857142857142857,0.8571428571428571,0.0004
452,1.400545358657837,1.5453144311904907,0.4423076923076923,0.8461538461538461,0.2857142857142857,0.7857142857142857,0.0004
453,1.3525585532188416,1.5379438400268555,0.46153846153846156,0.9038461538461539,0.2857142857142857,0.8571428571428571,0.0004
454,1.3243212699890137,1.5586504936218262,0.46153846153846156,0.8461538461538461,0.2857142857142857,0.8571428571428571,0.0004
455,1.2134034633636475,1.7054855823516846,0.4807692307692308,0.9423076923076923,0.21428571428571427,0.8571428571428571,0.0004
456,1.4598087668418884,1.8564910888671875,0.38461538461538464,0.8269230769230769,0.14285714285714285,0.7857142857142857,0.0004
457,1.3975013494491577,1.8843927383422852,0.38461538461538464,0.8076923076923077,0.21428571428571427,0.5714285714285714,0.0004
458,1.351179599761963,1.6894527673721313,0.40384615384615385,0.8846153846153846,0.21428571428571427,0.7857142857142857,0.0004
459,1.3026412725448608,1.4023029804229736,0.4807692307692308,0.8846153846153846,0.2857142857142857,0.9285714285714286,0.0004
460,1.2760304808616638,1.9154422283172607,0.4423076923076923,0.8846153846153846,0.14285714285714285,0.7142857142857143,0.0004
461,1.4340983629226685,1.5273205041885376,0.40384615384615385,0.8461538461538461,0.2857142857142857,0.8571428571428571,0.0004
462,1.341945469379425,1.6291248798370361,0.46153846153846156,0.8653846153846154,0.21428571428571427,0.7857142857142857,0.0004
463,1.2857153415679932,1.5489362478256226,0.4807692307692308,0.8653846153846154,0.2857142857142857,0.8571428571428571,0.0004
464,1.4326786994934082,1.8244426250457764,0.4230769230769231,0.8269230769230769,0.2857142857142857,0.7142857142857143,0.0004
465,1.2952789068222046,2.046621799468994,0.4423076923076923,0.8846153846153846,0.14285714285714285,0.6428571428571429,0.0004
466,1.356995165348053,1.598311185836792,0.40384615384615385,0.8461538461538461,0.21428571428571427,0.7857142857142857,0.0004
467,1.3154324889183044,1.8964763879776,0.4230769230769231,0.8461538461538461,0.2857142857142857,0.6428571428571429,0.0004
468,1.2759585976600647,1.8739781379699707,0.46153846153846156,0.8653846153846154,0.21428571428571427,0.7142857142857143,0.0004
469,1.2785515785217285,1.6526063680648804,0.4807692307692308,0.9230769230769231,0.21428571428571427,0.8571428571428571,0.0004
470,1.2624785900115967,1.7346290349960327,0.4807692307692308,0.9230769230769231,0.2857142857142857,0.7142857142857143,0.0004
471,1.3021258115768433,1.4738482236862183,0.4423076923076923,0.8653846153846154,0.21428571428571427,0.8571428571428571,0.0004
472,1.5366644859313965,1.5190510749816895,0.40384615384615385,0.7692307692307693,0.2857142857142857,0.8571428571428571,0.0004
473,1.2453757524490356,1.709908366203308,0.4423076923076923,0.8846153846153846,0.21428571428571427,0.7142857142857143,0.0004
474,1.3186464309692383,1.6891050338745117,0.4423076923076923,0.8461538461538461,0.2857142857142857,0.6428571428571429,0.0004
475,1.3814865350723267,1.7547131776809692,0.38461538461538464,0.8076923076923077,0.21428571428571427,0.7142857142857143,0.0004
476,1.3897974491119385,1.4580483436584473,0.4423076923076923,0.7884615384615384,0.2857142857142857,0.8571428571428571,0.0004
477,1.4516375064849854,1.6650362014770508,0.4423076923076923,0.7692307692307693,0.2857142857142857,0.7857142857142857,0.0004
478,1.4377908110618591,1.7766447067260742,0.4423076923076923,0.7884615384615384,0.14285714285714285,0.7857142857142857,0.0004
479,1.3710301518440247,1.7142953872680664,0.4230769230769231,0.8269230769230769,0.2857142857142857,0.7142857142857143,0.0004
480,1.3801199793815613,1.907132625579834,0.4423076923076923,0.8846153846153846,0.21428571428571427,0.7857142857142857,0.0004
481,1.3638774156570435,1.4688538312911987,0.46153846153846156,0.8461538461538461,0.2857142857142857,0.8571428571428571,0.0004
482,1.466526746749878,1.7109911441802979,0.4230769230769231,0.8461538461538461,0.21428571428571427,0.8571428571428571,0.0004
483,1.3406379222869873,1.6170835494995117,0.4230769230769231,0.8461538461538461,0.21428571428571427,0.8571428571428571,0.0004
484,1.3712419271469116,1.57591712474823,0.40384615384615385,0.8461538461538461,0.21428571428571427,0.8571428571428571,0.0004
485,1.3340619802474976,1.7574142217636108,0.4423076923076923,0.8653846153846154,0.14285714285714285,0.8571428571428571,0.0004
486,1.3047302961349487,1.8678479194641113,0.46153846153846156,0.8653846153846154,0.14285714285714285,0.7857142857142857,0.0004
487,1.3124709725379944,1.5979843139648438,0.4423076923076923,0.8846153846153846,0.2857142857142857,0.8571428571428571,0.0004
488,1.3666476607322693,2.0310189723968506,0.4230769230769231,0.8269230769230769,0.14285714285714285,0.6428571428571429,0.0004
489,1.3213595151901245,1.6436316967010498,0.4423076923076923,0.8461538461538461,0.21428571428571427,0.7857142857142857,0.0004
490,1.2673768997192383,1.6722773313522339,0.4423076923076923,0.9038461538461539,0.14285714285714285,0.7142857142857143,0.0004
491,1.5043439865112305,1.6272510290145874,0.36538461538461536,0.7307692307692307,0.21428571428571427,0.6428571428571429,0.0004
492,1.275857150554657,1.804133653640747,0.46153846153846156,0.8846153846153846,0.21428571428571427,0.6428571428571429,0.0004
493,1.3015468120574951,1.7504119873046875,0.46153846153846156,0.8461538461538461,0.21428571428571427,0.6428571428571429,0.0004
494,1.4098907709121704,1.721677303314209,0.38461538461538464,0.8076923076923077,0.21428571428571427,0.7857142857142857,0.0004
495,1.29265695810318,1.6962659358978271,0.4423076923076923,0.8846153846153846,0.21428571428571427,0.7857142857142857,0.0004
496,1.3408817648887634,1.6217654943466187,0.4423076923076923,0.8076923076923077,0.21428571428571427,0.7857142857142857,0.0004
497,1.3463277220726013,1.6884139776229858,0.40384615384615385,0.8076923076923077,0.14285714285714285,0.8571428571428571,0.0004
498,1.3601312637329102,1.490347146987915,0.40384615384615385,0.8269230769230769,0.21428571428571427,0.8571428571428571,0.0004
499,1.3432549834251404,1.7753167152404785,0.40384615384615385,0.9038461538461539,0.21428571428571427,0.7142857142857143,0.0004
500,1.3234338760375977,1.6157400608062744,0.4230769230769231,0.9230769230769231,0.21428571428571427,0.8571428571428571,0.0004
501,1.2848158478736877,1.969605803489685,0.4230769230769231,0.8846153846153846,0.14285714285714285,0.7142857142857143,0.0004
502,1.2797743678092957,1.7682594060897827,0.4423076923076923,0.8846153846153846,0.2857142857142857,0.7857142857142857,0.0004
503,1.406281292438507,1.8699300289154053,0.4423076923076923,0.8846153846153846,0.14285714285714285,0.7857142857142857,0.0004
504,1.3362743258476257,1.7933084964752197,0.46153846153846156,0.8846153846153846,0.21428571428571427,0.8571428571428571,0.0004
505,1.3348674774169922,1.6120645999908447,0.4807692307692308,0.9038461538461539,0.21428571428571427,0.8571428571428571,0.0004
506,1.220109224319458,1.6314655542373657,0.5,0.8846153846153846,0.21428571428571427,0.8571428571428571,0.0004
507,1.17672598361969,1.776315689086914,0.5,0.9230769230769231,0.14285714285714285,0.8571428571428571,0.0004
508,1.3324739933013916,2.0113937854766846,0.4230769230769231,0.9038461538461539,0.21428571428571427,0.7142857142857143,0.0004
509,1.459574043750763,1.543548583984375,0.40384615384615385,0.8461538461538461,0.21428571428571427,0.8571428571428571,0.0004
510,1.2612617015838623,1.5597630739212036,0.5,0.9038461538461539,0.2857142857142857,0.8571428571428571,0.0004
511,1.3365298509597778,1.6719951629638672,0.40384615384615385,0.8846153846153846,0.21428571428571427,0.8571428571428571,0.0004
512,1.2437493205070496,1.6197941303253174,0.4423076923076923,0.8846153846153846,0.21428571428571427,0.8571428571428571,0.0004
513,1.2534642219543457,1.5786151885986328,0.4807692307692308,0.9423076923076923,0.2857142857142857,0.8571428571428571,0.0004
514,1.2710550427436829,1.6444568634033203,0.5,0.9423076923076923,0.2857142857142857,0.7857142857142857,0.0004
515,1.5375435948371887,1.6485599279403687,0.38461538461538464,0.8653846153846154,0.21428571428571427,0.7857142857142857,0.0004
516,1.3908717632293701,1.541332483291626,0.46153846153846156,0.8653846153846154,0.2857142857142857,0.8571428571428571,0.0004
517,1.1707559823989868,1.5513451099395752,0.5,0.9038461538461539,0.2857142857142857,0.8571428571428571,0.0004
518,1.1523922681808472,1.888317584991455,0.4807692307692308,0.9423076923076923,0.21428571428571427,0.6428571428571429,0.0004
519,1.3221438527107239,1.600826382637024,0.4423076923076923,0.8653846153846154,0.21428571428571427,0.7857142857142857,0.0004
520,1.2455231547355652,2.23555850982666,0.4423076923076923,0.8846153846153846,0.14285714285714285,0.5714285714285714,0.0004
521,1.2589710354804993,1.8143424987792969,0.46153846153846156,0.8653846153846154,0.2857142857142857,0.7142857142857143,0.0004
522,1.3864107728004456,1.8274602890014648,0.38461538461538464,0.8076923076923077,0.2857142857142857,0.7142857142857143,0.0004
523,1.3609729409217834,1.907000184059143,0.4230769230769231,0.8269230769230769,0.21428571428571427,0.7142857142857143,0.0004
524,1.2519100308418274,1.764407753944397,0.40384615384615385,0.8653846153846154,0.21428571428571427,0.8571428571428571,0.0004
525,1.2949540615081787,1.5566916465759277,0.4230769230769231,0.8846153846153846,0.2857142857142857,0.8571428571428571,0.0004
526,1.1433080434799194,2.014010429382324,0.4807692307692308,0.9423076923076923,0.21428571428571427,0.7142857142857143,0.0004
527,1.4324888586997986,1.4539097547531128,0.4230769230769231,0.8461538461538461,0.2857142857142857,0.9285714285714286,0.0004
528,1.1241478323936462,1.6312872171401978,0.5384615384615384,0.9615384615384616,0.2857142857142857,0.8571428571428571,0.0004
529,1.2583239078521729,1.6397864818572998,0.4807692307692308,0.8653846153846154,0.2857142857142857,0.7857142857142857,0.0004
530,1.5584228038787842,1.724257230758667,0.40384615384615385,0.8269230769230769,0.21428571428571427,0.8571428571428571,0.0004
531,1.4715697765350342,1.9019889831542969,0.4423076923076923,0.8653846153846154,0.14285714285714285,0.7857142857142857,0.0004
532,1.364070177078247,1.6985877752304077,0.46153846153846156,0.8461538461538461,0.2857142857142857,0.7142857142857143,0.0004
533,1.3787745237350464,2.107996702194214,0.5,0.7692307692307693,0.35714285714285715,0.2857142857142857,0.0004
534,1.687391221523285,2.074963092803955,0.4230769230769231,0.5192307692307693,0.2857142857142857,0.35714285714285715,0.0004
535,1.8669536113739014,1.646754503250122,0.38461538461538464,0.3269230769230769,0.5,0.5,0.0004
536,1.8537923693656921,1.9325659275054932,0.34615384615384615,0.34615384615384615,0.2857142857142857,0.2857142857142857,0.0004
537,1.8125338554382324,1.780411958694458,0.36538461538461536,0.38461538461538464,0.42857142857142855,0.35714285714285715,0.0004
538,1.7943581342697144,1.9174931049346924,0.34615384615384615,0.38461538461538464,0.35714285714285715,0.21428571428571427,0.0004
539,1.850560486316681,1.8193235397338867,0.34615384615384615,0.36538461538461536,0.35714285714285715,0.8571428571428571,0.0004
540,1.732943832874298,1.7562111616134644,0.34615384615384615,0.8269230769230769,0.35714285714285715,0.8571428571428571,0.0004
541,1.714914858341217,1.703519344329834,0.3076923076923077,0.8269230769230769,0.35714285714285715,0.8571428571428571,0.0004
542,1.6541426181793213,1.646158218383789,0.3269230769230769,0.8269230769230769,0.35714285714285715,0.8571428571428571,0.0004
543,1.6497988104820251,1.6372580528259277,0.3269230769230769,0.8269230769230769,0.35714285714285715,0.8571428571428571,0.0004
544,1.543608009815216,1.6465630531311035,0.36538461538461536,0.8269230769230769,0.35714285714285715,0.8571428571428571,0.0004
545,1.5875844955444336,1.5903290510177612,0.5384615384615384,0.8269230769230769,0.2857142857142857,0.8571428571428571,0.0004
546,1.5510488152503967,1.5929815769195557,0.40384615384615385,0.8269230769230769,0.2857142857142857,0.8571428571428571,0.0004
547,1.5250621438026428,1.5844364166259766,0.4230769230769231,0.8269230769230769,0.2857142857142857,0.8571428571428571,0.0004
548,1.5406230092048645,1.5721004009246826,0.4230769230769231,0.8269230769230769,0.2857142857142857,0.8571428571428571,0.0004
549,1.5093493461608887,1.6132738590240479,0.4230769230769231,0.8269230769230769,0.21428571428571427,0.8571428571428571,0.0004
550,1.4394530057907104,1.5413185358047485,0.5192307692307693,0.8269230769230769,0.2857142857142857,0.8571428571428571,0.0004
551,1.4680139422416687,1.5979968309402466,0.46153846153846156,0.8269230769230769,0.21428571428571427,0.8571428571428571,0.0004
552,1.437848448753357,1.6572438478469849,0.4807692307692308,0.8269230769230769,0.21428571428571427,0.8571428571428571,0.0004
553,1.450495421886444,1.534832239151001,0.4423076923076923,0.8269230769230769,0.2857142857142857,0.8571428571428571,0.0004
554,1.3849987983703613,1.5990524291992188,0.5,0.8269230769230769,0.21428571428571427,0.8571428571428571,0.0004
555,1.4581153392791748,1.6822096109390259,0.46153846153846156,0.8269230769230769,0.21428571428571427,0.8571428571428571,0.0004
556,1.4317195415496826,1.6207306385040283,0.46153846153846156,0.8269230769230769,0.21428571428571427,0.8571428571428571,0.0004
557,1.3955371379852295,1.670098900794983,0.46153846153846156,0.8269230769230769,0.21428571428571427,0.8571428571428571,0.0004
558,1.3634938597679138,1.4404933452606201,0.4423076923076923,0.8269230769230769,0.2857142857142857,0.8571428571428571,0.0004
559,1.5177075266838074,1.4326297044754028,0.40384615384615385,0.8269230769230769,0.2857142857142857,0.8571428571428571,0.0004
560,1.5669185519218445,1.5465366840362549,0.38461538461538464,0.8269230769230769,0.21428571428571427,0.8571428571428571,0.0004
561,1.5816302299499512,1.5408835411071777,0.36538461538461536,0.8269230769230769,0.21428571428571427,0.8571428571428571,0.0004
562,1.5478743314743042,1.5024135112762451,0.36538461538461536,0.8269230769230769,0.21428571428571427,0.8571428571428571,0.0004
563,1.4848620295524597,1.5199899673461914,0.36538461538461536,0.8269230769230769,0.14285714285714285,0.8571428571428571,0.0004
564,1.5079203844070435,1.5081214904785156,0.4423076923076923,0.8269230769230769,0.2857142857142857,0.8571428571428571,0.0004
565,1.4719889760017395,1.4723843336105347,0.4807692307692308,0.8269230769230769,0.35714285714285715,0.8571428571428571,0.0004
566,1.488134503364563,1.4594954252243042,0.40384615384615385,0.8269230769230769,0.42857142857142855,0.8571428571428571,0.0004
567,1.4667452573776245,1.495490312576294,0.34615384615384615,0.8269230769230769,0.2857142857142857,0.8571428571428571,0.0004
568,1.4439926743507385,1.469349980354309,0.4423076923076923,0.8269230769230769,0.35714285714285715,0.8571428571428571,0.0004
569,1.421747863292694,1.5027410984039307,0.38461538461538464,0.8269230769230769,0.35714285714285715,0.8571428571428571,0.0004
570,1.4033626317977905,1.542732834815979,0.40384615384615385,0.8269230769230769,0.42857142857142855,0.8571428571428571,0.0004
571,1.420115351676941,1.4701482057571411,0.40384615384615385,0.8269230769230769,0.42857142857142855,0.8571428571428571,0.0004
572,1.4520090222358704,1.4966259002685547,0.40384615384615385,0.8269230769230769,0.42857142857142855,0.8571428571428571,0.0004
573,1.4398530721664429,1.4426426887512207,0.38461538461538464,0.8269230769230769,0.5,0.8571428571428571,0.0004
574,1.4608598351478577,1.394685983657837,0.46153846153846156,0.8269230769230769,0.42857142857142855,0.8571428571428571,0.0004
575,1.420122742652893,1.5110924243927002,0.36538461538461536,0.8269230769230769,0.35714285714285715,0.8571428571428571,0.0004
576,1.3526495099067688,1.5047197341918945,0.40384615384615385,0.8269230769230769,0.42857142857142855,0.8571428571428571,0.0004
577,1.398431658744812,1.558685302734375,0.40384615384615385,0.8269230769230769,0.2857142857142857,0.8571428571428571,0.0004
578,1.3757291436195374,1.567281723022461,0.4807692307692308,0.8269230769230769,0.2857142857142857,0.8571428571428571,0.0004
579,1.4203924536705017,1.6269898414611816,0.5,0.8269230769230769,0.21428571428571427,0.8571428571428571,0.0004
580,1.6826242208480835,1.6371865272521973,0.36538461538461536,0.8269230769230769,0.21428571428571427,0.8571428571428571,0.0004
581,1.638739287853241,1.6071302890777588,0.36538461538461536,0.8269230769230769,0.21428571428571427,0.8571428571428571,0.0004
582,1.6205255389213562,1.6024682521820068,0.36538461538461536,0.8269230769230769,0.21428571428571427,0.8571428571428571,0.0004
583,1.6003422141075134,1.5585538148880005,0.36538461538461536,0.8269230769230769,0.21428571428571427,0.8571428571428571,0.0004
584,1.5709636211395264,1.520725965499878,0.36538461538461536,0.8269230769230769,0.21428571428571427,0.8571428571428571,0.0004
585,1.557945966720581,1.518522024154663,0.36538461538461536,0.8269230769230769,0.21428571428571427,0.8571428571428571,0.0004
586,1.518221914768219,1.4936399459838867,0.36538461538461536,0.8269230769230769,0.21428571428571427,0.8571428571428571,0.0004
587,1.4931344389915466,1.518645167350769,0.36538461538461536,0.8269230769230769,0.21428571428571427,0.8571428571428571,0.0004
588,1.5253865122795105,1.4843932390213013,0.4230769230769231,0.8269230769230769,0.5,0.8571428571428571,0.0004
589,1.523280680179596,1.5405521392822266,0.5,0.8269230769230769,0.42857142857142855,0.8571428571428571,0.0004
590,1.5431159734725952,1.5666651725769043,0.38461538461538464,0.8269230769230769,0.35714285714285715,0.8571428571428571,0.0004
591,1.5236924290657043,1.5300222635269165,0.38461538461538464,0.8269230769230769,0.35714285714285715,0.8571428571428571,0.0004
592,1.5170172452926636,1.5248456001281738,0.38461538461538464,0.8269230769230769,0.42857142857142855,0.8571428571428571,0.0004
593,1.5433621406555176,1.5114498138427734,0.38461538461538464,0.8269230769230769,0.42857142857142855,0.8571428571428571,0.0004
594,1.4950988292694092,1.5142618417739868,0.4423076923076923,0.8269230769230769,0.42857142857142855,0.8571428571428571,0.0004
595,1.5036855340003967,1.5137457847595215,0.40384615384615385,0.8269230769230769,0.5,0.8571428571428571,0.0004
596,1.5025274157524109,1.496221899986267,0.5384615384615384,0.8269230769230769,0.42857142857142855,0.8571428571428571,0.0004
597,1.4405064582824707,1.4859285354614258,0.4807692307692308,0.8269230769230769,0.21428571428571427,0.8571428571428571,0.0004
598,1.4985061287879944,1.4622000455856323,0.38461538461538464,0.8269230769230769,0.5,0.8571428571428571,0.0004
599,1.4642215967178345,1.4759109020233154,0.5,0.8269230769230769,0.2857142857142857,0.8571428571428571,0.0004
600,1.449425220489502,1.477189540863037,0.46153846153846156,0.8269230769230769,0.35714285714285715,0.8571428571428571,0.0004
601,1.457882821559906,1.484245777130127,0.40384615384615385,0.8269230769230769,0.2857142857142857,0.8571428571428571,0.0004
602,1.4337594509124756,1.457193374633789,0.46153846153846156,0.8269230769230769,0.2857142857142857,0.8571428571428571,0.0004
603,1.3667936325073242,1.5417333841323853,0.5384615384615384,0.8269230769230769,0.21428571428571427,0.8571428571428571,0.0004
604,1.4169961214065552,1.4345667362213135,0.5,0.8269230769230769,0.2857142857142857,0.8571428571428571,0.0004
605,1.4071376323699951,1.4610316753387451,0.4807692307692308,0.8269230769230769,0.21428571428571427,0.8571428571428571,0.0004
606,1.4213230609893799,1.4357457160949707,0.5192307692307693,0.8269230769230769,0.21428571428571427,0.8571428571428571,0.0004
607,1.4007644653320312,1.4995954036712646,0.5384615384615384,0.8269230769230769,0.35714285714285715,0.8571428571428571,0.0004
608,1.4535163044929504,1.4810497760772705,0.5,0.8269230769230769,0.35714285714285715,0.8571428571428571,0.0004
609,1.3664808869361877,1.6111708879470825,0.5192307692307693,0.8269230769230769,0.14285714285714285,0.8571428571428571,0.0004
610,1.3714706897735596,1.4766607284545898,0.46153846153846156,0.8269230769230769,0.21428571428571427,0.8571428571428571,0.0004
611,1.335536777973175,1.3901523351669312,0.4807692307692308,0.8269230769230769,0.5,0.8571428571428571,0.0004
612,1.3356014490127563,1.4926127195358276,0.5384615384615384,0.8269230769230769,0.07142857142857142,0.8571428571428571,0.0004
613,1.4259512424468994,1.4597997665405273,0.5769230769230769,0.8269230769230769,0.21428571428571427,0.8571428571428571,0.0004
614,1.32073974609375,1.464867115020752,0.46153846153846156,0.8269230769230769,0.2857142857142857,0.8571428571428571,0.0004
615,1.2520750761032104,1.4086847305297852,0.4807692307692308,0.8269230769230769,0.35714285714285715,0.8571428571428571,0.0004
616,1.1849480867385864,1.7176815271377563,0.5,0.8269230769230769,0.21428571428571427,0.8571428571428571,0.0004
617,1.2661465406417847,1.4684100151062012,0.46153846153846156,0.8269230769230769,0.2857142857142857,0.8571428571428571,0.0004
618,1.383874535560608,1.7005937099456787,0.4423076923076923,0.8269230769230769,0.21428571428571427,0.8571428571428571,0.0004
619,1.3758584260940552,1.5475066900253296,0.4423076923076923,0.8269230769230769,0.2857142857142857,0.8571428571428571,0.0004
620,1.3124895095825195,1.553067684173584,0.4423076923076923,0.8269230769230769,0.2857142857142857,0.8571428571428571,0.0004
621,1.1973007321357727,1.6522878408432007,0.5192307692307693,0.8269230769230769,0.2857142857142857,0.8571428571428571,0.0004
622,1.2126482725143433,1.467376470565796,0.5192307692307693,0.8269230769230769,0.21428571428571427,0.8571428571428571,0.0004
623,1.260700285434723,1.6033695936203003,0.4807692307692308,0.8269230769230769,0.2857142857142857,0.8571428571428571,0.0004
624,1.197807788848877,1.6752469539642334,0.5192307692307693,0.8653846153846154,0.2857142857142857,0.7857142857142857,0.0004
625,1.3104417324066162,1.56858491897583,0.4807692307692308,0.8846153846153846,0.2857142857142857,0.8571428571428571,0.0004
626,1.348563015460968,1.4775514602661133,0.5384615384615384,0.8269230769230769,0.35714285714285715,0.9285714285714286,0.0004
627,1.2888529300689697,1.401761770248413,0.5384615384615384,0.9038461538461539,0.35714285714285715,0.9285714285714286,0.0004
628,1.240861415863037,1.391492247581482,0.5,0.9038461538461539,0.42857142857142855,0.8571428571428571,0.0004
629,1.4205369353294373,1.4589391946792603,0.5192307692307693,0.8461538461538461,0.5,0.7857142857142857,0.0004
630,1.4308584928512573,1.7815074920654297,0.5576923076923077,0.8461538461538461,0.42857142857142855,0.6428571428571429,0.0004
631,1.2704907655715942,1.5688667297363281,0.5769230769230769,0.8653846153846154,0.42857142857142855,0.7857142857142857,0.0004
632,1.4191440343856812,1.5348957777023315,0.4807692307692308,0.8269230769230769,0.42857142857142855,0.7142857142857143,0.0004
633,1.1933572888374329,1.349355697631836,0.4807692307692308,0.9230769230769231,0.5,0.8571428571428571,0.0004
634,1.274250566959381,1.834394931793213,0.46153846153846156,0.9230769230769231,0.2857142857142857,0.7142857142857143,0.0004
635,1.1564561128616333,1.8061563968658447,0.4807692307692308,0.9423076923076923,0.07142857142857142,0.7857142857142857,0.0004
636,1.2337401509284973,1.4390054941177368,0.46153846153846156,0.9038461538461539,0.2857142857142857,0.9285714285714286,0.0004
637,1.2044607400894165,1.4313137531280518,0.4807692307692308,0.9230769230769231,0.2857142857142857,0.8571428571428571,0.0004
638,1.2319068312644958,1.3900625705718994,0.4230769230769231,0.9230769230769231,0.21428571428571427,0.9285714285714286,0.0004
639,1.247412383556366,1.543509840965271,0.5,0.9230769230769231,0.2857142857142857,0.8571428571428571,0.0004
640,1.4479077458381653,1.5061640739440918,0.4807692307692308,0.8269230769230769,0.35714285714285715,0.8571428571428571,0.0004
641,1.34782475233078,1.511767029762268,0.5,0.8269230769230769,0.2857142857142857,0.8571428571428571,0.0004
642,1.4198334217071533,1.5820059776306152,0.5,0.8269230769230769,0.21428571428571427,0.8571428571428571,0.0004
643,1.3635842204093933,1.4429244995117188,0.4807692307692308,0.8269230769230769,0.35714285714285715,0.8571428571428571,0.0004
644,1.2676550149917603,1.3232951164245605,0.5,0.8269230769230769,0.42857142857142855,0.8571428571428571,0.0004
645,1.306470274925232,1.6334829330444336,0.5576923076923077,0.8269230769230769,0.21428571428571427,0.8571428571428571,0.0004
646,1.2851693630218506,1.7025306224822998,0.40384615384615385,0.8269230769230769,0.35714285714285715,0.8571428571428571,0.0004
647,1.3303479552268982,1.5648934841156006,0.4423076923076923,0.8269230769230769,0.42857142857142855,0.7857142857142857,0.0004
648,1.2723444700241089,1.5033442974090576,0.5,0.8269230769230769,0.42857142857142855,0.7857142857142857,0.0004
649,1.2348312735557556,1.4877309799194336,0.4807692307692308,0.9230769230769231,0.35714285714285715,0.9285714285714286,0.0004
650,1.2747989296913147,1.4881036281585693,0.5192307692307693,0.8846153846153846,0.35714285714285715,0.7857142857142857,0.0004
651,1.263819694519043,1.507562518119812,0.5,0.9038461538461539,0.35714285714285715,0.9285714285714286,0.0004
652,1.3811798095703125,1.2985197305679321,0.4807692307692308,0.9230769230769231,0.42857142857142855,0.9285714285714286,0.0004
653,1.2806499004364014,1.4032701253890991,0.46153846153846156,0.9038461538461539,0.35714285714285715,0.7857142857142857,0.0004
654,1.2722687721252441,1.250656247138977,0.4807692307692308,0.9038461538461539,0.2857142857142857,0.9285714285714286,0.0004
655,1.1931170225143433,1.6542824506759644,0.5,0.9038461538461539,0.2857142857142857,0.7857142857142857,0.0004
656,1.1417377591133118,1.764169454574585,0.46153846153846156,0.9423076923076923,0.14285714285714285,0.7857142857142857,0.0004
657,1.1904122829437256,1.8679230213165283,0.5192307692307693,0.9230769230769231,0.21428571428571427,0.7857142857142857,0.0004
658,1.140084683895111,1.3110790252685547,0.5192307692307693,0.9230769230769231,0.21428571428571427,0.9285714285714286,0.0004
659,1.1776169538497925,1.6972131729125977,0.5,0.8846153846153846,0.21428571428571427,0.7857142857142857,0.0004
660,1.1754775047302246,1.6101996898651123,0.46153846153846156,0.9423076923076923,0.35714285714285715,0.7857142857142857,0.0004
661,1.095170110464096,1.5504510402679443,0.5,0.9423076923076923,0.21428571428571427,0.8571428571428571,0.0004
662,1.297327995300293,1.6474531888961792,0.4423076923076923,0.8653846153846154,0.2857142857142857,0.8571428571428571,0.0004
663,1.1000650525093079,1.3884140253067017,0.5,0.9615384615384616,0.2857142857142857,0.9285714285714286,0.0004
664,1.219978928565979,1.5528852939605713,0.5192307692307693,0.9038461538461539,0.21428571428571427,0.8571428571428571,0.0004
665,1.2501968145370483,1.7115366458892822,0.5,0.8269230769230769,0.14285714285714285,0.8571428571428571,0.0004
666,1.3196735382080078,1.7137765884399414,0.5192307692307693,0.8269230769230769,0.21428571428571427,0.8571428571428571,0.0004
667,1.1809003949165344,1.4281058311462402,0.5384615384615384,0.8269230769230769,0.2857142857142857,0.8571428571428571,0.0004
668,1.3050272464752197,1.4347379207611084,0.4807692307692308,0.8269230769230769,0.2857142857142857,0.8571428571428571,0.0004
669,1.1740854978561401,1.5643277168273926,0.5,0.8269230769230769,0.2857142857142857,0.7857142857142857,0.0004
670,1.1302871108055115,1.468261957168579,0.4807692307692308,0.8846153846153846,0.42857142857142855,0.8571428571428571,0.0004
671,1.227398931980133,1.267057180404663,0.5,0.9038461538461539,0.42857142857142855,0.9285714285714286,0.0004
672,1.2258633375167847,1.5513410568237305,0.5192307692307693,0.9423076923076923,0.5,0.7857142857142857,0.0004
673,1.1451889276504517,1.458036184310913,0.5576923076923077,0.9230769230769231,0.42857142857142855,0.8571428571428571,0.0004
674,1.1177180409431458,1.5549497604370117,0.5576923076923077,0.9230769230769231,0.42857142857142855,0.7857142857142857,0.0004
675,1.3512113094329834,1.7213197946548462,0.4423076923076923,0.8846153846153846,0.35714285714285715,0.7142857142857143,0.0004
676,1.2127707600593567,1.7521493434906006,0.5192307692307693,0.9038461538461539,0.35714285714285715,0.7857142857142857,0.0004
677,1.1452559232711792,1.8494513034820557,0.5769230769230769,0.9230769230769231,0.2857142857142857,0.7857142857142857,0.0004
678,1.1644231081008911,1.6590261459350586,0.5192307692307693,0.9038461538461539,0.35714285714285715,0.7142857142857143,0.0004
679,1.0957164764404297,1.593957781791687,0.5384615384615384,0.9423076923076923,0.2857142857142857,0.8571428571428571,0.0004
680,1.1421963572502136,1.3631031513214111,0.4807692307692308,0.9423076923076923,0.2857142857142857,0.9285714285714286,0.0004
681,1.2017824053764343,1.4167667627334595,0.5192307692307693,0.9038461538461539,0.5714285714285714,0.7857142857142857,0.0004
682,1.2232831716537476,1.455511450767517,0.6153846153846154,0.9230769230769231,0.2857142857142857,0.8571428571428571,0.0004
683,1.26020747423172,1.6052857637405396,0.46153846153846156,0.9038461538461539,0.42857142857142855,0.7857142857142857,0.0004
684,1.418597936630249,1.6852751970291138,0.46153846153846156,0.8461538461538461,0.42857142857142855,0.6428571428571429,0.0004
685,1.2514848709106445,1.5183160305023193,0.5769230769230769,0.8461538461538461,0.35714285714285715,0.7857142857142857,0.0004
686,1.1788654327392578,1.6111844778060913,0.5384615384615384,0.9230769230769231,0.2857142857142857,0.8571428571428571,0.0004
687,1.1327000260353088,1.459639072418213,0.5192307692307693,0.9423076923076923,0.42857142857142855,0.8571428571428571,0.0004
688,1.063252329826355,1.510995864868164,0.5,0.9615384615384616,0.2857142857142857,0.8571428571428571,0.0004
689,1.1777401566505432,1.722966194152832,0.5,0.9423076923076923,0.2857142857142857,0.7857142857142857,0.0004
690,1.2086604833602905,1.638271450996399,0.5,0.9615384615384616,0.2857142857142857,0.7857142857142857,0.0004
691,1.1297430992126465,1.6951146125793457,0.5192307692307693,0.9615384615384616,0.2857142857142857,0.8571428571428571,0.0004
692,1.0892450213432312,2.0728745460510254,0.5384615384615384,0.9615384615384616,0.21428571428571427,0.7857142857142857,0.0004
693,1.3915884494781494,2.0878260135650635,0.46153846153846156,0.9038461538461539,0.21428571428571427,0.7142857142857143,0.0004
694,1.2126682996749878,1.4759889841079712,0.5,0.9038461538461539,0.2857142857142857,0.9285714285714286,0.0004
695,1.1725960969924927,1.5271438360214233,0.5,0.9615384615384616,0.2857142857142857,0.9285714285714286,0.0004
696,1.2284704446792603,1.511229395866394,0.4423076923076923,0.9038461538461539,0.2857142857142857,0.8571428571428571,0.0004
697,1.2800755500793457,1.5738441944122314,0.4807692307692308,0.9038461538461539,0.21428571428571427,0.8571428571428571,0.0004
698,1.304853618144989,1.9167454242706299,0.4423076923076923,0.9038461538461539,0.21428571428571427,0.7142857142857143,0.0004
699,1.1932514309883118,1.613329529762268,0.4807692307692308,0.9230769230769231,0.2857142857142857,0.8571428571428571,0.0004
700,1.142171323299408,1.8142304420471191,0.4423076923076923,0.9615384615384616,0.2857142857142857,0.7857142857142857,0.0004
701,1.2846341133117676,1.3965380191802979,0.4230769230769231,0.9230769230769231,0.21428571428571427,0.9285714285714286,0.0004
702,1.1697264909744263,1.8243573904037476,0.46153846153846156,0.9230769230769231,0.21428571428571427,0.7857142857142857,0.0004
703,1.1279244422912598,1.3576087951660156,0.5192307692307693,0.9615384615384616,0.35714285714285715,0.9285714285714286,0.0004
704,1.265016257762909,2.1355361938476562,0.5961538461538461,0.9230769230769231,0.21428571428571427,0.7142857142857143,0.0004
705,1.1172587871551514,1.3473284244537354,0.5384615384615384,0.9038461538461539,0.2857142857142857,0.9285714285714286,0.0004
706,1.37572580575943,1.756712794303894,0.4807692307692308,0.9038461538461539,0.2857142857142857,0.8571428571428571,0.0004
707,1.1592507362365723,1.4063119888305664,0.5769230769230769,0.9038461538461539,0.2857142857142857,0.9285714285714286,0.0004
708,1.2990303039550781,1.7843973636627197,0.4807692307692308,0.9230769230769231,0.2857142857142857,0.8571428571428571,0.0004
709,1.1138849258422852,1.8435499668121338,0.5576923076923077,0.9230769230769231,0.14285714285714285,0.7857142857142857,0.0004
710,1.1698639392852783,1.7745938301086426,0.4807692307692308,0.9423076923076923,0.21428571428571427,0.7857142857142857,0.0004
711,1.3085808157920837,1.511034607887268,0.46153846153846156,0.9038461538461539,0.2857142857142857,0.8571428571428571,0.0004
712,1.308439314365387,1.5664422512054443,0.46153846153846156,0.8846153846153846,0.2857142857142857,0.8571428571428571,0.0004
713,1.1575324535369873,1.193742036819458,0.5192307692307693,0.9423076923076923,0.5,0.9285714285714286,0.0004
714,1.02889746427536,1.4274603128433228,0.5192307692307693,0.9807692307692307,0.21428571428571427,0.9285714285714286,0.0004
715,1.11497300863266,1.7980711460113525,0.5,0.9423076923076923,0.2857142857142857,0.7857142857142857,0.0004
716,1.1621954441070557,1.354263424873352,0.5,0.9423076923076923,0.2857142857142857,0.9285714285714286,0.0004
717,1.3452354073524475,1.5127140283584595,0.5,0.8846153846153846,0.35714285714285715,0.8571428571428571,0.0004
718,1.0724300742149353,1.5362329483032227,0.5192307692307693,0.9423076923076923,0.35714285714285715,0.8571428571428571,0.0004
719,1.1643925905227661,1.8978148698806763,0.5,0.9038461538461539,0.14285714285714285,0.7857142857142857,0.0004
720,1.2391040325164795,1.725508689880371,0.5384615384615384,0.9038461538461539,0.2857142857142857,0.8571428571428571,0.0004
721,1.1943849921226501,1.3844434022903442,0.4423076923076923,0.9423076923076923,0.35714285714285715,0.9285714285714286,0.0004
722,1.2350895404815674,1.5388749837875366,0.5,0.9038461538461539,0.21428571428571427,0.8571428571428571,0.0004
723,1.1492791175842285,1.8379745483398438,0.5384615384615384,0.9615384615384616,0.21428571428571427,0.7857142857142857,0.0004
724,1.0025007128715515,1.6379708051681519,0.5576923076923077,0.9615384615384616,0.35714285714285715,0.7857142857142857,0.0004
725,1.1430465579032898,2.1388771533966064,0.5,0.9423076923076923,0.21428571428571427,0.7142857142857143,0.0004
726,1.1395834684371948,1.454348087310791,0.4807692307692308,0.9423076923076923,0.2857142857142857,0.9285714285714286,0.0004
727,1.0372033715248108,1.4291245937347412,0.5384615384615384,1.0,0.2857142857142857,0.9285714285714286,0.0004
728,1.1712359189987183,1.6128849983215332,0.5192307692307693,0.9615384615384616,0.35714285714285715,0.8571428571428571,0.0004
729,1.226258397102356,1.7549537420272827,0.5192307692307693,0.9230769230769231,0.21428571428571427,0.7857142857142857,0.0004
730,1.162109375,1.4325006008148193,0.5,0.9423076923076923,0.2857142857142857,0.9285714285714286,0.0004
731,1.1271727979183197,1.869616985321045,0.5192307692307693,0.9038461538461539,0.21428571428571427,0.8571428571428571,0.0004
732,1.2467670440673828,1.5929241180419922,0.4807692307692308,0.9230769230769231,0.21428571428571427,0.9285714285714286,0.0004
733,1.1333527565002441,1.8656271696090698,0.4423076923076923,0.9615384615384616,0.21428571428571427,0.8571428571428571,0.0004
734,1.0657926201820374,1.6755125522613525,0.5576923076923077,0.9615384615384616,0.21428571428571427,0.8571428571428571,0.0004
735,1.042300045490265,1.356520414352417,0.5384615384615384,1.0,0.2857142857142857,0.9285714285714286,0.0004
736,1.1179514527320862,1.3568809032440186,0.5,0.9038461538461539,0.2857142857142857,0.9285714285714286,0.0004
737,1.2533758878707886,1.4184916019439697,0.5192307692307693,0.8846153846153846,0.2857142857142857,0.8571428571428571,0.0004
738,1.0766580700874329,1.6636900901794434,0.5,0.9615384615384616,0.21428571428571427,0.8571428571428571,0.0004
739,1.3791890740394592,1.3743691444396973,0.5,0.9038461538461539,0.2857142857142857,0.9285714285714286,0.0004
740,1.0952363908290863,1.5320065021514893,0.5192307692307693,0.9230769230769231,0.35714285714285715,0.8571428571428571,0.0004
741,1.2175784707069397,1.6173721551895142,0.46153846153846156,0.9230769230769231,0.35714285714285715,0.8571428571428571,0.0004
742,1.0598405003547668,1.6418873071670532,0.4807692307692308,0.9615384615384616,0.2857142857142857,0.8571428571428571,0.0004
743,1.2405970096588135,1.6533403396606445,0.5576923076923077,0.9230769230769231,0.42857142857142855,0.7857142857142857,0.0004
744,1.1777777075767517,1.7753112316131592,0.5384615384615384,0.9230769230769231,0.35714285714285715,0.7857142857142857,0.0004
745,1.1080356240272522,2.0388669967651367,0.5192307692307693,0.9423076923076923,0.2857142857142857,0.7142857142857143,0.0004
746,1.2340814471244812,1.4825551509857178,0.5,0.9423076923076923,0.14285714285714285,0.9285714285714286,0.0004
747,1.3986859321594238,1.448529601097107,0.46153846153846156,0.8846153846153846,0.2857142857142857,0.9285714285714286,0.0004
748,1.0646319091320038,1.4987874031066895,0.5576923076923077,0.9038461538461539,0.5,0.8571428571428571,0.0004
749,1.1086740493774414,1.4779789447784424,0.5384615384615384,0.9038461538461539,0.2857142857142857,0.8571428571428571,0.0004
750,1.0165213346481323,1.7227931022644043,0.5384615384615384,0.9423076923076923,0.2857142857142857,0.8571428571428571,0.0004
751,1.219908356666565,1.5108418464660645,0.5192307692307693,0.9423076923076923,0.2857142857142857,0.8571428571428571,0.0004
752,1.2143670320510864,1.4568517208099365,0.5,0.9038461538461539,0.2857142857142857,0.9285714285714286,0.0004
753,1.0959481000900269,1.6268121004104614,0.5192307692307693,0.9423076923076923,0.35714285714285715,0.7857142857142857,0.0004
754,0.9586088955402374,1.6946715116500854,0.5384615384615384,0.9615384615384616,0.2857142857142857,0.7857142857142857,0.0004
755,1.1803799867630005,1.8148136138916016,0.4807692307692308,0.9423076923076923,0.35714285714285715,0.7142857142857143,0.0004
756,1.0198109447956085,1.898249626159668,0.5769230769230769,0.9807692307692307,0.35714285714285715,0.7857142857142857,0.0004
757,0.9772861003875732,1.6103242635726929,0.5769230769230769,0.9807692307692307,0.2857142857142857,0.8571428571428571,0.0004
758,1.2498936653137207,1.2721960544586182,0.46153846153846156,0.9230769230769231,0.5,0.9285714285714286,0.0004
759,1.3006329536437988,1.4429497718811035,0.5384615384615384,0.8846153846153846,0.35714285714285715,0.9285714285714286,0.0004
760,1.1685723662376404,1.2899729013442993,0.5192307692307693,0.9230769230769231,0.2857142857142857,0.9285714285714286,0.0004
761,1.1813398003578186,1.7605175971984863,0.5961538461538461,0.9423076923076923,0.35714285714285715,0.7857142857142857,0.0004
762,1.040794849395752,1.6882603168487549,0.5769230769230769,0.9423076923076923,0.5,0.7857142857142857,0.0004
763,1.0118000209331512,1.4018536806106567,0.6346153846153846,0.9615384615384616,0.5,0.9285714285714286,0.0004
764,1.1136913299560547,1.267686128616333,0.4423076923076923,0.9423076923076923,0.5,0.9285714285714286,0.0004
765,1.0022684037685394,1.450148105621338,0.6538461538461539,0.9807692307692307,0.5,0.8571428571428571,0.0004
766,1.0957370698451996,2.309238910675049,0.5961538461538461,0.9230769230769231,0.35714285714285715,0.6428571428571429,0.0004
767,1.3269650340080261,1.26381254196167,0.5,0.8846153846153846,0.21428571428571427,0.9285714285714286,0.0004
768,1.005088061094284,1.3331252336502075,0.5576923076923077,0.9615384615384616,0.2857142857142857,0.9285714285714286,0.0004
769,1.0543040335178375,1.5631489753723145,0.5961538461538461,0.9615384615384616,0.2857142857142857,0.8571428571428571,0.0004
770,1.2399447560310364,1.30368173122406,0.5192307692307693,0.9423076923076923,0.2857142857142857,0.9285714285714286,0.0004
771,1.2088149785995483,1.3156391382217407,0.46153846153846156,0.9230769230769231,0.2857142857142857,0.9285714285714286,0.0004
772,1.1573074460029602,1.637749195098877,0.5576923076923077,0.9615384615384616,0.2857142857142857,0.8571428571428571,0.0004
773,1.0225251913070679,1.5941346883773804,0.5384615384615384,0.9615384615384616,0.21428571428571427,0.8571428571428571,0.0004
774,1.070547193288803,1.3495351076126099,0.5384615384615384,0.9423076923076923,0.2857142857142857,0.9285714285714286,0.0004
775,1.1010671854019165,1.6408789157867432,0.5192307692307693,0.9423076923076923,0.21428571428571427,0.8571428571428571,0.0004
776,1.219266951084137,1.7932615280151367,0.5,0.9230769230769231,0.21428571428571427,0.7857142857142857,0.0004
777,1.1182212233543396,1.609819769859314,0.5192307692307693,0.8846153846153846,0.21428571428571427,0.8571428571428571,0.0004
778,1.1943261623382568,1.831881046295166,0.5192307692307693,0.9230769230769231,0.2857142857142857,0.7857142857142857,0.0004
779,0.8987742066383362,1.5311672687530518,0.5576923076923077,0.9807692307692307,0.42857142857142855,0.8571428571428571,0.0004
780,1.1638350784778595,1.7322635650634766,0.5384615384615384,0.9038461538461539,0.35714285714285715,0.8571428571428571,0.0004
781,0.9419555068016052,1.299157977104187,0.6923076923076923,0.9615384615384616,0.5,0.8571428571428571,0.0004
782,1.0067667365074158,2.104560375213623,0.5769230769230769,0.9615384615384616,0.35714285714285715,0.7857142857142857,0.0004
783,1.0313577353954315,1.1963777542114258,0.5769230769230769,0.9230769230769231,0.5714285714285714,0.9285714285714286,0.0004
784,1.0374742448329926,1.3283565044403076,0.5576923076923077,0.9423076923076923,0.42857142857142855,0.9285714285714286,0.0004
785,1.1541945338249207,1.6204688549041748,0.5576923076923077,0.9230769230769231,0.35714285714285715,0.8571428571428571,0.0004
786,1.054039180278778,1.7691690921783447,0.5769230769230769,0.9615384615384616,0.35714285714285715,0.7857142857142857,0.0004
787,1.2197694778442383,1.6432642936706543,0.5192307692307693,0.9230769230769231,0.5,0.7857142857142857,0.0004
788,1.123734474182129,1.5523707866668701,0.5384615384615384,0.9230769230769231,0.42857142857142855,0.8571428571428571,0.0004
789,1.133675456047058,1.819521188735962,0.5961538461538461,0.9423076923076923,0.2857142857142857,0.7857142857142857,0.0004
790,1.0600159764289856,1.6017405986785889,0.5961538461538461,0.9423076923076923,0.35714285714285715,0.7857142857142857,0.0004
791,1.1958028674125671,1.6801773309707642,0.5576923076923077,0.9423076923076923,0.5714285714285714,0.7857142857142857,0.0004
792,1.080554187297821,1.3459675312042236,0.5576923076923077,0.9230769230769231,0.42857142857142855,0.9285714285714286,0.0004
793,1.0256262421607971,1.765113353729248,0.5192307692307693,0.9615384615384616,0.35714285714285715,0.7857142857142857,0.0004
794,1.0940588116645813,1.2253762483596802,0.5961538461538461,0.9230769230769231,0.35714285714285715,0.9285714285714286,0.0004
795,1.0170624554157257,1.2796454429626465,0.5961538461538461,0.9615384615384616,0.5714285714285714,0.8571428571428571,0.0004
796,1.139039158821106,1.7369425296783447,0.5576923076923077,0.9423076923076923,0.35714285714285715,0.7857142857142857,0.0004
797,0.9570577442646027,1.5125205516815186,0.6153846153846154,0.9615384615384616,0.35714285714285715,0.8571428571428571,0.0004
798,0.9089433550834656,1.2521456480026245,0.6153846153846154,0.9807692307692307,0.5,0.9285714285714286,0.0004
799,0.9198534786701202,1.2103612422943115,0.6538461538461539,0.9807692307692307,0.42857142857142855,0.9285714285714286,0.0004
800,1.133196473121643,1.4450957775115967,0.5576923076923077,0.9038461538461539,0.35714285714285715,0.8571428571428571,0.0004
801,0.9326328337192535,1.2898681163787842,0.5576923076923077,0.9807692307692307,0.42857142857142855,0.9285714285714286,0.0004
802,0.93727046251297,1.735062837600708,0.5961538461538461,0.9807692307692307,0.35714285714285715,0.7857142857142857,0.0004
803,1.0485853850841522,1.5374927520751953,0.5961538461538461,0.9230769230769231,0.35714285714285715,0.8571428571428571,0.0004
804,1.180137038230896,1.6098378896713257,0.5961538461538461,0.9230769230769231,0.2857142857142857,0.8571428571428571,0.0004
805,0.9061511754989624,1.8972375392913818,0.5961538461538461,0.9807692307692307,0.2857142857142857,0.7857142857142857,0.0004
806,0.9056129455566406,1.5905849933624268,0.5769230769230769,0.9807692307692307,0.35714285714285715,0.8571428571428571,0.0004
807,0.9346249103546143,1.694272756576538,0.5576923076923077,0.9423076923076923,0.35714285714285715,0.8571428571428571,0.0004
808,0.904240071773529,1.9393069744110107,0.5961538461538461,0.9807692307692307,0.2857142857142857,0.7857142857142857,0.0004
809,0.8106655478477478,1.5762189626693726,0.6730769230769231,1.0,0.2857142857142857,0.8571428571428571,0.0004
810,1.3111863732337952,1.4142403602600098,0.5,0.8846153846153846,0.42857142857142855,0.9285714285714286,0.0004
811,1.1641612648963928,1.2289860248565674,0.6153846153846154,0.9230769230769231,0.42857142857142855,0.9285714285714286,0.0004
812,0.9420899152755737,1.8575348854064941,0.5961538461538461,0.9615384615384616,0.42857142857142855,0.7857142857142857,0.0004
813,0.8936740458011627,1.4879180192947388,0.5961538461538461,0.9807692307692307,0.42857142857142855,0.8571428571428571,0.0004
814,1.031370460987091,1.543177604675293,0.5192307692307693,0.9230769230769231,0.42857142857142855,0.8571428571428571,0.0004
815,1.034652590751648,1.4388201236724854,0.6153846153846154,0.9423076923076923,0.5714285714285714,0.8571428571428571,0.0004
816,1.3517643809318542,1.8294028043746948,0.5,0.9230769230769231,0.2857142857142857,0.7857142857142857,0.0004
817,0.956611841917038,1.3473670482635498,0.6346153846153846,0.9807692307692307,0.42857142857142855,0.9285714285714286,0.0004
818,1.1706006526947021,1.46462082862854,0.46153846153846156,0.9423076923076923,0.5,0.8571428571428571,0.0004
819,1.0877697467803955,1.8246805667877197,0.5,0.9230769230769231,0.42857142857142855,0.7857142857142857,0.0004
820,0.8594244718551636,1.6354368925094604,0.5576923076923077,1.0,0.14285714285714285,0.8571428571428571,0.0004
821,1.103355586528778,1.3952840566635132,0.5,0.9230769230769231,0.35714285714285715,0.8571428571428571,0.0004
822,1.0248759388923645,1.7349790334701538,0.6730769230769231,0.9615384615384616,0.21428571428571427,0.8571428571428571,0.0004
823,1.0341221690177917,1.1500027179718018,0.6346153846153846,0.9423076923076923,0.6428571428571429,0.9285714285714286,0.0004
824,0.9191114604473114,1.347316026687622,0.5769230769230769,0.9423076923076923,0.5,0.9285714285714286,0.0004
825,0.9814101755619049,1.33921217918396,0.6538461538461539,0.9230769230769231,0.5,0.9285714285714286,0.0004
826,1.0508211851119995,1.1915719509124756,0.6153846153846154,0.9230769230769231,0.5,0.9285714285714286,0.0004
827,1.0356294512748718,1.3676129579544067,0.5576923076923077,0.9230769230769231,0.5,0.8571428571428571,0.0004
828,1.003122091293335,1.9167308807373047,0.5576923076923077,0.9423076923076923,0.42857142857142855,0.7857142857142857,0.0004
829,1.2046844363212585,1.2125781774520874,0.6153846153846154,0.9423076923076923,0.5714285714285714,0.8571428571428571,0.0004
830,1.1960598230361938,1.5562891960144043,0.5769230769230769,0.8846153846153846,0.5,0.8571428571428571,0.0004
831,1.1981638371944427,1.4504361152648926,0.5384615384615384,0.9423076923076923,0.5,0.7857142857142857,0.0004
832,0.9421631693840027,1.3694655895233154,0.5961538461538461,0.9615384615384616,0.42857142857142855,0.8571428571428571,0.0004
833,1.0121186673641205,1.3962469100952148,0.5961538461538461,0.9230769230769231,0.5714285714285714,0.8571428571428571,0.0004
834,0.9633004069328308,1.4147708415985107,0.5576923076923077,0.9615384615384616,0.42857142857142855,0.8571428571428571,0.0004
835,0.9573019444942474,2.006016731262207,0.5961538461538461,0.9615384615384616,0.35714285714285715,0.6428571428571429,0.0004
836,1.1740496754646301,1.597888708114624,0.5,0.9423076923076923,0.35714285714285715,0.7142857142857143,0.0004
837,1.2031834423542023,1.6247236728668213,0.5,0.9038461538461539,0.2857142857142857,0.8571428571428571,0.0004
838,1.2323697805404663,1.3891019821166992,0.4807692307692308,0.9230769230769231,0.2857142857142857,0.8571428571428571,0.0004
839,1.0866724252700806,1.3682749271392822,0.5576923076923077,0.9615384615384616,0.42857142857142855,0.9285714285714286,0.0004
840,1.1106728911399841,1.4963222742080688,0.5,0.9423076923076923,0.2857142857142857,0.7857142857142857,0.0004
841,1.1553776860237122,1.4608968496322632,0.5576923076923077,0.9423076923076923,0.5,0.7142857142857143,0.0004
842,1.1946710348129272,1.6162526607513428,0.5961538461538461,0.9230769230769231,0.42857142857142855,0.7857142857142857,0.0004
843,1.0775374174118042,1.2284899950027466,0.5769230769230769,0.9615384615384616,0.35714285714285715,0.9285714285714286,0.0004
844,1.2202256917953491,1.3869802951812744,0.5384615384615384,0.9230769230769231,0.42857142857142855,0.8571428571428571,0.0004
845,1.0769944190979004,1.2075536251068115,0.5769230769230769,0.9615384615384616,0.42857142857142855,0.9285714285714286,0.0004
846,1.2019960284233093,1.2875252962112427,0.5576923076923077,0.9423076923076923,0.5,0.8571428571428571,0.0004
847,1.2539708018302917,1.2471425533294678,0.5769230769230769,0.9230769230769231,0.42857142857142855,0.8571428571428571,0.0004
848,1.0538126528263092,1.3743582963943481,0.6153846153846154,0.9423076923076923,0.5,0.8571428571428571,0.0004
849,1.127791702747345,1.4939831495285034,0.5769230769230769,0.9423076923076923,0.42857142857142855,0.8571428571428571,0.0004
850,1.2264546751976013,1.4784413576126099,0.4807692307692308,0.9230769230769231,0.35714285714285715,0.9285714285714286,0.0004
851,0.9756818115711212,1.5184216499328613,0.6346153846153846,0.9615384615384616,0.5,0.7857142857142857,0.0004
852,1.0457391738891602,1.216107964515686,0.6730769230769231,0.9230769230769231,0.5,0.9285714285714286,0.0004
853,0.9322437644004822,1.1882647275924683,0.5769230769230769,0.9807692307692307,0.5,0.9285714285714286,0.0004
854,1.123086154460907,1.4577442407608032,0.6730769230769231,0.9423076923076923,0.42857142857142855,0.8571428571428571,0.0004
855,1.136751651763916,1.520184874534607,0.5769230769230769,0.9038461538461539,0.42857142857142855,0.8571428571428571,0.0004
856,0.9695594906806946,1.4584851264953613,0.5576923076923077,0.9423076923076923,0.35714285714285715,0.8571428571428571,0.0004
857,1.1210371255874634,1.227433204650879,0.5384615384615384,0.9230769230769231,0.35714285714285715,0.9285714285714286,0.0004
858,1.2058743834495544,1.7422492504119873,0.5384615384615384,0.9230769230769231,0.5,0.7857142857142857,0.0004
859,1.1572005152702332,1.3473389148712158,0.5961538461538461,0.9423076923076923,0.35714285714285715,0.8571428571428571,0.0004
860,1.1856139302253723,1.4463770389556885,0.5192307692307693,0.9038461538461539,0.5,0.8571428571428571,0.0004
861,1.0286328196525574,1.6177144050598145,0.6153846153846154,0.9423076923076923,0.5,0.8571428571428571,0.0004
862,1.0714654922485352,1.5768524408340454,0.5769230769230769,0.9423076923076923,0.6428571428571429,0.8571428571428571,0.0004
863,1.112784504890442,1.415673017501831,0.6538461538461539,0.9038461538461539,0.5,0.8571428571428571,0.0004
864,1.3314675092697144,1.6597716808319092,0.6538461538461539,0.8269230769230769,0.35714285714285715,0.8571428571428571,0.0004
865,1.2801198959350586,1.4700411558151245,0.6346153846153846,0.8269230769230769,0.35714285714285715,0.8571428571428571,0.0004
866,1.4651132822036743,1.4429376125335693,0.5769230769230769,0.8269230769230769,0.5714285714285714,0.8571428571428571,0.0004
867,1.3536894917488098,1.6370713710784912,0.5576923076923077,0.8269230769230769,0.5,0.8571428571428571,0.0004
868,1.2506101727485657,1.676506519317627,0.6538461538461539,0.8269230769230769,0.35714285714285715,0.8571428571428571,0.0004
869,1.4085421562194824,1.3352503776550293,0.6153846153846154,0.8269230769230769,0.5714285714285714,0.8571428571428571,0.0004
870,1.3524446487426758,1.3532792329788208,0.5576923076923077,0.8269230769230769,0.42857142857142855,0.8571428571428571,0.0004
871,1.2174059748649597,1.7238404750823975,0.6346153846153846,0.8269230769230769,0.35714285714285715,0.8571428571428571,0.0004
872,1.3128350973129272,1.5310094356536865,0.5961538461538461,0.8269230769230769,0.42857142857142855,0.8571428571428571,0.0004
873,1.3095544576644897,1.2233784198760986,0.5769230769230769,0.8269230769230769,0.5714285714285714,0.8571428571428571,0.0004
874,1.3081740736961365,1.6795085668563843,0.5961538461538461,0.8269230769230769,0.35714285714285715,0.8571428571428571,0.0004
875,1.316239595413208,1.5661051273345947,0.5769230769230769,0.8269230769230769,0.35714285714285715,0.8571428571428571,0.0004
876,1.028187334537506,1.536625862121582,0.6730769230769231,0.8269230769230769,0.21428571428571427,0.8571428571428571,0.0004
877,1.0502514243125916,1.3331236839294434,0.6153846153846154,0.8461538461538461,0.42857142857142855,0.8571428571428571,0.0004
878,1.0803444981575012,1.730936884880066,0.6153846153846154,0.9038461538461539,0.35714285714285715,0.7857142857142857,0.0004
879,1.223733901977539,1.5571467876434326,0.6153846153846154,0.8846153846153846,0.35714285714285715,0.8571428571428571,0.0004
880,1.0609528422355652,1.6066734790802002,0.6346153846153846,0.9615384615384616,0.21428571428571427,0.8571428571428571,0.0004
881,1.164192795753479,1.5594475269317627,0.5961538461538461,0.9230769230769231,0.35714285714285715,0.7857142857142857,0.0004
882,1.2271501421928406,1.42777419090271,0.5576923076923077,0.9230769230769231,0.42857142857142855,0.8571428571428571,0.0004
883,1.2272303700447083,1.565173864364624,0.5576923076923077,0.9230769230769231,0.42857142857142855,0.8571428571428571,0.0004
884,1.2504540085792542,1.2989377975463867,0.5384615384615384,0.9038461538461539,0.5714285714285714,0.8571428571428571,0.0004
885,1.1560304760932922,1.4281001091003418,0.5961538461538461,0.9423076923076923,0.42857142857142855,0.8571428571428571,0.0004
886,1.159745454788208,1.7265304327011108,0.6153846153846154,0.9423076923076923,0.42857142857142855,0.8571428571428571,0.0004
887,1.191759705543518,1.2631022930145264,0.6153846153846154,0.9038461538461539,0.5714285714285714,0.9285714285714286,0.0004
888,1.2190023064613342,1.2771124839782715,0.5384615384615384,0.9423076923076923,0.42857142857142855,0.8571428571428571,0.0004
889,1.0945315957069397,1.4011120796203613,0.6538461538461539,0.9230769230769231,0.5714285714285714,0.7857142857142857,0.0004
890,1.1426950991153717,1.5049235820770264,0.5576923076923077,0.8846153846153846,0.35714285714285715,0.7857142857142857,0.0004
891,1.0480653047561646,1.3554058074951172,0.5384615384615384,0.9423076923076923,0.35714285714285715,0.8571428571428571,0.0004
892,1.1949193477630615,1.448909044265747,0.5,0.9230769230769231,0.2857142857142857,0.7857142857142857,0.0004
893,1.125009000301361,1.5792280435562134,0.5769230769230769,0.9038461538461539,0.14285714285714285,0.8571428571428571,0.0004
894,1.0157628655433655,1.3988404273986816,0.5,1.0,0.35714285714285715,0.7857142857142857,0.0004
895,1.0191953778266907,1.71007239818573,0.6346153846153846,0.9230769230769231,0.2857142857142857,0.8571428571428571,0.0004
896,1.168225646018982,1.6335819959640503,0.46153846153846156,0.9038461538461539,0.21428571428571427,0.7857142857142857,0.0004
897,1.000551164150238,2.1966142654418945,0.5576923076923077,0.9615384615384616,0.42857142857142855,0.6428571428571429,0.0004
898,1.049185425043106,1.9412407875061035,0.5769230769230769,0.9615384615384616,0.2857142857142857,0.7857142857142857,0.0004
899,1.0375400483608246,1.6116052865982056,0.5769230769230769,0.9423076923076923,0.35714285714285715,0.7857142857142857,0.0004
900,1.2814878225326538,1.1768395900726318,0.5769230769230769,0.8846153846153846,0.7142857142857143,0.8571428571428571,0.0004
901,1.0243821740150452,1.6667757034301758,0.6730769230769231,0.9615384615384616,0.35714285714285715,0.8571428571428571,0.0004
902,1.1373237371444702,1.4003114700317383,0.5769230769230769,0.9615384615384616,0.6428571428571429,0.8571428571428571,0.0004
903,1.2633625864982605,1.616024374961853,0.5961538461538461,0.9038461538461539,0.42857142857142855,0.7857142857142857,0.0004
904,1.0785812735557556,1.2422666549682617,0.6346153846153846,0.9423076923076923,0.5714285714285714,0.8571428571428571,0.0004
905,1.1813021898269653,1.593984603881836,0.6923076923076923,0.9038461538461539,0.5,0.8571428571428571,0.0004
906,1.0421618819236755,1.4106212854385376,0.6153846153846154,0.9615384615384616,0.5,0.7857142857142857,0.0004
907,1.00142702460289,1.3994684219360352,0.6730769230769231,0.9615384615384616,0.5,0.9285714285714286,0.0004
908,1.0129616558551788,1.2898452281951904,0.5769230769230769,0.9615384615384616,0.5,0.8571428571428571,0.0004
909,1.0974450707435608,1.339617133140564,0.5,0.9615384615384616,0.5,0.9285714285714286,0.0004
910,1.0582544803619385,1.7353248596191406,0.5384615384615384,0.9230769230769231,0.2857142857142857,0.7857142857142857,0.0004
911,0.9577751755714417,1.3625919818878174,0.5769230769230769,0.9807692307692307,0.42857142857142855,0.9285714285714286,0.0004
912,1.095337986946106,1.3647161722183228,0.5192307692307693,0.9807692307692307,0.5714285714285714,0.8571428571428571,0.0004
913,1.0948843955993652,1.232810616493225,0.5384615384615384,0.9423076923076923,0.42857142857142855,0.8571428571428571,0.0004
914,1.0997496843338013,1.3433122634887695,0.46153846153846156,0.9615384615384616,0.5,0.9285714285714286,0.0004
915,1.257901668548584,1.5551049709320068,0.4423076923076923,0.8461538461538461,0.21428571428571427,0.9285714285714286,0.0004
916,1.0032193958759308,1.2731552124023438,0.4423076923076923,0.9807692307692307,0.5,0.9285714285714286,0.0004
917,1.0434280633926392,1.6242897510528564,0.5384615384615384,0.9615384615384616,0.2857142857142857,0.7857142857142857,0.0004
918,1.2088060975074768,1.7516379356384277,0.4807692307692308,0.9615384615384616,0.35714285714285715,0.7857142857142857,0.0004
919,1.0532591044902802,1.2778316736221313,0.5769230769230769,0.9038461538461539,0.42857142857142855,0.9285714285714286,0.0004
920,1.1157552599906921,1.3845785856246948,0.5,0.9230769230769231,0.2857142857142857,0.8571428571428571,0.0004
921,1.0192931294441223,1.4124951362609863,0.5576923076923077,0.9423076923076923,0.35714285714285715,0.9285714285714286,0.0004
922,1.1197195649147034,1.3985341787338257,0.4807692307692308,0.9615384615384616,0.5,0.8571428571428571,0.0004
923,1.047585278749466,1.8507959842681885,0.5769230769230769,0.9230769230769231,0.07142857142857142,0.8571428571428571,0.0004
924,0.9564881026744843,2.1454038619995117,0.6346153846153846,0.9423076923076923,0.2857142857142857,0.7857142857142857,0.0004
925,1.003304272890091,1.3821499347686768,0.5961538461538461,0.9038461538461539,0.2857142857142857,0.9285714285714286,0.0004
926,1.0664666891098022,1.2755545377731323,0.5769230769230769,0.9615384615384616,0.5,0.9285714285714286,0.0004
927,1.350117713212967,1.6488070487976074,0.5576923076923077,0.9230769230769231,0.35714285714285715,0.9285714285714286,0.0004
928,1.1330456733703613,1.7451305389404297,0.5576923076923077,0.9038461538461539,0.5,0.7857142857142857,0.0004
929,1.1789244711399078,1.3415124416351318,0.5,0.9615384615384616,0.6428571428571429,0.9285714285714286,0.0004
930,1.205222249031067,1.563212513923645,0.6153846153846154,0.9230769230769231,0.35714285714285715,0.9285714285714286,0.0004
931,1.3110505938529968,1.4806947708129883,0.5384615384615384,0.9038461538461539,0.35714285714285715,0.9285714285714286,0.0004
932,1.2030771672725677,1.8758232593536377,0.5576923076923077,0.9230769230769231,0.42857142857142855,0.7857142857142857,0.0004
933,1.0451319217681885,1.8973119258880615,0.5576923076923077,1.0,0.42857142857142855,0.8571428571428571,0.0004
934,1.0622309446334839,1.717193603515625,0.6730769230769231,0.9615384615384616,0.35714285714285715,0.8571428571428571,0.0004
935,1.102820098400116,1.6408274173736572,0.5384615384615384,0.9038461538461539,0.2857142857142857,0.7857142857142857,0.0004
936,1.0606645047664642,1.8615968227386475,0.5769230769230769,0.9230769230769231,0.2857142857142857,0.8571428571428571,0.0004
937,1.0587237477302551,1.6532536745071411,0.5,0.9615384615384616,0.42857142857142855,0.8571428571428571,0.0004
938,1.1385776698589325,1.5382555723190308,0.5,0.9423076923076923,0.35714285714285715,0.8571428571428571,0.0004
939,1.1359158754348755,1.9613107442855835,0.5384615384615384,0.9423076923076923,0.14285714285714285,0.8571428571428571,0.0004
940,1.3626558780670166,1.9852931499481201,0.4423076923076923,0.8653846153846154,0.35714285714285715,0.8571428571428571,0.0004
941,1.2025317549705505,1.8327949047088623,0.5192307692307693,0.9038461538461539,0.21428571428571427,0.8571428571428571,0.0004
942,1.2436521649360657,1.6288373470306396,0.5,0.9615384615384616,0.35714285714285715,0.8571428571428571,0.0004
943,1.0423178374767303,1.5679935216903687,0.5384615384615384,0.9615384615384616,0.42857142857142855,0.9285714285714286,0.0004
944,1.1219029426574707,1.6877098083496094,0.5192307692307693,0.9230769230769231,0.2857142857142857,0.8571428571428571,0.0004
945,1.2200097441673279,1.966038465499878,0.4807692307692308,0.9230769230769231,0.2857142857142857,0.8571428571428571,0.0004
946,1.2431348860263824,1.4811404943466187,0.5,0.9038461538461539,0.35714285714285715,0.9285714285714286,0.0004
947,1.135009229183197,1.4655609130859375,0.5,0.9423076923076923,0.2857142857142857,0.9285714285714286,0.0004
948,1.1552824974060059,1.7134065628051758,0.4423076923076923,0.9230769230769231,0.42857142857142855,0.8571428571428571,0.0004
949,1.0718575716018677,1.5986011028289795,0.5576923076923077,0.9615384615384616,0.2857142857142857,0.8571428571428571,0.0004
950,1.1754180788993835,1.8286914825439453,0.5384615384615384,0.9423076923076923,0.35714285714285715,0.8571428571428571,0.0004
951,1.1902035474777222,1.8558217287063599,0.46153846153846156,0.9423076923076923,0.21428571428571427,0.7857142857142857,0.0004
952,1.1824412941932678,1.6016623973846436,0.5576923076923077,0.9423076923076923,0.21428571428571427,0.9285714285714286,0.0004
953,1.2265113592147827,1.6320794820785522,0.5384615384615384,0.9038461538461539,0.2857142857142857,0.8571428571428571,0.0004
954,1.1467925310134888,1.5365900993347168,0.5,0.9230769230769231,0.42857142857142855,0.8571428571428571,0.0004
955,1.2941414713859558,1.2374749183654785,0.5,0.9038461538461539,0.5,0.9285714285714286,0.0004
956,1.2893682718276978,1.6003625392913818,0.4423076923076923,0.8846153846153846,0.2857142857142857,0.8571428571428571,0.0004
957,1.016435593366623,1.7959794998168945,0.5192307692307693,0.9615384615384616,0.21428571428571427,0.7857142857142857,0.0004
958,1.0951935648918152,1.5163486003875732,0.5576923076923077,0.9615384615384616,0.2857142857142857,0.8571428571428571,0.0004
959,1.0911502242088318,1.7969621419906616,0.4807692307692308,0.9615384615384616,0.2857142857142857,0.7857142857142857,0.0004
960,1.1720385551452637,1.7164597511291504,0.40384615384615385,0.9038461538461539,0.2857142857142857,0.7857142857142857,0.0004
961,1.0085939764976501,1.442559003829956,0.5384615384615384,0.9807692307692307,0.35714285714285715,0.8571428571428571,0.0004
962,1.1300192475318909,1.533521056175232,0.40384615384615385,0.9423076923076923,0.21428571428571427,0.8571428571428571,0.0004
963,1.0125898122787476,1.5434569120407104,0.5576923076923077,0.9615384615384616,0.21428571428571427,0.8571428571428571,0.0004
964,1.0155091285705566,1.3900285959243774,0.5769230769230769,0.9615384615384616,0.5,0.9285714285714286,0.0004
965,1.0566930174827576,1.5850330591201782,0.6346153846153846,0.9615384615384616,0.07142857142857142,0.8571428571428571,0.0004
966,1.0443425178527832,1.9116238355636597,0.5576923076923077,0.9807692307692307,0.14285714285714285,0.7857142857142857,0.0004
967,1.2120296359062195,1.4562392234802246,0.5961538461538461,0.9423076923076923,0.21428571428571427,0.9285714285714286,0.0004
968,1.1965188384056091,1.841442584991455,0.46153846153846156,0.9038461538461539,0.2857142857142857,0.8571428571428571,0.0004
969,1.2183074355125427,1.759527325630188,0.5,0.9230769230769231,0.42857142857142855,0.7857142857142857,0.0004
