epoch,train_loss,val_loss,train_acc_action,train_acc_status,val_acc_action,val_acc_status,learning_rate
1,1.7695035338401794,1.7666735649108887,0.3269230769230769,0.8269230769230769,0.35714285714285715,0.8571428571428571,0.0004
2,1.7678467631340027,1.7564159631729126,0.3269230769230769,0.8269230769230769,0.35714285714285715,0.8571428571428571,0.0004
3,1.7555482387542725,1.7585872411727905,0.3269230769230769,0.8076923076923077,0.35714285714285715,0.8571428571428571,0.0004
4,1.7463433742523193,1.751204252243042,0.3269230769230769,0.8269230769230769,0.35714285714285715,0.8571428571428571,0.0004
5,1.7470818758010864,1.7533066272735596,0.3269230769230769,0.8269230769230769,0.35714285714285715,0.8571428571428571,0.0004
6,1.736594796180725,1.7443063259124756,0.3269230769230769,0.8269230769230769,0.35714285714285715,0.8571428571428571,0.0004
7,1.7445572018623352,1.7437267303466797,0.3076923076923077,0.8269230769230769,0.35714285714285715,0.8571428571428571,0.0004
8,1.7339114546775818,1.734020709991455,0.3269230769230769,0.8269230769230769,0.35714285714285715,0.8571428571428571,0.0004
9,1.7422280311584473,1.7330098152160645,0.3269230769230769,0.8269230769230769,0.35714285714285715,0.8571428571428571,0.0004
10,1.7327670454978943,1.7241865396499634,0.3269230769230769,0.8269230769230769,0.35714285714285715,0.8571428571428571,0.0004
11,1.7172181606292725,1.7157034873962402,0.3269230769230769,0.8269230769230769,0.35714285714285715,0.8571428571428571,0.0004
12,1.721948266029358,1.712190866470337,0.3269230769230769,0.8269230769230769,0.35714285714285715,0.8571428571428571,0.0004
13,1.7083091735839844,1.7008414268493652,0.3269230769230769,0.8269230769230769,0.35714285714285715,0.8571428571428571,0.0004
14,1.7163819074630737,1.6884998083114624,0.3269230769230769,0.8269230769230769,0.35714285714285715,0.8571428571428571,0.0004
15,1.6890202760696411,1.680367112159729,0.3269230769230769,0.8269230769230769,0.35714285714285715,0.8571428571428571,0.0004
16,1.6873586773872375,1.6568796634674072,0.3269230769230769,0.8269230769230769,0.35714285714285715,0.8571428571428571,0.0004
17,1.6910452246665955,1.6216204166412354,0.3076923076923077,0.8269230769230769,0.35714285714285715,0.8571428571428571,0.0004
18,1.6949743628501892,1.6008678674697876,0.34615384615384615,0.8269230769230769,0.35714285714285715,0.8571428571428571,0.0004
19,1.6524652242660522,1.5566861629486084,0.34615384615384615,0.8269230769230769,0.35714285714285715,0.8571428571428571,0.0004
20,1.5913920998573303,1.5345540046691895,0.3076923076923077,0.8269230769230769,0.35714285714285715,0.8571428571428571,0.0004
21,1.6306571960449219,1.529891848564148,0.25,0.8269230769230769,0.35714285714285715,0.8571428571428571,0.0004
22,1.603668451309204,1.520151972770691,0.28846153846153844,0.8269230769230769,0.35714285714285715,0.8571428571428571,0.0004
23,1.564570426940918,1.5251095294952393,0.40384615384615385,0.8269230769230769,0.35714285714285715,0.8571428571428571,0.0004
24,1.6086538434028625,1.5295943021774292,0.25,0.8269230769230769,0.35714285714285715,0.8571428571428571,0.0004
25,1.5890750885009766,1.5267627239227295,0.2692307692307692,0.8269230769230769,0.35714285714285715,0.8571428571428571,0.0004
26,1.616934359073639,1.5327999591827393,0.2692307692307692,0.8269230769230769,0.35714285714285715,0.8571428571428571,0.0004
27,1.5268214344978333,1.5428262948989868,0.4423076923076923,0.8269230769230769,0.35714285714285715,0.8571428571428571,0.0004
28,1.6321586966514587,1.5473313331604004,0.28846153846153844,0.8269230769230769,0.21428571428571427,0.8571428571428571,0.0004
29,1.6290467381477356,1.551908016204834,0.3269230769230769,0.8269230769230769,0.21428571428571427,0.8571428571428571,0.0004
30,1.5532639026641846,1.5572381019592285,0.36538461538461536,0.8269230769230769,0.21428571428571427,0.8571428571428571,0.0004
31,1.5977516174316406,1.5590287446975708,0.40384615384615385,0.8269230769230769,0.21428571428571427,0.8571428571428571,0.0004
32,1.5649176239967346,1.541307806968689,0.3269230769230769,0.8269230769230769,0.21428571428571427,0.8571428571428571,0.0004
33,1.5854190587997437,1.5606029033660889,0.3269230769230769,0.8269230769230769,0.21428571428571427,0.8571428571428571,0.0004
34,1.6236112117767334,1.5680327415466309,0.34615384615384615,0.8269230769230769,0.21428571428571427,0.8571428571428571,0.0004
35,1.5923539400100708,1.5661399364471436,0.36538461538461536,0.8269230769230769,0.21428571428571427,0.8571428571428571,0.0004
36,1.6001017689704895,1.5679614543914795,0.34615384615384615,0.8269230769230769,0.21428571428571427,0.8571428571428571,0.0004
37,1.6157523393630981,1.5634055137634277,0.34615384615384615,0.8269230769230769,0.21428571428571427,0.8571428571428571,0.0004
38,1.6321832537651062,1.5633198022842407,0.3269230769230769,0.8269230769230769,0.21428571428571427,0.8571428571428571,0.0004
39,1.5604642033576965,1.5632562637329102,0.4230769230769231,0.8269230769230769,0.21428571428571427,0.8571428571428571,0.0004
40,1.5875190496444702,1.5629016160964966,0.2692307692307692,0.8269230769230769,0.21428571428571427,0.8571428571428571,0.0004
41,1.5936530828475952,1.5554333925247192,0.36538461538461536,0.8269230769230769,0.21428571428571427,0.8571428571428571,0.0004
42,1.6242352724075317,1.5553479194641113,0.36538461538461536,0.8269230769230769,0.21428571428571427,0.8571428571428571,0.0004
43,1.5753983855247498,1.5555005073547363,0.23076923076923078,0.8269230769230769,0.21428571428571427,0.8571428571428571,0.0004
44,1.6671449542045593,1.556823968887329,0.28846153846153844,0.8269230769230769,0.21428571428571427,0.8571428571428571,0.0004
45,1.6198531985282898,1.554410696029663,0.4230769230769231,0.8269230769230769,0.21428571428571427,0.8571428571428571,0.0004
46,1.5596730709075928,1.5531176328659058,0.38461538461538464,0.8269230769230769,0.21428571428571427,0.8571428571428571,0.0004
47,1.6067079901695251,1.555795669555664,0.19230769230769232,0.8269230769230769,0.21428571428571427,0.8571428571428571,0.0004
48,1.641204595565796,1.5569517612457275,0.3269230769230769,0.8269230769230769,0.21428571428571427,0.8571428571428571,0.0004
49,1.5592347979545593,1.5464982986450195,0.34615384615384615,0.8269230769230769,0.21428571428571427,0.8571428571428571,0.0004
50,1.6342684030532837,1.5481078624725342,0.34615384615384615,0.8269230769230769,0.21428571428571427,0.8571428571428571,0.0004
51,1.58612060546875,1.5532011985778809,0.3269230769230769,0.8269230769230769,0.21428571428571427,0.8571428571428571,0.0004
52,1.5955729484558105,1.550262689590454,0.25,0.8269230769230769,0.21428571428571427,0.8571428571428571,0.0004
53,1.5654170513153076,1.5463312864303589,0.4230769230769231,0.8269230769230769,0.14285714285714285,0.8571428571428571,0.0004
54,1.6160725355148315,1.5442578792572021,0.3076923076923077,0.8269230769230769,0.21428571428571427,0.8571428571428571,0.0004
55,1.5982179641723633,1.5427744388580322,0.3269230769230769,0.8269230769230769,0.14285714285714285,0.8571428571428571,0.0004
56,1.586697518825531,1.537523627281189,0.5,0.8269230769230769,0.21428571428571427,0.8571428571428571,0.0004
57,1.545570433139801,1.5345017910003662,0.4230769230769231,0.8269230769230769,0.42857142857142855,0.8571428571428571,0.0004
58,1.6354011297225952,1.5332872867584229,0.38461538461538464,0.8269230769230769,0.5,0.8571428571428571,0.0004
59,1.5534400343894958,1.529242753982544,0.46153846153846156,0.8269230769230769,0.35714285714285715,0.8571428571428571,0.0004
60,1.5568026900291443,1.5310338735580444,0.5384615384615384,0.8269230769230769,0.35714285714285715,0.8571428571428571,0.0004
61,1.6173957586288452,1.5250945091247559,0.34615384615384615,0.8269230769230769,0.35714285714285715,0.8571428571428571,0.0004
62,1.5607830286026,1.5348713397979736,0.38461538461538464,0.8269230769230769,0.35714285714285715,0.8571428571428571,0.0004
63,1.5879781246185303,1.5297200679779053,0.28846153846153844,0.8269230769230769,0.42857142857142855,0.8571428571428571,0.0004
64,1.5419428944587708,1.5278788805007935,0.34615384615384615,0.8269230769230769,0.35714285714285715,0.8571428571428571,0.0004
65,1.5794892311096191,1.529236912727356,0.4230769230769231,0.8269230769230769,0.2857142857142857,0.8571428571428571,0.0004
66,1.5516573786735535,1.5282553434371948,0.4807692307692308,0.8269230769230769,0.2857142857142857,0.8571428571428571,0.0004
67,1.5297789573669434,1.531502366065979,0.3269230769230769,0.8269230769230769,0.14285714285714285,0.8571428571428571,0.0004
68,1.6028302907943726,1.5341609716415405,0.2692307692307692,0.8269230769230769,0.21428571428571427,0.8571428571428571,0.0004
69,1.5104880332946777,1.5321075916290283,0.3269230769230769,0.8269230769230769,0.21428571428571427,0.8571428571428571,0.0004
70,1.595766007900238,1.5251178741455078,0.34615384615384615,0.8269230769230769,0.21428571428571427,0.8571428571428571,0.0004
71,1.5706048011779785,1.532287836074829,0.40384615384615385,0.8269230769230769,0.21428571428571427,0.8571428571428571,0.0004
72,1.5709050297737122,1.5345295667648315,0.28846153846153844,0.8269230769230769,0.21428571428571427,0.8571428571428571,0.0004
73,1.6116337776184082,1.5220061540603638,0.28846153846153844,0.8269230769230769,0.21428571428571427,0.8571428571428571,0.0004
74,1.5548590421676636,1.5393013954162598,0.2692307692307692,0.8269230769230769,0.21428571428571427,0.8571428571428571,0.0004
75,1.5888686180114746,1.5332480669021606,0.2692307692307692,0.8269230769230769,0.21428571428571427,0.8571428571428571,0.0004
76,1.5222737193107605,1.5374882221221924,0.36538461538461536,0.8269230769230769,0.21428571428571427,0.8571428571428571,0.0004
77,1.5650732517242432,1.5351066589355469,0.40384615384615385,0.8269230769230769,0.21428571428571427,0.8571428571428571,0.0004
78,1.5680568218231201,1.5409055948257446,0.3269230769230769,0.8269230769230769,0.21428571428571427,0.8571428571428571,0.0004
79,1.590457797050476,1.5335869789123535,0.34615384615384615,0.8269230769230769,0.21428571428571427,0.8571428571428571,0.0004
80,1.6065616607666016,1.5364270210266113,0.40384615384615385,0.8269230769230769,0.21428571428571427,0.8571428571428571,0.0004
81,1.5858465433120728,1.5378535985946655,0.34615384615384615,0.8269230769230769,0.21428571428571427,0.8571428571428571,0.0004
82,1.486146628856659,1.539088487625122,0.4423076923076923,0.8269230769230769,0.21428571428571427,0.8571428571428571,0.0004
83,1.5619959235191345,1.5348622798919678,0.36538461538461536,0.8269230769230769,0.21428571428571427,0.8571428571428571,0.0004
84,1.5710359811782837,1.5352849960327148,0.3076923076923077,0.8269230769230769,0.21428571428571427,0.8571428571428571,0.0004
85,1.5277626514434814,1.5324506759643555,0.34615384615384615,0.8269230769230769,0.21428571428571427,0.8571428571428571,0.0004
86,1.572248637676239,1.5282524824142456,0.36538461538461536,0.8269230769230769,0.21428571428571427,0.8571428571428571,0.0004
87,1.5927867889404297,1.5243492126464844,0.3269230769230769,0.8269230769230769,0.21428571428571427,0.8571428571428571,0.0004
88,1.617500364780426,1.5240373611450195,0.28846153846153844,0.8269230769230769,0.21428571428571427,0.8571428571428571,0.0004
89,1.530625343322754,1.5395784378051758,0.38461538461538464,0.8269230769230769,0.21428571428571427,0.8571428571428571,0.0004
90,1.5666139721870422,1.5285954475402832,0.28846153846153844,0.8269230769230769,0.21428571428571427,0.8571428571428571,0.0004
91,1.557665228843689,1.531290054321289,0.28846153846153844,0.8269230769230769,0.21428571428571427,0.8571428571428571,0.0004
92,1.5605325102806091,1.5285053253173828,0.4230769230769231,0.8269230769230769,0.21428571428571427,0.8571428571428571,0.0004
93,1.5285327434539795,1.5279192924499512,0.4423076923076923,0.8269230769230769,0.21428571428571427,0.8571428571428571,0.0004
94,1.5499320030212402,1.5281860828399658,0.3269230769230769,0.8269230769230769,0.21428571428571427,0.8571428571428571,0.0004
95,1.5790139436721802,1.5161995887756348,0.40384615384615385,0.8269230769230769,0.21428571428571427,0.8571428571428571,0.0004
96,1.6019115447998047,1.5195820331573486,0.34615384615384615,0.8269230769230769,0.21428571428571427,0.8571428571428571,0.0004
97,1.5623383522033691,1.5277531147003174,0.3076923076923077,0.8269230769230769,0.21428571428571427,0.8571428571428571,0.0004
98,1.5798382759094238,1.5280661582946777,0.36538461538461536,0.8269230769230769,0.21428571428571427,0.8571428571428571,0.0004
99,1.6002976894378662,1.516829490661621,0.2692307692307692,0.8269230769230769,0.21428571428571427,0.8571428571428571,0.0004
100,1.5587323904037476,1.5332695245742798,0.34615384615384615,0.8269230769230769,0.21428571428571427,0.8571428571428571,0.0004
101,1.6111461520195007,1.5220043659210205,0.38461538461538464,0.8269230769230769,0.21428571428571427,0.8571428571428571,0.0004
102,1.5667333006858826,1.5424716472625732,0.5,0.8269230769230769,0.21428571428571427,0.8571428571428571,0.0004
103,1.5923956632614136,1.5277509689331055,0.36538461538461536,0.8269230769230769,0.21428571428571427,0.8571428571428571,0.0004
104,1.5746036171913147,1.5448793172836304,0.28846153846153844,0.8269230769230769,0.21428571428571427,0.8571428571428571,0.0004
105,1.5586553812026978,1.5513389110565186,0.36538461538461536,0.8269230769230769,0.21428571428571427,0.8571428571428571,0.0004
106,1.5533114671707153,1.5479209423065186,0.40384615384615385,0.8269230769230769,0.21428571428571427,0.8571428571428571,0.0004
107,1.5442768931388855,1.5442936420440674,0.2692307692307692,0.8269230769230769,0.21428571428571427,0.8571428571428571,0.0004
108,1.5898098945617676,1.5409725904464722,0.34615384615384615,0.8269230769230769,0.21428571428571427,0.8571428571428571,0.0004
109,1.6047931909561157,1.5402791500091553,0.25,0.8269230769230769,0.21428571428571427,0.8571428571428571,0.0004
110,1.5004990100860596,1.5523778200149536,0.4230769230769231,0.8269230769230769,0.21428571428571427,0.8571428571428571,0.0004
111,1.6127738952636719,1.5603564977645874,0.46153846153846156,0.8269230769230769,0.21428571428571427,0.8571428571428571,0.0004
112,1.615188717842102,1.5197515487670898,0.46153846153846156,0.8269230769230769,0.2857142857142857,0.8571428571428571,0.0004
113,1.5728550553321838,1.5457258224487305,0.36538461538461536,0.8269230769230769,0.21428571428571427,0.8571428571428571,0.0004
114,1.554772138595581,1.5207524299621582,0.40384615384615385,0.8269230769230769,0.21428571428571427,0.8571428571428571,0.0004
115,1.4850912690162659,1.514270305633545,0.5,0.8269230769230769,0.21428571428571427,0.8571428571428571,0.0004
116,1.5379785299301147,1.5511637926101685,0.23076923076923078,0.8269230769230769,0.21428571428571427,0.8571428571428571,0.0004
117,1.5510168075561523,1.5409296751022339,0.40384615384615385,0.8269230769230769,0.21428571428571427,0.8571428571428571,0.0004
118,1.547486424446106,1.517451286315918,0.40384615384615385,0.8269230769230769,0.21428571428571427,0.8571428571428571,0.0004
119,1.602262794971466,1.500380516052246,0.36538461538461536,0.8269230769230769,0.21428571428571427,0.8571428571428571,0.0004
120,1.597299873828888,1.492043375968933,0.34615384615384615,0.8269230769230769,0.21428571428571427,0.8571428571428571,0.0004
121,1.525941789150238,1.5275230407714844,0.3269230769230769,0.8269230769230769,0.21428571428571427,0.8571428571428571,0.0004
122,1.5417237877845764,1.5208112001419067,0.36538461538461536,0.8269230769230769,0.21428571428571427,0.8571428571428571,0.0004
123,1.6223013401031494,1.5107872486114502,0.34615384615384615,0.8269230769230769,0.2857142857142857,0.8571428571428571,0.0004
124,1.601346492767334,1.4542558193206787,0.23076923076923078,0.8269230769230769,0.35714285714285715,0.8571428571428571,0.0004
125,1.5102564692497253,1.5215559005737305,0.4230769230769231,0.8269230769230769,0.2857142857142857,0.8571428571428571,0.0004
126,1.5700274109840393,1.5149726867675781,0.38461538461538464,0.8269230769230769,0.2857142857142857,0.8571428571428571,0.0004
127,1.5975037813186646,1.492020845413208,0.28846153846153844,0.8269230769230769,0.2857142857142857,0.8571428571428571,0.0004
128,1.5324774980545044,1.4693257808685303,0.2692307692307692,0.8269230769230769,0.6428571428571429,0.8571428571428571,0.0004
129,1.4939278960227966,1.4373210668563843,0.38461538461538464,0.8269230769230769,0.35714285714285715,0.8571428571428571,0.0004
130,1.530989646911621,1.4496030807495117,0.28846153846153844,0.8269230769230769,0.5,0.8571428571428571,0.0004
131,1.5003634095191956,1.3559249639511108,0.34615384615384615,0.8269230769230769,0.5,0.8571428571428571,0.0004
132,1.5007957220077515,1.6314352750778198,0.4230769230769231,0.8269230769230769,0.35714285714285715,0.8571428571428571,0.0004
133,1.3966878056526184,1.5657442808151245,0.4423076923076923,0.8269230769230769,0.42857142857142855,0.8571428571428571,0.0004
134,1.4447478652000427,1.3471457958221436,0.36538461538461536,0.8269230769230769,0.42857142857142855,0.8571428571428571,0.0004
135,1.4903407096862793,1.3874645233154297,0.2692307692307692,0.8269230769230769,0.2857142857142857,0.8571428571428571,0.0004
136,1.481336236000061,1.5169751644134521,0.28846153846153844,0.8269230769230769,0.21428571428571427,0.8571428571428571,0.0004
137,1.4684762954711914,1.3654645681381226,0.38461538461538464,0.8269230769230769,0.21428571428571427,0.8571428571428571,0.0004
138,1.5095343589782715,1.4978516101837158,0.3076923076923077,0.8269230769230769,0.21428571428571427,0.8571428571428571,0.0004
139,1.4343973994255066,1.394824504852295,0.34615384615384615,0.8269230769230769,0.21428571428571427,0.8571428571428571,0.0004
140,1.4158405661582947,1.6675000190734863,0.34615384615384615,0.8269230769230769,0.21428571428571427,0.8571428571428571,0.0004
141,1.3968851566314697,1.4336518049240112,0.4230769230769231,0.8269230769230769,0.21428571428571427,0.8571428571428571,0.0004
142,1.7355394959449768,1.4045414924621582,0.3076923076923077,0.8269230769230769,0.21428571428571427,0.8571428571428571,0.0004
143,1.4049263000488281,1.3448264598846436,0.3269230769230769,0.8269230769230769,0.21428571428571427,0.8571428571428571,0.0004
144,1.501602828502655,1.241342306137085,0.34615384615384615,0.8269230769230769,0.21428571428571427,0.8571428571428571,0.0004
145,1.3593875765800476,1.5648552179336548,0.4423076923076923,0.8269230769230769,0.21428571428571427,0.8571428571428571,0.0004
146,1.4490006566047668,1.6550350189208984,0.38461538461538464,0.8269230769230769,0.21428571428571427,0.8571428571428571,0.0004
147,1.4137447476387024,1.547304630279541,0.4423076923076923,0.8269230769230769,0.42857142857142855,0.8571428571428571,0.0004
148,1.3917945623397827,1.3777546882629395,0.4423076923076923,0.8269230769230769,0.5,0.8571428571428571,0.0004
149,1.3876425623893738,1.3775177001953125,0.5192307692307693,0.8269230769230769,0.35714285714285715,0.8571428571428571,0.0004
150,1.4295108318328857,1.4488285779953003,0.36538461538461536,0.8269230769230769,0.42857142857142855,0.8571428571428571,0.0004
151,1.3486053943634033,1.636613368988037,0.4807692307692308,0.8269230769230769,0.2857142857142857,0.8571428571428571,0.0004
152,1.472512662410736,1.3976526260375977,0.4230769230769231,0.8269230769230769,0.42857142857142855,0.8571428571428571,0.0004
153,1.3952499628067017,1.3318755626678467,0.5,0.8269230769230769,0.42857142857142855,0.8571428571428571,0.0004
154,1.408834457397461,1.5041370391845703,0.4230769230769231,0.8269230769230769,0.14285714285714285,0.8571428571428571,0.0004
155,1.4365713596343994,1.3219921588897705,0.4423076923076923,0.8269230769230769,0.5,0.8571428571428571,0.0004
156,1.4528123140335083,1.6025933027267456,0.5,0.8269230769230769,0.35714285714285715,0.8571428571428571,0.0004
157,1.5216328501701355,1.2426234483718872,0.4807692307692308,0.8269230769230769,0.5,0.8571428571428571,0.0004
158,1.3162264227867126,1.5749249458312988,0.5,0.8269230769230769,0.2857142857142857,0.8571428571428571,0.0004
159,1.353515863418579,1.403096079826355,0.6153846153846154,0.8269230769230769,0.42857142857142855,0.8571428571428571,0.0004
160,1.4279784560203552,1.5126034021377563,0.5576923076923077,0.8269230769230769,0.42857142857142855,0.8571428571428571,0.0004
161,1.4262608885765076,1.3284053802490234,0.5192307692307693,0.8269230769230769,0.42857142857142855,0.8571428571428571,0.0004
162,1.4362778663635254,1.2228567600250244,0.5384615384615384,0.8269230769230769,0.6428571428571429,0.8571428571428571,0.0004
163,1.5961931943893433,1.5368638038635254,0.38461538461538464,0.8269230769230769,0.2857142857142857,0.8571428571428571,0.0004
164,1.4332956075668335,1.4339045286178589,0.5,0.8269230769230769,0.42857142857142855,0.8571428571428571,0.0004
165,1.4451409578323364,1.4243767261505127,0.46153846153846156,0.8269230769230769,0.42857142857142855,0.8571428571428571,0.0004
166,1.4060392379760742,1.4393049478530884,0.5192307692307693,0.8269230769230769,0.2857142857142857,0.8571428571428571,0.0004
167,1.3352763056755066,1.7697322368621826,0.5192307692307693,0.8269230769230769,0.21428571428571427,0.8571428571428571,0.0004
168,1.4835602045059204,1.3763666152954102,0.5576923076923077,0.8269230769230769,0.35714285714285715,0.8571428571428571,0.0004
169,1.2732789516448975,1.3673505783081055,0.5769230769230769,0.8269230769230769,0.35714285714285715,0.8571428571428571,0.0004
170,1.3930617570877075,1.4172306060791016,0.4807692307692308,0.8269230769230769,0.5,0.8571428571428571,0.0004
171,1.3382867574691772,1.5011863708496094,0.5192307692307693,0.8269230769230769,0.42857142857142855,0.8571428571428571,0.0004
172,1.3780750632286072,1.2847399711608887,0.5384615384615384,0.8269230769230769,0.5,0.8571428571428571,0.0004
173,1.375833511352539,1.5836255550384521,0.5,0.8269230769230769,0.42857142857142855,0.8571428571428571,0.0004
174,1.5004985928535461,1.484677791595459,0.46153846153846156,0.8269230769230769,0.35714285714285715,0.8571428571428571,0.0004
175,1.405269742012024,1.6466330289840698,0.5192307692307693,0.8269230769230769,0.42857142857142855,0.8571428571428571,0.0004
176,1.529106318950653,1.5967559814453125,0.5192307692307693,0.8269230769230769,0.35714285714285715,0.8571428571428571,0.0004
177,1.3941259980201721,1.5028877258300781,0.5,0.8269230769230769,0.2857142857142857,0.8571428571428571,0.0004
178,1.3523317575454712,1.3521971702575684,0.5576923076923077,0.8269230769230769,0.2857142857142857,0.8571428571428571,0.0004
179,1.379613220691681,1.1738101243972778,0.5384615384615384,0.8269230769230769,0.6428571428571429,0.8571428571428571,0.0004
180,1.3572845458984375,1.422447681427002,0.5192307692307693,0.8269230769230769,0.35714285714285715,0.8571428571428571,0.0004
181,1.3132464289665222,1.5241825580596924,0.5769230769230769,0.8269230769230769,0.42857142857142855,0.8571428571428571,0.0004
182,1.3646304607391357,1.491833209991455,0.5961538461538461,0.8269230769230769,0.5,0.8571428571428571,0.0004
183,1.2918699383735657,1.2619657516479492,0.5769230769230769,0.8269230769230769,0.5714285714285714,0.8571428571428571,0.0004
184,1.3706642389297485,1.2410318851470947,0.5192307692307693,0.8269230769230769,0.7142857142857143,0.8571428571428571,0.0004
185,1.3733294606208801,1.4117653369903564,0.5384615384615384,0.8269230769230769,0.5714285714285714,0.8571428571428571,0.0004
186,1.6231101751327515,1.1432522535324097,0.4230769230769231,0.8269230769230769,0.7142857142857143,0.8571428571428571,0.0004
187,1.4115694165229797,1.2106847763061523,0.5,0.8269230769230769,0.7142857142857143,0.8571428571428571,0.0004
188,1.2926414012908936,1.6340152025222778,0.6346153846153846,0.8269230769230769,0.42857142857142855,0.8571428571428571,0.0004
189,1.406551480293274,1.4142348766326904,0.5,0.8269230769230769,0.42857142857142855,0.8571428571428571,0.0004
190,1.3743395805358887,1.5695266723632812,0.5961538461538461,0.8269230769230769,0.42857142857142855,0.8571428571428571,0.0004
191,1.4009602069854736,1.2646147012710571,0.46153846153846156,0.8269230769230769,0.42857142857142855,0.8571428571428571,0.0004
192,1.3553735613822937,1.2074577808380127,0.46153846153846156,0.8269230769230769,0.5,0.8571428571428571,0.0004
193,1.2626093626022339,1.5049289464950562,0.5576923076923077,0.8269230769230769,0.42857142857142855,0.8571428571428571,0.0004
194,1.5248092412948608,1.7587342262268066,0.4807692307692308,0.8269230769230769,0.2857142857142857,0.8571428571428571,0.0004
195,1.4734621047973633,1.5850419998168945,0.5769230769230769,0.8269230769230769,0.2857142857142857,0.8571428571428571,0.0004
196,1.4060695171356201,1.8018380403518677,0.5,0.8269230769230769,0.21428571428571427,0.8571428571428571,0.0004
197,1.9569339752197266,1.7677104473114014,0.40384615384615385,0.8269230769230769,0.21428571428571427,0.8571428571428571,0.0004
198,1.816815972328186,1.7129991054534912,0.40384615384615385,0.8269230769230769,0.21428571428571427,0.8571428571428571,0.0004
199,1.7061124444007874,1.6509456634521484,0.4423076923076923,0.8269230769230769,0.21428571428571427,0.8571428571428571,0.0004
200,1.6689926385879517,1.6156823635101318,0.38461538461538464,0.8269230769230769,0.21428571428571427,0.8571428571428571,0.0004
201,1.6609023809432983,1.5593167543411255,0.34615384615384615,0.8269230769230769,0.21428571428571427,0.8571428571428571,0.0004
202,1.6267207860946655,1.5480985641479492,0.46153846153846156,0.8269230769230769,0.21428571428571427,0.8571428571428571,0.0004
203,1.5443702936172485,1.5559980869293213,0.34615384615384615,0.8269230769230769,0.21428571428571427,0.8571428571428571,0.0004
204,1.4987651109695435,1.559122920036316,0.40384615384615385,0.8269230769230769,0.21428571428571427,0.8571428571428571,0.0004
205,1.5873401761054993,1.5578829050064087,0.38461538461538464,0.8269230769230769,0.21428571428571427,0.8571428571428571,0.0004
206,1.5942493677139282,1.5476269721984863,0.3269230769230769,0.8269230769230769,0.21428571428571427,0.8571428571428571,0.0004
207,1.6359248161315918,1.5639839172363281,0.36538461538461536,0.8269230769230769,0.21428571428571427,0.8571428571428571,0.0004
208,1.5860264301300049,1.5527012348175049,0.4230769230769231,0.8269230769230769,0.2857142857142857,0.8571428571428571,0.0004
209,1.6094253659248352,1.5811936855316162,0.3076923076923077,0.8269230769230769,0.2857142857142857,0.8571428571428571,0.0004
210,1.601528286933899,1.595577597618103,0.23076923076923078,0.8269230769230769,0.35714285714285715,0.8571428571428571,0.0004
211,1.583727478981018,1.5686445236206055,0.3269230769230769,0.8269230769230769,0.35714285714285715,0.8571428571428571,0.0004
212,1.557632029056549,1.5718454122543335,0.34615384615384615,0.8269230769230769,0.35714285714285715,0.8571428571428571,0.0004
213,1.5793718695640564,1.5460374355316162,0.28846153846153844,0.8269230769230769,0.35714285714285715,0.8571428571428571,0.0004
214,1.5949259996414185,1.5573270320892334,0.36538461538461536,0.8269230769230769,0.35714285714285715,0.8571428571428571,0.0004
215,1.54440176486969,1.5393801927566528,0.38461538461538464,0.8269230769230769,0.35714285714285715,0.8571428571428571,0.0004
216,1.5408875346183777,1.5248565673828125,0.40384615384615385,0.8269230769230769,0.35714285714285715,0.8571428571428571,0.0004
217,1.610058844089508,1.5342843532562256,0.36538461538461536,0.8269230769230769,0.35714285714285715,0.8571428571428571,0.0004
218,1.5595932006835938,1.5229909420013428,0.3076923076923077,0.8269230769230769,0.35714285714285715,0.8571428571428571,0.0004
219,1.6194325685501099,1.5288313627243042,0.3269230769230769,0.8269230769230769,0.35714285714285715,0.8571428571428571,0.0004
220,1.579462468624115,1.5346684455871582,0.28846153846153844,0.8269230769230769,0.35714285714285715,0.8571428571428571,0.0004
221,1.531567633152008,1.4816919565200806,0.34615384615384615,0.8269230769230769,0.42857142857142855,0.8571428571428571,0.0004
222,1.5362639427185059,1.5047123432159424,0.28846153846153844,0.8269230769230769,0.35714285714285715,0.8571428571428571,0.0004
223,1.5891072154045105,1.5157240629196167,0.3269230769230769,0.8269230769230769,0.35714285714285715,0.8571428571428571,0.0004
224,1.5452635884284973,1.52284574508667,0.28846153846153844,0.8269230769230769,0.35714285714285715,0.8571428571428571,0.0004
225,1.5562506914138794,1.5354548692703247,0.3269230769230769,0.8269230769230769,0.35714285714285715,0.8571428571428571,0.0004
226,1.579397439956665,1.5142743587493896,0.4230769230769231,0.8269230769230769,0.35714285714285715,0.8571428571428571,0.0004
227,1.5430176854133606,1.51876699924469,0.3269230769230769,0.8269230769230769,0.35714285714285715,0.8571428571428571,0.0004
228,1.5376758575439453,1.5372586250305176,0.3076923076923077,0.8269230769230769,0.35714285714285715,0.8571428571428571,0.0004
229,1.60914808511734,1.5305501222610474,0.34615384615384615,0.8269230769230769,0.21428571428571427,0.8571428571428571,0.0004
230,1.5366088151931763,1.5364930629730225,0.40384615384615385,0.8269230769230769,0.21428571428571427,0.8571428571428571,0.0004
231,1.6146423816680908,1.5463253259658813,0.34615384615384615,0.8269230769230769,0.21428571428571427,0.8571428571428571,0.0004
232,1.5596017241477966,1.5431289672851562,0.3076923076923077,0.8269230769230769,0.21428571428571427,0.8571428571428571,0.0004
233,1.533560574054718,1.4938664436340332,0.25,0.8269230769230769,0.35714285714285715,0.8571428571428571,0.0004
234,1.612507402896881,1.5494846105575562,0.3076923076923077,0.8269230769230769,0.21428571428571427,0.8571428571428571,0.0004
235,1.54672509431839,1.5452404022216797,0.36538461538461536,0.8269230769230769,0.21428571428571427,0.8571428571428571,0.0004
236,1.654102385044098,1.5518252849578857,0.28846153846153844,0.8269230769230769,0.21428571428571427,0.8571428571428571,0.0004
237,1.5417596101760864,1.5411626100540161,0.5,0.8269230769230769,0.21428571428571427,0.8571428571428571,0.0004
238,1.5735098719596863,1.5353398323059082,0.28846153846153844,0.8269230769230769,0.21428571428571427,0.8571428571428571,0.0004
239,1.596756398677826,1.542463779449463,0.3269230769230769,0.8269230769230769,0.21428571428571427,0.8571428571428571,0.0004
240,1.53139328956604,1.540300726890564,0.46153846153846156,0.8269230769230769,0.21428571428571427,0.8571428571428571,0.0004
241,1.5649718642234802,1.5439563989639282,0.3269230769230769,0.8269230769230769,0.21428571428571427,0.8571428571428571,0.0004
242,1.5332729816436768,1.5331318378448486,0.36538461538461536,0.8269230769230769,0.21428571428571427,0.8571428571428571,0.0004
243,1.5982239842414856,1.4779584407806396,0.25,0.8269230769230769,0.35714285714285715,0.8571428571428571,0.0004
244,1.600667953491211,1.5386720895767212,0.46153846153846156,0.8269230769230769,0.2857142857142857,0.8571428571428571,0.0004
245,1.563669204711914,1.4779727458953857,0.46153846153846156,0.8269230769230769,0.42857142857142855,0.8571428571428571,0.0004
246,1.5186724066734314,1.5130778551101685,0.38461538461538464,0.8269230769230769,0.2857142857142857,0.8571428571428571,0.0004
247,1.523048222064972,1.4790698289871216,0.40384615384615385,0.8269230769230769,0.5,0.8571428571428571,0.0004
248,1.5686109066009521,1.503762125968933,0.34615384615384615,0.8269230769230769,0.2857142857142857,0.8571428571428571,0.0004
249,1.5674307942390442,1.5348376035690308,0.38461538461538464,0.8269230769230769,0.21428571428571427,0.8571428571428571,0.0004
250,1.526262104511261,1.535645842552185,0.34615384615384615,0.8269230769230769,0.35714285714285715,0.8571428571428571,0.0004
251,1.5395182371139526,1.513229250907898,0.38461538461538464,0.8269230769230769,0.21428571428571427,0.8571428571428571,0.0004
252,1.5720993876457214,1.5102849006652832,0.38461538461538464,0.8269230769230769,0.2857142857142857,0.8571428571428571,0.0004
253,1.5072134733200073,1.5165863037109375,0.38461538461538464,0.8269230769230769,0.2857142857142857,0.8571428571428571,0.0004
254,1.5625818967819214,1.5003230571746826,0.38461538461538464,0.8269230769230769,0.35714285714285715,0.8571428571428571,0.0004
255,1.4858568906784058,1.5138349533081055,0.34615384615384615,0.8269230769230769,0.2857142857142857,0.8571428571428571,0.0004
256,1.5433045029640198,1.5216705799102783,0.40384615384615385,0.8269230769230769,0.14285714285714285,0.8571428571428571,0.0004
257,1.6223782300949097,1.5164865255355835,0.21153846153846154,0.8269230769230769,0.2857142857142857,0.8571428571428571,0.0004
258,1.5109424591064453,1.4879013299942017,0.4423076923076923,0.8269230769230769,0.2857142857142857,0.8571428571428571,0.0004
259,1.5358613729476929,1.4959124326705933,0.4230769230769231,0.8269230769230769,0.21428571428571427,0.8571428571428571,0.0004
260,1.5739456415176392,1.5306884050369263,0.4230769230769231,0.8269230769230769,0.21428571428571427,0.8571428571428571,0.0004
261,1.5176591277122498,1.514923334121704,0.38461538461538464,0.8269230769230769,0.21428571428571427,0.8571428571428571,0.0004
262,1.4823100566864014,1.4745254516601562,0.4423076923076923,0.8269230769230769,0.2857142857142857,0.8571428571428571,0.0004
263,1.5369265675544739,1.4399915933609009,0.34615384615384615,0.8269230769230769,0.5714285714285714,0.8571428571428571,0.0004
264,1.4705117344856262,1.4430774450302124,0.40384615384615385,0.8269230769230769,0.35714285714285715,0.8571428571428571,0.0004
265,1.491579294204712,1.6125874519348145,0.46153846153846156,0.8269230769230769,0.21428571428571427,0.8571428571428571,0.0004
266,1.639426589012146,1.4036939144134521,0.36538461538461536,0.8269230769230769,0.5,0.8571428571428571,0.0004
267,1.5500283241271973,1.674778938293457,0.4230769230769231,0.8269230769230769,0.21428571428571427,0.8571428571428571,0.0004
268,1.5183274745941162,1.6674138307571411,0.4230769230769231,0.8269230769230769,0.21428571428571427,0.8571428571428571,0.0004
269,1.701608955860138,1.6580055952072144,0.3076923076923077,0.8269230769230769,0.21428571428571427,0.8571428571428571,0.0004
270,1.685215950012207,1.6578567028045654,0.3076923076923077,0.8269230769230769,0.21428571428571427,0.8571428571428571,0.0004
271,1.543883740901947,1.6383503675460815,0.38461538461538464,0.8269230769230769,0.21428571428571427,0.8571428571428571,0.0004
272,1.6257543563842773,1.6085782051086426,0.40384615384615385,0.8269230769230769,0.21428571428571427,0.8571428571428571,0.0004
273,1.5609934329986572,1.598401665687561,0.40384615384615385,0.8269230769230769,0.21428571428571427,0.8571428571428571,0.0004
274,1.6105875372886658,1.5809458494186401,0.34615384615384615,0.8269230769230769,0.21428571428571427,0.8571428571428571,0.0004
275,1.5160005688667297,1.5632257461547852,0.46153846153846156,0.8269230769230769,0.21428571428571427,0.8571428571428571,0.0004
276,1.539458453655243,1.5387294292449951,0.40384615384615385,0.8269230769230769,0.2857142857142857,0.8571428571428571,0.0004
277,1.565519094467163,1.5530035495758057,0.4230769230769231,0.8269230769230769,0.21428571428571427,0.8571428571428571,0.0004
278,1.5172379612922668,1.5569888353347778,0.4230769230769231,0.8269230769230769,0.14285714285714285,0.8571428571428571,0.0004
279,1.5479263067245483,1.4804296493530273,0.38461538461538464,0.8269230769230769,0.35714285714285715,0.8571428571428571,0.0004
280,1.5063385367393494,1.5336709022521973,0.40384615384615385,0.8269230769230769,0.35714285714285715,0.8571428571428571,0.0004
281,1.5380432605743408,1.5320483446121216,0.38461538461538464,0.8269230769230769,0.21428571428571427,0.8571428571428571,0.0004
282,1.553742527961731,1.5212044715881348,0.2692307692307692,0.8269230769230769,0.2857142857142857,0.8571428571428571,0.0004
283,1.5762039422988892,1.5186572074890137,0.23076923076923078,0.8269230769230769,0.35714285714285715,0.8571428571428571,0.0004
284,1.5386239886283875,1.5157188177108765,0.36538461538461536,0.8269230769230769,0.35714285714285715,0.8571428571428571,0.0004
285,1.5818719863891602,1.4782986640930176,0.34615384615384615,0.8269230769230769,0.42857142857142855,0.8571428571428571,0.0004
286,1.5712189674377441,1.5196515321731567,0.4423076923076923,0.8269230769230769,0.35714285714285715,0.8571428571428571,0.0004
287,1.5711177587509155,1.4763529300689697,0.3269230769230769,0.8269230769230769,0.5,0.8571428571428571,0.0004
288,1.5401586294174194,1.474009394645691,0.38461538461538464,0.8269230769230769,0.5714285714285714,0.8571428571428571,0.0004
289,1.5485836267471313,1.5168665647506714,0.5384615384615384,0.8269230769230769,0.42857142857142855,0.8571428571428571,0.0004
290,1.5658695101737976,1.4805512428283691,0.4807692307692308,0.8269230769230769,0.5,0.8571428571428571,0.0004
291,1.615960419178009,1.5102763175964355,0.3076923076923077,0.8269230769230769,0.2857142857142857,0.8571428571428571,0.0004
292,1.5604966282844543,1.4856764078140259,0.36538461538461536,0.8269230769230769,0.5714285714285714,0.8571428571428571,0.0004
293,1.544720709323883,1.51645827293396,0.40384615384615385,0.8269230769230769,0.2857142857142857,0.8571428571428571,0.0004
294,1.584894597530365,1.5141056776046753,0.38461538461538464,0.8269230769230769,0.42857142857142855,0.8571428571428571,0.0004
295,1.5588488578796387,1.522188425064087,0.3076923076923077,0.8269230769230769,0.14285714285714285,0.8571428571428571,0.0004
296,1.5160501599311829,1.493931770324707,0.4423076923076923,0.8269230769230769,0.6428571428571429,0.8571428571428571,0.0004
297,1.5117871165275574,1.5130294561386108,0.4807692307692308,0.8269230769230769,0.5,0.8571428571428571,0.0004
298,1.5813360214233398,1.5189324617385864,0.34615384615384615,0.8269230769230769,0.21428571428571427,0.8571428571428571,0.0004
299,1.52314031124115,1.4791113138198853,0.4423076923076923,0.8269230769230769,0.42857142857142855,0.8571428571428571,0.0004
300,1.5664446949958801,1.4968794584274292,0.40384615384615385,0.8269230769230769,0.42857142857142855,0.8571428571428571,0.0004
301,1.5415602922439575,1.5278561115264893,0.34615384615384615,0.8269230769230769,0.35714285714285715,0.8571428571428571,0.0004
302,1.520372211933136,1.4767704010009766,0.4230769230769231,0.8269230769230769,0.21428571428571427,0.8571428571428571,0.0004
303,1.5364087224006653,1.523099660873413,0.4230769230769231,0.8269230769230769,0.21428571428571427,0.8571428571428571,0.0004
304,1.5227491855621338,1.4744586944580078,0.4230769230769231,0.8269230769230769,0.2857142857142857,0.8571428571428571,0.0004
305,1.5660144090652466,1.4846556186676025,0.25,0.8269230769230769,0.2857142857142857,0.8571428571428571,0.0004
306,1.5461823344230652,1.518315076828003,0.38461538461538464,0.8269230769230769,0.2857142857142857,0.8571428571428571,0.0004
307,1.4961392283439636,1.4987494945526123,0.36538461538461536,0.8269230769230769,0.2857142857142857,0.8571428571428571,0.0004
308,1.4882875680923462,1.4197872877120972,0.4230769230769231,0.8269230769230769,0.5,0.8571428571428571,0.0004
309,1.5263282656669617,1.4547169208526611,0.28846153846153844,0.8269230769230769,0.35714285714285715,0.8571428571428571,0.0004
310,1.5360788106918335,1.4873476028442383,0.38461538461538464,0.8269230769230769,0.42857142857142855,0.8571428571428571,0.0004
311,1.5462753772735596,1.5218284130096436,0.46153846153846156,0.8269230769230769,0.35714285714285715,0.8571428571428571,0.0004
312,1.431582748889923,1.4915189743041992,0.5,0.8269230769230769,0.35714285714285715,0.8571428571428571,0.0004
313,1.5832263231277466,1.5096274614334106,0.36538461538461536,0.8269230769230769,0.35714285714285715,0.8571428571428571,0.0004
314,1.4902925491333008,1.3274539709091187,0.5,0.8269230769230769,0.5714285714285714,0.8571428571428571,0.0004
315,1.5748416781425476,1.4558227062225342,0.38461538461538464,0.8269230769230769,0.5,0.8571428571428571,0.0004
316,1.5266361832618713,1.5756479501724243,0.4230769230769231,0.8269230769230769,0.35714285714285715,0.8571428571428571,0.0004
317,1.5538192987442017,1.4467759132385254,0.40384615384615385,0.8269230769230769,0.6428571428571429,0.8571428571428571,0.0004
318,1.4670172929763794,1.547302484512329,0.5384615384615384,0.8269230769230769,0.42857142857142855,0.8571428571428571,0.0004
319,1.5300267338752747,1.482677936553955,0.4230769230769231,0.8269230769230769,0.5,0.8571428571428571,0.0004
320,1.558504581451416,1.3646914958953857,0.4230769230769231,0.8269230769230769,0.5714285714285714,0.8571428571428571,0.0004
321,1.5481305122375488,1.3895443677902222,0.4423076923076923,0.8269230769230769,0.5,0.8571428571428571,0.0004
322,1.4756481051445007,1.3134369850158691,0.5192307692307693,0.8269230769230769,0.5,0.8571428571428571,0.0004
323,1.4922080636024475,1.4740352630615234,0.5,0.8269230769230769,0.5,0.8571428571428571,0.0004
324,1.7030686736106873,1.4410654306411743,0.5,0.8269230769230769,0.5714285714285714,0.8571428571428571,0.0004
325,1.5565464496612549,1.5501137971878052,0.5,0.8269230769230769,0.5714285714285714,0.8571428571428571,0.0004
326,1.562423050403595,1.3531917333602905,0.5769230769230769,0.8269230769230769,0.7142857142857143,0.8571428571428571,0.0004
327,1.5145928263664246,1.5777928829193115,0.5192307692307693,0.8269230769230769,0.5,0.8571428571428571,0.0004
328,1.4987530708312988,1.2526613473892212,0.5192307692307693,0.8269230769230769,0.6428571428571429,0.8571428571428571,0.0004
329,1.444013774394989,1.375410795211792,0.5384615384615384,0.8269230769230769,0.6428571428571429,0.8571428571428571,0.0004
330,1.4883415699005127,1.7900924682617188,0.5384615384615384,0.8269230769230769,0.42857142857142855,0.8571428571428571,0.0004
331,1.6060905456542969,1.2755275964736938,0.36538461538461536,0.8269230769230769,0.5714285714285714,0.8571428571428571,0.0004
332,1.1893677711486816,1.4313238859176636,0.6346153846153846,0.8269230769230769,0.6428571428571429,0.8571428571428571,0.0004
333,1.3193994760513306,1.4718061685562134,0.5192307692307693,0.8269230769230769,0.42857142857142855,0.8571428571428571,0.0004
334,1.3987831473350525,1.6837050914764404,0.5192307692307693,0.8269230769230769,0.2857142857142857,0.8571428571428571,0.0004
335,1.392225980758667,1.5152403116226196,0.4807692307692308,0.8269230769230769,0.42857142857142855,0.8571428571428571,0.0004
336,1.5192068219184875,1.7137010097503662,0.5576923076923077,0.8269230769230769,0.2857142857142857,0.8571428571428571,0.0004
337,1.444573998451233,1.6470513343811035,0.5384615384615384,0.8269230769230769,0.35714285714285715,0.8571428571428571,0.0004
338,1.5833410620689392,1.735851764678955,0.4423076923076923,0.8269230769230769,0.2857142857142857,0.8571428571428571,0.0004
339,1.5763020515441895,1.6388168334960938,0.4230769230769231,0.8269230769230769,0.35714285714285715,0.8571428571428571,0.0004
340,1.4413625597953796,1.9071422815322876,0.46153846153846156,0.8269230769230769,0.21428571428571427,0.8571428571428571,0.0004
341,1.6100162863731384,1.8583208322525024,0.4807692307692308,0.8269230769230769,0.21428571428571427,0.8571428571428571,0.0004
342,1.6850282549858093,1.7716329097747803,0.40384615384615385,0.8269230769230769,0.21428571428571427,0.8571428571428571,0.0004
343,1.736880600452423,1.7136561870574951,0.36538461538461536,0.8269230769230769,0.21428571428571427,0.8571428571428571,0.0004
344,1.6999492645263672,1.5174055099487305,0.38461538461538464,0.8269230769230769,0.2857142857142857,0.8571428571428571,0.0004
345,1.6837490797042847,1.6055042743682861,0.36538461538461536,0.8269230769230769,0.21428571428571427,0.8571428571428571,0.0004
346,1.5661641955375671,1.5673295259475708,0.40384615384615385,0.8269230769230769,0.21428571428571427,0.8571428571428571,0.0004
347,1.5287280678749084,1.544788122177124,0.4230769230769231,0.8269230769230769,0.21428571428571427,0.8571428571428571,0.0004
348,1.6138911247253418,1.5306655168533325,0.34615384615384615,0.8269230769230769,0.21428571428571427,0.8571428571428571,0.0004
349,1.5382087230682373,1.5245063304901123,0.34615384615384615,0.8269230769230769,0.21428571428571427,0.8571428571428571,0.0004
350,1.5932756066322327,1.5246254205703735,0.23076923076923078,0.8269230769230769,0.35714285714285715,0.8571428571428571,0.0004
351,1.5895583033561707,1.5271726846694946,0.36538461538461536,0.8269230769230769,0.35714285714285715,0.8571428571428571,0.0004
352,1.5691305994987488,1.5316088199615479,0.36538461538461536,0.8269230769230769,0.35714285714285715,0.8571428571428571,0.0004
353,1.5796496272087097,1.5339936017990112,0.28846153846153844,0.8269230769230769,0.35714285714285715,0.8571428571428571,0.0004
354,1.6175002455711365,1.5370715856552124,0.34615384615384615,0.8269230769230769,0.35714285714285715,0.8571428571428571,0.0004
355,1.6025551557540894,1.538162112236023,0.36538461538461536,0.8269230769230769,0.35714285714285715,0.8571428571428571,0.0004
356,1.5959725379943848,1.5400259494781494,0.3269230769230769,0.8269230769230769,0.35714285714285715,0.8571428571428571,0.0004
357,1.6089845895767212,1.5359712839126587,0.3076923076923077,0.8269230769230769,0.35714285714285715,0.8571428571428571,0.0004
358,1.5591599345207214,1.5314345359802246,0.34615384615384615,0.8269230769230769,0.35714285714285715,0.8571428571428571,0.0004
359,1.5773369669914246,1.5259493589401245,0.28846153846153844,0.8269230769230769,0.35714285714285715,0.8571428571428571,0.0004
360,1.5455161929130554,1.5284223556518555,0.3269230769230769,0.8269230769230769,0.35714285714285715,0.8571428571428571,0.0004
361,1.5520934462547302,1.5275447368621826,0.34615384615384615,0.8269230769230769,0.35714285714285715,0.8571428571428571,0.0004
362,1.6023579239845276,1.52341890335083,0.3269230769230769,0.8269230769230769,0.35714285714285715,0.8571428571428571,0.0004
363,1.5556876063346863,1.523573637008667,0.3269230769230769,0.8269230769230769,0.35714285714285715,0.8571428571428571,0.0004
364,1.5773608088493347,1.5216801166534424,0.36538461538461536,0.8269230769230769,0.35714285714285715,0.8571428571428571,0.0004
365,1.5844427943229675,1.5204581022262573,0.34615384615384615,0.8269230769230769,0.35714285714285715,0.8571428571428571,0.0004
366,1.5648982524871826,1.522615671157837,0.23076923076923078,0.8269230769230769,0.35714285714285715,0.8571428571428571,0.0004
367,1.594799518585205,1.5221965312957764,0.3269230769230769,0.8269230769230769,0.35714285714285715,0.8571428571428571,0.0004
368,1.5600051283836365,1.5226342678070068,0.3076923076923077,0.8269230769230769,0.35714285714285715,0.8571428571428571,0.0004
369,1.5623425841331482,1.522398591041565,0.3076923076923077,0.8269230769230769,0.35714285714285715,0.8571428571428571,0.0004
370,1.56746107339859,1.5233793258666992,0.28846153846153844,0.8269230769230769,0.35714285714285715,0.8571428571428571,0.0004
371,1.5370025634765625,1.5252923965454102,0.40384615384615385,0.8269230769230769,0.21428571428571427,0.8571428571428571,0.0004
372,1.5078500509262085,1.5326396226882935,0.46153846153846156,0.8269230769230769,0.21428571428571427,0.8571428571428571,0.0004
373,1.5593723058700562,1.5268055200576782,0.4230769230769231,0.8269230769230769,0.21428571428571427,0.8571428571428571,0.0004
374,1.5174612998962402,1.5306395292282104,0.36538461538461536,0.8269230769230769,0.21428571428571427,0.8571428571428571,0.0004
375,1.5216533541679382,1.5298010110855103,0.38461538461538464,0.8269230769230769,0.21428571428571427,0.8571428571428571,0.0004
376,1.5516887307167053,1.5320039987564087,0.28846153846153844,0.8269230769230769,0.21428571428571427,0.8571428571428571,0.0004
377,1.554535984992981,1.5327327251434326,0.46153846153846156,0.8269230769230769,0.21428571428571427,0.8571428571428571,0.0004
378,1.5760868787765503,1.5310146808624268,0.34615384615384615,0.8269230769230769,0.21428571428571427,0.8571428571428571,0.0004
379,1.5328676104545593,1.532785177230835,0.3269230769230769,0.8269230769230769,0.21428571428571427,0.8571428571428571,0.0004
380,1.5450094938278198,1.5342957973480225,0.40384615384615385,0.8269230769230769,0.21428571428571427,0.8571428571428571,0.0004
381,1.565508246421814,1.5379101037979126,0.34615384615384615,0.8269230769230769,0.21428571428571427,0.8571428571428571,0.0004
382,1.5885310173034668,1.5391407012939453,0.25,0.8269230769230769,0.21428571428571427,0.8571428571428571,0.0004
383,1.5674818754196167,1.540751338005066,0.3076923076923077,0.8269230769230769,0.21428571428571427,0.8571428571428571,0.0004
384,1.5306442975997925,1.5349843502044678,0.3076923076923077,0.8269230769230769,0.21428571428571427,0.8571428571428571,0.0004
385,1.5988693833351135,1.5354043245315552,0.40384615384615385,0.8269230769230769,0.21428571428571427,0.8571428571428571,0.0004
386,1.4814441204071045,1.5370980501174927,0.38461538461538464,0.8269230769230769,0.21428571428571427,0.8571428571428571,0.0004
387,1.5529516339302063,1.5410486459732056,0.3269230769230769,0.8269230769230769,0.21428571428571427,0.8571428571428571,0.0004
388,1.5584123134613037,1.538159966468811,0.3269230769230769,0.8269230769230769,0.21428571428571427,0.8571428571428571,0.0004
389,1.5628230571746826,1.538649320602417,0.38461538461538464,0.8269230769230769,0.21428571428571427,0.8571428571428571,0.0004
390,1.5769484043121338,1.5412554740905762,0.40384615384615385,0.8269230769230769,0.21428571428571427,0.8571428571428571,0.0004
391,1.5232810378074646,1.53941011428833,0.3269230769230769,0.8269230769230769,0.21428571428571427,0.8571428571428571,0.0004
392,1.536568284034729,1.5383098125457764,0.38461538461538464,0.8269230769230769,0.21428571428571427,0.8571428571428571,0.0004
393,1.532870888710022,1.5395514965057373,0.4230769230769231,0.8269230769230769,0.21428571428571427,0.8571428571428571,0.0004
394,1.555337905883789,1.5355312824249268,0.3269230769230769,0.8269230769230769,0.21428571428571427,0.8571428571428571,0.0004
395,1.540538251399994,1.542184591293335,0.34615384615384615,0.8269230769230769,0.21428571428571427,0.8571428571428571,0.0004
396,1.5462236404418945,1.5435446500778198,0.36538461538461536,0.8269230769230769,0.21428571428571427,0.8571428571428571,0.0004
397,1.5287943482398987,1.5449903011322021,0.3269230769230769,0.8269230769230769,0.21428571428571427,0.8571428571428571,0.0004
398,1.5409689545631409,1.5420900583267212,0.36538461538461536,0.8269230769230769,0.21428571428571427,0.8571428571428571,0.0004
399,1.5157692432403564,1.5389728546142578,0.4423076923076923,0.8269230769230769,0.21428571428571427,0.8571428571428571,0.0004
400,1.6000739932060242,1.5392200946807861,0.36538461538461536,0.8269230769230769,0.21428571428571427,0.8571428571428571,0.0004
401,1.6074053645133972,1.5391932725906372,0.4423076923076923,0.8269230769230769,0.21428571428571427,0.8571428571428571,0.0004
402,1.5239421129226685,1.5397439002990723,0.3269230769230769,0.8269230769230769,0.21428571428571427,0.8571428571428571,0.0004
403,1.5817112922668457,1.5366634130477905,0.34615384615384615,0.8269230769230769,0.21428571428571427,0.8571428571428571,0.0004
404,1.5786667466163635,1.5302221775054932,0.3076923076923077,0.8269230769230769,0.21428571428571427,0.8571428571428571,0.0004
405,1.5387089848518372,1.527875304222107,0.34615384615384615,0.8269230769230769,0.21428571428571427,0.8571428571428571,0.0004
406,1.5552451610565186,1.5339710712432861,0.46153846153846156,0.8269230769230769,0.21428571428571427,0.8571428571428571,0.0004
407,1.6039571166038513,1.530008316040039,0.40384615384615385,0.8269230769230769,0.21428571428571427,0.8571428571428571,0.0004
408,1.5710484981536865,1.5303826332092285,0.23076923076923078,0.8269230769230769,0.21428571428571427,0.8571428571428571,0.0004
409,1.591617465019226,1.5307891368865967,0.40384615384615385,0.8269230769230769,0.21428571428571427,0.8571428571428571,0.0004
410,1.560103178024292,1.53202223777771,0.4230769230769231,0.8269230769230769,0.21428571428571427,0.8571428571428571,0.0004
411,1.551722526550293,1.5271278619766235,0.4423076923076923,0.8269230769230769,0.21428571428571427,0.8571428571428571,0.0004
412,1.5196567177772522,1.5308326482772827,0.4423076923076923,0.8269230769230769,0.21428571428571427,0.8571428571428571,0.0004
413,1.5498552322387695,1.5258089303970337,0.46153846153846156,0.8269230769230769,0.21428571428571427,0.8571428571428571,0.0004
414,1.67184180021286,1.531203269958496,0.25,0.8269230769230769,0.21428571428571427,0.8571428571428571,0.0004
415,1.6021214723587036,1.5357060432434082,0.40384615384615385,0.8269230769230769,0.21428571428571427,0.8571428571428571,0.0004
416,1.5620003938674927,1.5346887111663818,0.3269230769230769,0.8269230769230769,0.21428571428571427,0.8571428571428571,0.0004
417,1.5406600832939148,1.533611536026001,0.4230769230769231,0.8269230769230769,0.21428571428571427,0.8571428571428571,0.0004
418,1.6087788343429565,1.5260200500488281,0.36538461538461536,0.8269230769230769,0.21428571428571427,0.8571428571428571,0.0004
419,1.603404700756073,1.5395863056182861,0.25,0.8269230769230769,0.21428571428571427,0.8571428571428571,0.0004
420,1.6178603172302246,1.5393998622894287,0.28846153846153844,0.8269230769230769,0.21428571428571427,0.8571428571428571,0.0004
421,1.5835925936698914,1.5386197566986084,0.4423076923076923,0.8269230769230769,0.21428571428571427,0.8571428571428571,0.0004
422,1.5798166990280151,1.542141318321228,0.3076923076923077,0.8269230769230769,0.21428571428571427,0.8571428571428571,0.0004
423,1.5497620701789856,1.543633222579956,0.38461538461538464,0.8269230769230769,0.21428571428571427,0.8571428571428571,0.0004
424,1.5792436599731445,1.5469874143600464,0.34615384615384615,0.8269230769230769,0.21428571428571427,0.8571428571428571,0.0004
425,1.6021780967712402,1.5511630773544312,0.17307692307692307,0.8269230769230769,0.21428571428571427,0.8571428571428571,0.0004
426,1.5250391960144043,1.548488736152649,0.4230769230769231,0.8269230769230769,0.21428571428571427,0.8571428571428571,0.0004
427,1.533298909664154,1.548214316368103,0.40384615384615385,0.8269230769230769,0.21428571428571427,0.8571428571428571,0.0004
428,1.574796974658966,1.548472285270691,0.2692307692307692,0.8269230769230769,0.21428571428571427,0.8571428571428571,0.0004
429,1.5689313411712646,1.5468027591705322,0.36538461538461536,0.8269230769230769,0.21428571428571427,0.8571428571428571,0.0004
430,1.550526738166809,1.5440013408660889,0.38461538461538464,0.8269230769230769,0.21428571428571427,0.8571428571428571,0.0004
431,1.5556381344795227,1.5388396978378296,0.2692307692307692,0.8269230769230769,0.21428571428571427,0.8571428571428571,0.0004
432,1.5688442587852478,1.5404080152511597,0.2692307692307692,0.8269230769230769,0.21428571428571427,0.8571428571428571,0.0004
433,1.5700184106826782,1.541563630104065,0.2692307692307692,0.8269230769230769,0.21428571428571427,0.8571428571428571,0.0004
434,1.5982975959777832,1.5397158861160278,0.3269230769230769,0.8269230769230769,0.21428571428571427,0.8571428571428571,0.0004
435,1.5518018007278442,1.5386910438537598,0.36538461538461536,0.8269230769230769,0.21428571428571427,0.8571428571428571,0.0004
436,1.6186898946762085,1.5427212715148926,0.28846153846153844,0.8269230769230769,0.21428571428571427,0.8571428571428571,0.0004
437,1.5871264934539795,1.5370585918426514,0.3076923076923077,0.8269230769230769,0.21428571428571427,0.8571428571428571,0.0004
438,1.5684913992881775,1.5386831760406494,0.36538461538461536,0.8269230769230769,0.21428571428571427,0.8571428571428571,0.0004
439,1.6005138754844666,1.5401179790496826,0.3076923076923077,0.8269230769230769,0.21428571428571427,0.8571428571428571,0.0004
440,1.6208988428115845,1.5386111736297607,0.36538461538461536,0.8269230769230769,0.21428571428571427,0.8571428571428571,0.0004
441,1.5425695776939392,1.5382249355316162,0.38461538461538464,0.8269230769230769,0.21428571428571427,0.8571428571428571,0.0004
442,1.5607637763023376,1.538663625717163,0.4230769230769231,0.8269230769230769,0.21428571428571427,0.8571428571428571,0.0004
443,1.5367297530174255,1.5393695831298828,0.46153846153846156,0.8269230769230769,0.21428571428571427,0.8571428571428571,0.0004
444,1.5654359459877014,1.536574363708496,0.40384615384615385,0.8269230769230769,0.21428571428571427,0.8571428571428571,0.0004
445,1.6059313416481018,1.542276382446289,0.3076923076923077,0.8269230769230769,0.21428571428571427,0.8571428571428571,0.0004
446,1.561256468296051,1.5408352613449097,0.28846153846153844,0.8269230769230769,0.21428571428571427,0.8571428571428571,0.0004
447,1.5106393694877625,1.5437557697296143,0.34615384615384615,0.8269230769230769,0.21428571428571427,0.8571428571428571,0.0004
448,1.6131802797317505,1.541166067123413,0.36538461538461536,0.8269230769230769,0.21428571428571427,0.8571428571428571,0.0004
449,1.5231348872184753,1.5384846925735474,0.34615384615384615,0.8269230769230769,0.21428571428571427,0.8571428571428571,0.0004
450,1.5635250806808472,1.5403579473495483,0.34615384615384615,0.8269230769230769,0.21428571428571427,0.8571428571428571,0.0004
451,1.5157919526100159,1.5499598979949951,0.34615384615384615,0.8269230769230769,0.21428571428571427,0.8571428571428571,0.0004
452,1.5959117412567139,1.5398335456848145,0.2692307692307692,0.8269230769230769,0.21428571428571427,0.8571428571428571,0.0004
453,1.5590580105781555,1.5376057624816895,0.3076923076923077,0.8269230769230769,0.21428571428571427,0.8571428571428571,0.0004
454,1.5623040795326233,1.5303130149841309,0.36538461538461536,0.8269230769230769,0.21428571428571427,0.8571428571428571,0.0004
455,1.5820786952972412,1.5332955121994019,0.40384615384615385,0.8269230769230769,0.21428571428571427,0.8571428571428571,0.0004
456,1.5499283075332642,1.5306344032287598,0.34615384615384615,0.8269230769230769,0.21428571428571427,0.8571428571428571,0.0004
457,1.5611915588378906,1.5293588638305664,0.36538461538461536,0.8269230769230769,0.21428571428571427,0.8571428571428571,0.0004
458,1.6315056681632996,1.5251350402832031,0.28846153846153844,0.8269230769230769,0.21428571428571427,0.8571428571428571,0.0004
459,1.5435728430747986,1.5286319255828857,0.3269230769230769,0.8269230769230769,0.21428571428571427,0.8571428571428571,0.0004
460,1.5675849318504333,1.5285515785217285,0.3269230769230769,0.8269230769230769,0.21428571428571427,0.8571428571428571,0.0004
461,1.657533347606659,1.5278160572052002,0.3076923076923077,0.8269230769230769,0.21428571428571427,0.8571428571428571,0.0004
462,1.5441851019859314,1.529091477394104,0.3076923076923077,0.8269230769230769,0.21428571428571427,0.8571428571428571,0.0004
463,1.58830064535141,1.5247862339019775,0.2692307692307692,0.8269230769230769,0.21428571428571427,0.8571428571428571,0.0004
464,1.5988115072250366,1.5262610912322998,0.28846153846153844,0.8269230769230769,0.21428571428571427,0.8571428571428571,0.0004
465,1.574531376361847,1.530003309249878,0.34615384615384615,0.8269230769230769,0.21428571428571427,0.8571428571428571,0.0004
466,1.5530962944030762,1.5331412553787231,0.40384615384615385,0.8269230769230769,0.21428571428571427,0.8571428571428571,0.0004
467,1.5520510077476501,1.5329655408859253,0.34615384615384615,0.8269230769230769,0.21428571428571427,0.8571428571428571,0.0004
468,1.5509064197540283,1.531022310256958,0.3269230769230769,0.8269230769230769,0.21428571428571427,0.8571428571428571,0.0004
469,1.5483804941177368,1.5309643745422363,0.38461538461538464,0.8269230769230769,0.21428571428571427,0.8571428571428571,0.0004
470,1.5923628211021423,1.526947021484375,0.36538461538461536,0.8269230769230769,0.21428571428571427,0.8571428571428571,0.0004
471,1.5763294696807861,1.5244429111480713,0.2692307692307692,0.8269230769230769,0.21428571428571427,0.8571428571428571,0.0004
472,1.5882118940353394,1.531975507736206,0.36538461538461536,0.8269230769230769,0.21428571428571427,0.8571428571428571,0.0004
473,1.5851556062698364,1.5302929878234863,0.3269230769230769,0.8269230769230769,0.21428571428571427,0.8571428571428571,0.0004
474,1.5621494054794312,1.5385040044784546,0.36538461538461536,0.8269230769230769,0.21428571428571427,0.8571428571428571,0.0004
475,1.544370412826538,1.5326646566390991,0.34615384615384615,0.8269230769230769,0.21428571428571427,0.8571428571428571,0.0004
476,1.5789885520935059,1.533867597579956,0.36538461538461536,0.8269230769230769,0.21428571428571427,0.8571428571428571,0.0004
477,1.5780681371688843,1.535282015800476,0.38461538461538464,0.8269230769230769,0.21428571428571427,0.8571428571428571,0.0004
478,1.5890654921531677,1.5361387729644775,0.3076923076923077,0.8269230769230769,0.21428571428571427,0.8571428571428571,0.0004
479,1.5775399208068848,1.5360690355300903,0.40384615384615385,0.8269230769230769,0.21428571428571427,0.8571428571428571,0.0004
480,1.5601744055747986,1.533247947692871,0.3269230769230769,0.8269230769230769,0.21428571428571427,0.8571428571428571,0.0004
481,1.5805502533912659,1.539988398551941,0.40384615384615385,0.8269230769230769,0.21428571428571427,0.8571428571428571,0.0004
482,1.5558246970176697,1.543174386024475,0.38461538461538464,0.8269230769230769,0.21428571428571427,0.8571428571428571,0.0004
483,1.5573010444641113,1.5427089929580688,0.34615384615384615,0.8269230769230769,0.21428571428571427,0.8571428571428571,0.0004
484,1.6157222986221313,1.540564775466919,0.34615384615384615,0.8269230769230769,0.21428571428571427,0.8571428571428571,0.0004
485,1.5333997011184692,1.5373945236206055,0.38461538461538464,0.8269230769230769,0.21428571428571427,0.8571428571428571,0.0004
486,1.5492889881134033,1.5445456504821777,0.4807692307692308,0.8269230769230769,0.21428571428571427,0.8571428571428571,0.0004
487,1.5772067308425903,1.54323148727417,0.3076923076923077,0.8269230769230769,0.21428571428571427,0.8571428571428571,0.0004
488,1.5388148427009583,1.5437955856323242,0.4230769230769231,0.8269230769230769,0.21428571428571427,0.8571428571428571,0.0004
489,1.5207249522209167,1.544788122177124,0.38461538461538464,0.8269230769230769,0.21428571428571427,0.8571428571428571,0.0004
490,1.5615113973617554,1.5457326173782349,0.3076923076923077,0.8269230769230769,0.21428571428571427,0.8571428571428571,0.0004
491,1.5741518139839172,1.53816556930542,0.28846153846153844,0.8269230769230769,0.21428571428571427,0.8571428571428571,0.0004
492,1.5177395939826965,1.5576670169830322,0.40384615384615385,0.8269230769230769,0.21428571428571427,0.8571428571428571,0.0004
493,1.640075922012329,1.5405291318893433,0.3269230769230769,0.8269230769230769,0.21428571428571427,0.8571428571428571,0.0004
494,1.5545873045921326,1.525007963180542,0.3076923076923077,0.8269230769230769,0.21428571428571427,0.8571428571428571,0.0004
495,1.5819998383522034,1.537597894668579,0.38461538461538464,0.8269230769230769,0.21428571428571427,0.8571428571428571,0.0004
496,1.5627127289772034,1.5417295694351196,0.4423076923076923,0.8269230769230769,0.21428571428571427,0.8571428571428571,0.0004
497,1.5724985003471375,1.5436666011810303,0.40384615384615385,0.8269230769230769,0.21428571428571427,0.8571428571428571,0.0004
498,1.6690521240234375,1.5399829149246216,0.3269230769230769,0.8269230769230769,0.21428571428571427,0.8571428571428571,0.0004
499,1.6379928588867188,1.5352157354354858,0.25,0.8269230769230769,0.21428571428571427,0.8571428571428571,0.0004
500,1.5570228695869446,1.5357842445373535,0.40384615384615385,0.8269230769230769,0.21428571428571427,0.8571428571428571,0.0004
501,1.5975666642189026,1.5443968772888184,0.3269230769230769,0.8269230769230769,0.21428571428571427,0.8571428571428571,0.0004
502,1.5398156642913818,1.5284593105316162,0.34615384615384615,0.8269230769230769,0.21428571428571427,0.8571428571428571,0.0004
503,1.561446189880371,1.5392422676086426,0.34615384615384615,0.8269230769230769,0.21428571428571427,0.8571428571428571,0.0004
504,1.542251467704773,1.525621771812439,0.3076923076923077,0.8269230769230769,0.2857142857142857,0.8571428571428571,0.0004
505,1.5527844429016113,1.5358542203903198,0.3076923076923077,0.8269230769230769,0.21428571428571427,0.8571428571428571,0.0004
506,1.5569618344306946,1.5326350927352905,0.38461538461538464,0.8269230769230769,0.21428571428571427,0.8571428571428571,0.0004
507,1.5965054035186768,1.5347076654434204,0.36538461538461536,0.8269230769230769,0.21428571428571427,0.8571428571428571,0.0004
508,1.5373476147651672,1.5410327911376953,0.28846153846153844,0.8269230769230769,0.21428571428571427,0.8571428571428571,0.0004
509,1.574003517627716,1.5359430313110352,0.2692307692307692,0.8269230769230769,0.21428571428571427,0.8571428571428571,0.0004
510,1.571601152420044,1.5266566276550293,0.36538461538461536,0.8269230769230769,0.21428571428571427,0.8571428571428571,0.0004
511,1.569157898426056,1.521148681640625,0.3269230769230769,0.8269230769230769,0.21428571428571427,0.8571428571428571,0.0004
512,1.594634234905243,1.537124752998352,0.34615384615384615,0.8269230769230769,0.21428571428571427,0.8571428571428571,0.0004
513,1.5695503950119019,1.5222638845443726,0.34615384615384615,0.8269230769230769,0.14285714285714285,0.8571428571428571,0.0004
514,1.5968127250671387,1.527387022972107,0.38461538461538464,0.8269230769230769,0.42857142857142855,0.8571428571428571,0.0004
515,1.550942838191986,1.5288615226745605,0.28846153846153844,0.8269230769230769,0.35714285714285715,0.8571428571428571,0.0004
516,1.5699976682662964,1.5269584655761719,0.36538461538461536,0.8269230769230769,0.35714285714285715,0.8571428571428571,0.0004
517,1.5313807725906372,1.5278187990188599,0.2692307692307692,0.8269230769230769,0.35714285714285715,0.8571428571428571,0.0004
518,1.5726657509803772,1.5251330137252808,0.34615384615384615,0.8269230769230769,0.35714285714285715,0.8571428571428571,0.0004
519,1.5460694432258606,1.5226495265960693,0.3076923076923077,0.8269230769230769,0.35714285714285715,0.8571428571428571,0.0004
520,1.5517420172691345,1.5261917114257812,0.2692307692307692,0.8269230769230769,0.35714285714285715,0.8571428571428571,0.0004
521,1.5528607964515686,1.5251667499542236,0.2692307692307692,0.8269230769230769,0.14285714285714285,0.8571428571428571,0.0004
522,1.510864496231079,1.5166434049606323,0.46153846153846156,0.8269230769230769,0.21428571428571427,0.8571428571428571,0.0004
523,1.5469768643379211,1.5245490074157715,0.46153846153846156,0.8269230769230769,0.21428571428571427,0.8571428571428571,0.0004
524,1.5043619275093079,1.5250322818756104,0.4230769230769231,0.8269230769230769,0.21428571428571427,0.8571428571428571,0.0004
525,1.6041586995124817,1.5268688201904297,0.34615384615384615,0.8269230769230769,0.21428571428571427,0.8571428571428571,0.0004
526,1.5703749060630798,1.5203781127929688,0.34615384615384615,0.8269230769230769,0.21428571428571427,0.8571428571428571,0.0004
527,1.572425365447998,1.5143035650253296,0.36538461538461536,0.8269230769230769,0.2857142857142857,0.8571428571428571,0.0004
528,1.5740708708763123,1.5276267528533936,0.3269230769230769,0.8269230769230769,0.21428571428571427,0.8571428571428571,0.0004
529,1.596058189868927,1.5122122764587402,0.3076923076923077,0.8269230769230769,0.21428571428571427,0.8571428571428571,0.0004
530,1.562380075454712,1.526989221572876,0.36538461538461536,0.8269230769230769,0.21428571428571427,0.8571428571428571,0.0004
531,1.5656697750091553,1.5234816074371338,0.36538461538461536,0.8269230769230769,0.21428571428571427,0.8571428571428571,0.0004
532,1.630616843700409,1.5207884311676025,0.34615384615384615,0.8269230769230769,0.21428571428571427,0.8571428571428571,0.0004
533,1.5706608295440674,1.5305123329162598,0.28846153846153844,0.8269230769230769,0.21428571428571427,0.8571428571428571,0.0004
534,1.5926204323768616,1.5473819971084595,0.3269230769230769,0.8269230769230769,0.21428571428571427,0.8571428571428571,0.0004
535,1.5248200297355652,1.5356143712997437,0.4230769230769231,0.8269230769230769,0.21428571428571427,0.8571428571428571,0.0004
536,1.5777679085731506,1.535759687423706,0.3269230769230769,0.8269230769230769,0.21428571428571427,0.8571428571428571,0.0004
537,1.5118693709373474,1.5437943935394287,0.34615384615384615,0.8269230769230769,0.21428571428571427,0.8571428571428571,0.0004
538,1.6213740110397339,1.5394757986068726,0.4423076923076923,0.8269230769230769,0.21428571428571427,0.8571428571428571,0.0004
539,1.531773328781128,1.541725516319275,0.3269230769230769,0.8269230769230769,0.21428571428571427,0.8571428571428571,0.0004
540,1.5365597009658813,1.5389376878738403,0.40384615384615385,0.8269230769230769,0.21428571428571427,0.8571428571428571,0.0004
541,1.5423299074172974,1.5412980318069458,0.34615384615384615,0.8269230769230769,0.21428571428571427,0.8571428571428571,0.0004
542,1.5463642477989197,1.5424987077713013,0.38461538461538464,0.8269230769230769,0.21428571428571427,0.8571428571428571,0.0004
543,1.58955979347229,1.5849452018737793,0.38461538461538464,0.8269230769230769,0.21428571428571427,0.8571428571428571,0.0004
544,1.568847894668579,1.534635066986084,0.36538461538461536,0.8269230769230769,0.21428571428571427,0.8571428571428571,0.0004
545,1.5976726412773132,1.5382877588272095,0.28846153846153844,0.8269230769230769,0.21428571428571427,0.8571428571428571,0.0004
546,1.6077415347099304,1.5458548069000244,0.36538461538461536,0.8269230769230769,0.21428571428571427,0.8571428571428571,0.0004
547,1.5364015102386475,1.5435336828231812,0.38461538461538464,0.8269230769230769,0.21428571428571427,0.8571428571428571,0.0004
548,1.6004105806350708,1.5183717012405396,0.34615384615384615,0.8269230769230769,0.2857142857142857,0.8571428571428571,0.0004
549,1.5140783190727234,1.5292515754699707,0.34615384615384615,0.8269230769230769,0.21428571428571427,0.8571428571428571,0.0004
550,1.547672152519226,1.5300519466400146,0.3269230769230769,0.8269230769230769,0.21428571428571427,0.8571428571428571,0.0004
551,1.5485082864761353,1.547567367553711,0.40384615384615385,0.8269230769230769,0.21428571428571427,0.8571428571428571,0.0004
552,1.5665389895439148,1.5281832218170166,0.3076923076923077,0.8269230769230769,0.21428571428571427,0.8571428571428571,0.0004
553,1.5263811349868774,1.5428788661956787,0.4423076923076923,0.8269230769230769,0.21428571428571427,0.8571428571428571,0.0004
554,1.6274173259735107,1.5216002464294434,0.3076923076923077,0.8269230769230769,0.21428571428571427,0.8571428571428571,0.0004
555,1.527524471282959,1.5332286357879639,0.38461538461538464,0.8269230769230769,0.21428571428571427,0.8571428571428571,0.0004
556,1.5343784093856812,1.5633747577667236,0.40384615384615385,0.8269230769230769,0.21428571428571427,0.8571428571428571,0.0004
557,1.5694832801818848,1.5475003719329834,0.3269230769230769,0.8269230769230769,0.21428571428571427,0.8571428571428571,0.0004
558,1.5315666198730469,1.522215485572815,0.3269230769230769,0.8269230769230769,0.21428571428571427,0.8571428571428571,0.0004
559,1.5009495615959167,1.5391786098480225,0.40384615384615385,0.8269230769230769,0.21428571428571427,0.8571428571428571,0.0004
560,1.6128207445144653,1.5335346460342407,0.3076923076923077,0.8269230769230769,0.21428571428571427,0.8571428571428571,0.0004
561,1.5864166021347046,1.5292389392852783,0.36538461538461536,0.8269230769230769,0.21428571428571427,0.8571428571428571,0.0004
562,1.5850069522857666,1.534253478050232,0.3269230769230769,0.8269230769230769,0.21428571428571427,0.8571428571428571,0.0004
563,1.560550570487976,1.5382720232009888,0.40384615384615385,0.8269230769230769,0.21428571428571427,0.8571428571428571,0.0004
564,1.518448293209076,1.533353328704834,0.40384615384615385,0.8269230769230769,0.21428571428571427,0.8571428571428571,0.0004
565,1.5646415948867798,1.5371055603027344,0.38461538461538464,0.8269230769230769,0.21428571428571427,0.8571428571428571,0.0004
566,1.5396195650100708,1.538223147392273,0.40384615384615385,0.8269230769230769,0.21428571428571427,0.8571428571428571,0.0004
567,1.5575696229934692,1.5393844842910767,0.34615384615384615,0.8269230769230769,0.21428571428571427,0.8571428571428571,0.0004
568,1.5634579062461853,1.5351380109786987,0.3269230769230769,0.8269230769230769,0.21428571428571427,0.8571428571428571,0.0004
569,1.6051501631736755,1.5261461734771729,0.3269230769230769,0.8269230769230769,0.21428571428571427,0.8571428571428571,0.0004
570,1.5650017857551575,1.5288337469100952,0.38461538461538464,0.8269230769230769,0.21428571428571427,0.8571428571428571,0.0004
571,1.5085439085960388,1.5330790281295776,0.46153846153846156,0.8269230769230769,0.21428571428571427,0.8571428571428571,0.0004
572,1.5838434100151062,1.533201813697815,0.34615384615384615,0.8269230769230769,0.21428571428571427,0.8571428571428571,0.0004
573,1.5792522430419922,1.5304441452026367,0.38461538461538464,0.8269230769230769,0.21428571428571427,0.8571428571428571,0.0004
574,1.559841275215149,1.5346879959106445,0.34615384615384615,0.8269230769230769,0.21428571428571427,0.8571428571428571,0.0004
575,1.5153363943099976,1.5277560949325562,0.36538461538461536,0.8269230769230769,0.21428571428571427,0.8571428571428571,0.0004
576,1.5471301674842834,1.5211732387542725,0.4230769230769231,0.8269230769230769,0.21428571428571427,0.8571428571428571,0.0004
577,1.6028143167495728,1.5320039987564087,0.2692307692307692,0.8269230769230769,0.21428571428571427,0.8571428571428571,0.0004
578,1.4987741112709045,1.557358741760254,0.38461538461538464,0.8269230769230769,0.21428571428571427,0.8571428571428571,0.0004
579,1.6040655374526978,1.5242564678192139,0.25,0.8269230769230769,0.21428571428571427,0.8571428571428571,0.0004
580,1.5685005187988281,1.5134515762329102,0.4423076923076923,0.8269230769230769,0.21428571428571427,0.8571428571428571,0.0004
581,1.5248904824256897,1.5231645107269287,0.36538461538461536,0.8269230769230769,0.21428571428571427,0.8571428571428571,0.0004
582,1.5422822833061218,1.5184075832366943,0.40384615384615385,0.8269230769230769,0.21428571428571427,0.8571428571428571,0.0004
583,1.5098023414611816,1.5116595029830933,0.25,0.8269230769230769,0.2857142857142857,0.8571428571428571,0.0004
584,1.5641979575157166,1.5280568599700928,0.38461538461538464,0.8269230769230769,0.21428571428571427,0.8571428571428571,0.0004
585,1.5122581720352173,1.5181211233139038,0.5192307692307693,0.8269230769230769,0.21428571428571427,0.8571428571428571,0.0004
586,1.4883180260658264,1.4947171211242676,0.4230769230769231,0.8269230769230769,0.2857142857142857,0.8571428571428571,0.0004
587,1.5297811031341553,1.4799953699111938,0.38461538461538464,0.8269230769230769,0.35714285714285715,0.8571428571428571,0.0004
588,1.5421867370605469,1.4743438959121704,0.5,0.8269230769230769,0.35714285714285715,0.8571428571428571,0.0004
589,1.590874433517456,1.509300947189331,0.28846153846153844,0.8269230769230769,0.2857142857142857,0.8571428571428571,0.0004
590,1.522784411907196,1.5225814580917358,0.4230769230769231,0.8269230769230769,0.21428571428571427,0.8571428571428571,0.0004
591,1.5108944177627563,1.528379201889038,0.40384615384615385,0.8269230769230769,0.21428571428571427,0.8571428571428571,0.0004
592,1.5399791598320007,1.547027826309204,0.38461538461538464,0.8269230769230769,0.21428571428571427,0.8571428571428571,0.0004
593,1.5059463381767273,1.5033044815063477,0.4423076923076923,0.8269230769230769,0.21428571428571427,0.8571428571428571,0.0004
594,1.567349374294281,1.5012569427490234,0.36538461538461536,0.8269230769230769,0.2857142857142857,0.8571428571428571,0.0004
595,1.4819926023483276,1.4846993684768677,0.4423076923076923,0.8269230769230769,0.35714285714285715,0.8571428571428571,0.0004
596,1.56438148021698,1.493084192276001,0.34615384615384615,0.8269230769230769,0.35714285714285715,0.8571428571428571,0.0004
597,1.5597918033599854,1.4596071243286133,0.40384615384615385,0.8269230769230769,0.42857142857142855,0.8571428571428571,0.0004
598,1.6212890148162842,1.5074763298034668,0.40384615384615385,0.8269230769230769,0.35714285714285715,0.8571428571428571,0.0004
599,1.5843279957771301,1.5227839946746826,0.28846153846153844,0.8269230769230769,0.2857142857142857,0.8571428571428571,0.0004
600,1.5416646003723145,1.5119895935058594,0.40384615384615385,0.8269230769230769,0.35714285714285715,0.8571428571428571,0.0004
601,1.5979593396186829,1.5458624362945557,0.36538461538461536,0.8269230769230769,0.2857142857142857,0.8571428571428571,0.0004
602,1.5424622893333435,1.5587204694747925,0.46153846153846156,0.8269230769230769,0.42857142857142855,0.8571428571428571,0.0004
603,1.5834208130836487,1.5674359798431396,0.40384615384615385,0.8269230769230769,0.35714285714285715,0.8571428571428571,0.0004
604,1.5300827622413635,1.493805170059204,0.4807692307692308,0.8269230769230769,0.42857142857142855,0.8571428571428571,0.0004
605,1.5740512013435364,1.467423915863037,0.3076923076923077,0.8269230769230769,0.42857142857142855,0.8571428571428571,0.0004
606,1.5626550912857056,1.4947199821472168,0.3076923076923077,0.8269230769230769,0.5,0.8571428571428571,0.0004
607,1.5216153860092163,1.4792522192001343,0.4230769230769231,0.8269230769230769,0.2857142857142857,0.8571428571428571,0.0004
608,1.5856913328170776,1.460463285446167,0.36538461538461536,0.8269230769230769,0.42857142857142855,0.8571428571428571,0.0004
609,1.5118135809898376,1.5132051706314087,0.25,0.8269230769230769,0.2857142857142857,0.8571428571428571,0.0004
610,1.582318365573883,1.5078903436660767,0.3269230769230769,0.8269230769230769,0.2857142857142857,0.8571428571428571,0.0004
611,1.5552051663398743,1.5284337997436523,0.40384615384615385,0.8269230769230769,0.21428571428571427,0.8571428571428571,0.0004
612,1.5111790895462036,1.535796046257019,0.4423076923076923,0.8269230769230769,0.2857142857142857,0.8571428571428571,0.0004
613,1.5457834005355835,1.5269665718078613,0.40384615384615385,0.8269230769230769,0.2857142857142857,0.8571428571428571,0.0004
614,1.5016838908195496,1.5653269290924072,0.40384615384615385,0.8269230769230769,0.21428571428571427,0.8571428571428571,0.0004
615,1.4698625206947327,1.4637467861175537,0.34615384615384615,0.8269230769230769,0.2857142857142857,0.8571428571428571,0.0004
616,1.5939178466796875,1.5156378746032715,0.4230769230769231,0.8269230769230769,0.2857142857142857,0.8571428571428571,0.0004
617,1.5677704811096191,1.5024948120117188,0.3269230769230769,0.8269230769230769,0.2857142857142857,0.8571428571428571,0.0004
618,1.5476685762405396,1.4751681089401245,0.40384615384615385,0.8269230769230769,0.2857142857142857,0.8571428571428571,0.0004
619,1.5828575491905212,1.538278341293335,0.38461538461538464,0.8269230769230769,0.21428571428571427,0.8571428571428571,0.0004
620,1.5556889176368713,1.502393364906311,0.38461538461538464,0.8269230769230769,0.35714285714285715,0.8571428571428571,0.0004
621,1.4981769919395447,1.5542914867401123,0.36538461538461536,0.8269230769230769,0.2857142857142857,0.8571428571428571,0.0004
622,1.5540797114372253,1.5065038204193115,0.4423076923076923,0.8269230769230769,0.35714285714285715,0.8571428571428571,0.0004
623,1.5395260453224182,1.4804890155792236,0.40384615384615385,0.8269230769230769,0.35714285714285715,0.8571428571428571,0.0004
624,1.462912142276764,1.4170268774032593,0.38461538461538464,0.8269230769230769,0.5,0.8571428571428571,0.0004
625,1.4855785965919495,1.503917932510376,0.46153846153846156,0.8269230769230769,0.42857142857142855,0.8571428571428571,0.0004
626,1.638127088546753,1.532339334487915,0.40384615384615385,0.8269230769230769,0.42857142857142855,0.8571428571428571,0.0004
627,1.6293495297431946,1.5117180347442627,0.28846153846153844,0.8269230769230769,0.42857142857142855,0.8571428571428571,0.0004
628,1.641745924949646,1.5113013982772827,0.34615384615384615,0.8269230769230769,0.42857142857142855,0.8571428571428571,0.0004
629,1.6546525955200195,1.5110033750534058,0.3269230769230769,0.8269230769230769,0.42857142857142855,0.8571428571428571,0.0004
630,1.5780509114265442,1.5029685497283936,0.36538461538461536,0.8269230769230769,0.42857142857142855,0.8571428571428571,0.0004
631,1.5338956713676453,1.5136462450027466,0.2692307692307692,0.8269230769230769,0.2857142857142857,0.8571428571428571,0.0004
632,1.5598491430282593,1.5211573839187622,0.40384615384615385,0.8269230769230769,0.21428571428571427,0.8571428571428571,0.0004
633,1.4696890711784363,1.5367575883865356,0.46153846153846156,0.8269230769230769,0.21428571428571427,0.8571428571428571,0.0004
634,1.5857151746749878,1.5337836742401123,0.40384615384615385,0.8269230769230769,0.21428571428571427,0.8571428571428571,0.0004
635,1.5178253650665283,1.5478888750076294,0.34615384615384615,0.8269230769230769,0.21428571428571427,0.8571428571428571,0.0004
636,1.563964068889618,1.55079984664917,0.4230769230769231,0.8269230769230769,0.21428571428571427,0.8571428571428571,0.0004
637,1.5543947219848633,1.556259036064148,0.3269230769230769,0.8269230769230769,0.21428571428571427,0.8571428571428571,0.0004
638,1.580807089805603,1.5344065427780151,0.3076923076923077,0.8269230769230769,0.21428571428571427,0.8571428571428571,0.0004
639,1.4947063326835632,1.5407394170761108,0.34615384615384615,0.8269230769230769,0.21428571428571427,0.8571428571428571,0.0004
640,1.5242664217948914,1.5630501508712769,0.4230769230769231,0.8269230769230769,0.21428571428571427,0.8571428571428571,0.0004
641,1.527174711227417,1.5457215309143066,0.36538461538461536,0.8269230769230769,0.21428571428571427,0.8571428571428571,0.0004
642,1.571248710155487,1.5728389024734497,0.3269230769230769,0.8269230769230769,0.21428571428571427,0.8571428571428571,0.0004
643,1.5050910115242004,1.5200204849243164,0.40384615384615385,0.8269230769230769,0.21428571428571427,0.8571428571428571,0.0004
644,1.539843201637268,1.5444425344467163,0.4230769230769231,0.8269230769230769,0.21428571428571427,0.8571428571428571,0.0004
645,1.5404908061027527,1.527992844581604,0.36538461538461536,0.8269230769230769,0.21428571428571427,0.8571428571428571,0.0004
646,1.5384942889213562,1.5388085842132568,0.40384615384615385,0.8269230769230769,0.21428571428571427,0.8571428571428571,0.0004
647,1.4917727708816528,1.5610785484313965,0.4423076923076923,0.8269230769230769,0.21428571428571427,0.8571428571428571,0.0004
648,1.5908758044242859,1.5234308242797852,0.2692307692307692,0.8269230769230769,0.21428571428571427,0.8571428571428571,0.0004
649,1.573221743106842,1.500123143196106,0.36538461538461536,0.8269230769230769,0.21428571428571427,0.8571428571428571,0.0004
650,1.5048403143882751,1.5375561714172363,0.40384615384615385,0.8269230769230769,0.21428571428571427,0.8571428571428571,0.0004
651,1.5206568837165833,1.5318403244018555,0.3269230769230769,0.8269230769230769,0.21428571428571427,0.8571428571428571,0.0004
652,1.5650476813316345,1.5150587558746338,0.2692307692307692,0.8269230769230769,0.2857142857142857,0.8571428571428571,0.0004
653,1.6093031764030457,1.5248668193817139,0.40384615384615385,0.8269230769230769,0.21428571428571427,0.8571428571428571,0.0004
654,1.5131613612174988,1.5737723112106323,0.38461538461538464,0.8269230769230769,0.21428571428571427,0.8571428571428571,0.0004
655,1.5191863775253296,1.5884407758712769,0.34615384615384615,0.8269230769230769,0.21428571428571427,0.8571428571428571,0.0004
656,1.552399218082428,1.582621693611145,0.36538461538461536,0.8269230769230769,0.21428571428571427,0.8571428571428571,0.0004
657,1.524415671825409,1.6194177865982056,0.3076923076923077,0.8269230769230769,0.21428571428571427,0.8571428571428571,0.0004
658,1.5833141207695007,1.6031825542449951,0.3076923076923077,0.8269230769230769,0.21428571428571427,0.8571428571428571,0.0004
659,1.5413774847984314,1.5761852264404297,0.40384615384615385,0.8269230769230769,0.21428571428571427,0.8571428571428571,0.0004
660,1.5961989164352417,1.6137205362319946,0.36538461538461536,0.8269230769230769,0.21428571428571427,0.8571428571428571,0.0004
661,1.530081033706665,1.5623126029968262,0.40384615384615385,0.8269230769230769,0.21428571428571427,0.8571428571428571,0.0004
662,1.5047773718833923,1.5442900657653809,0.34615384615384615,0.8269230769230769,0.21428571428571427,0.8571428571428571,0.0004
663,1.5534027814865112,1.537197232246399,0.38461538461538464,0.8269230769230769,0.21428571428571427,0.8571428571428571,0.0004
664,1.5135357975959778,1.5456489324569702,0.4230769230769231,0.8269230769230769,0.21428571428571427,0.8571428571428571,0.0004
665,1.5726118087768555,1.524693489074707,0.40384615384615385,0.8269230769230769,0.21428571428571427,0.8571428571428571,0.0004
666,1.6190137267112732,1.5300371646881104,0.3269230769230769,0.8269230769230769,0.21428571428571427,0.8571428571428571,0.0004
667,1.5009294152259827,1.5257563591003418,0.38461538461538464,0.8269230769230769,0.21428571428571427,0.8571428571428571,0.0004
668,1.5943982005119324,1.5049651861190796,0.2692307692307692,0.8269230769230769,0.21428571428571427,0.8571428571428571,0.0004
669,1.5866215229034424,1.5410743951797485,0.4423076923076923,0.8269230769230769,0.21428571428571427,0.8571428571428571,0.0004
670,1.56966233253479,1.515181541442871,0.2692307692307692,0.8269230769230769,0.21428571428571427,0.8571428571428571,0.0004
671,1.5161794424057007,1.5061389207839966,0.4230769230769231,0.8269230769230769,0.21428571428571427,0.8571428571428571,0.0004
672,1.587557315826416,1.5122361183166504,0.34615384615384615,0.8269230769230769,0.21428571428571427,0.8571428571428571,0.0004
673,1.5367227792739868,1.4893032312393188,0.34615384615384615,0.8269230769230769,0.2857142857142857,0.8571428571428571,0.0004
674,1.613235354423523,1.5114182233810425,0.34615384615384615,0.8269230769230769,0.21428571428571427,0.8571428571428571,0.0004
675,1.5704184770584106,1.515479326248169,0.34615384615384615,0.8269230769230769,0.21428571428571427,0.8571428571428571,0.0004
676,1.5339203476905823,1.5515660047531128,0.4807692307692308,0.8269230769230769,0.21428571428571427,0.8571428571428571,0.0004
677,1.5169968008995056,1.5100504159927368,0.40384615384615385,0.8269230769230769,0.21428571428571427,0.8571428571428571,0.0004
678,1.5309302806854248,1.5131239891052246,0.3076923076923077,0.8269230769230769,0.21428571428571427,0.8571428571428571,0.0004
679,1.547827422618866,1.540375828742981,0.3076923076923077,0.8269230769230769,0.21428571428571427,0.8571428571428571,0.0004
680,1.569511353969574,1.5329318046569824,0.3269230769230769,0.8269230769230769,0.21428571428571427,0.8571428571428571,0.0004
681,1.5799935460090637,1.5401936769485474,0.36538461538461536,0.8269230769230769,0.21428571428571427,0.8571428571428571,0.0004
682,1.561961829662323,1.632974624633789,0.3269230769230769,0.8269230769230769,0.21428571428571427,0.8571428571428571,0.0004
683,1.6119312047958374,1.5107501745224,0.38461538461538464,0.8269230769230769,0.2857142857142857,0.8571428571428571,0.0004
684,1.5591610074043274,1.5511796474456787,0.40384615384615385,0.8269230769230769,0.21428571428571427,0.8571428571428571,0.0004
685,1.5181370973587036,1.517899751663208,0.40384615384615385,0.8269230769230769,0.21428571428571427,0.8571428571428571,0.0004
686,1.545944333076477,1.5337368249893188,0.40384615384615385,0.8269230769230769,0.21428571428571427,0.8571428571428571,0.0004
687,1.5279180407524109,1.5337839126586914,0.38461538461538464,0.8269230769230769,0.21428571428571427,0.8571428571428571,0.0004
688,1.532194972038269,1.5302971601486206,0.4423076923076923,0.8269230769230769,0.21428571428571427,0.8571428571428571,0.0004
689,1.539268970489502,1.5460528135299683,0.4807692307692308,0.8269230769230769,0.21428571428571427,0.8571428571428571,0.0004
690,1.5265374183654785,1.545376181602478,0.34615384615384615,0.8269230769230769,0.21428571428571427,0.8571428571428571,0.0004
691,1.5483847856521606,1.5258711576461792,0.28846153846153844,0.8269230769230769,0.21428571428571427,0.8571428571428571,0.0004
692,1.5285497307777405,1.5090436935424805,0.38461538461538464,0.8269230769230769,0.21428571428571427,0.8571428571428571,0.0004
693,1.5204647183418274,1.523929238319397,0.38461538461538464,0.8269230769230769,0.21428571428571427,0.8571428571428571,0.0004
694,1.5728005170822144,1.5413596630096436,0.40384615384615385,0.8269230769230769,0.21428571428571427,0.8571428571428571,0.0004
695,1.6154426336288452,1.5382945537567139,0.38461538461538464,0.8269230769230769,0.21428571428571427,0.8571428571428571,0.0004
696,1.5208141207695007,1.5327284336090088,0.34615384615384615,0.8269230769230769,0.21428571428571427,0.8571428571428571,0.0004
697,1.5704615712165833,1.5452404022216797,0.4230769230769231,0.8269230769230769,0.21428571428571427,0.8571428571428571,0.0004
698,1.569823980331421,1.5179643630981445,0.38461538461538464,0.8269230769230769,0.21428571428571427,0.8571428571428571,0.0004
699,1.5149807333946228,1.5810012817382812,0.38461538461538464,0.8269230769230769,0.21428571428571427,0.8571428571428571,0.0004
700,1.5414779782295227,1.5220681428909302,0.4230769230769231,0.8269230769230769,0.21428571428571427,0.8571428571428571,0.0004
701,1.4882762432098389,1.5230145454406738,0.38461538461538464,0.8269230769230769,0.2857142857142857,0.8571428571428571,0.0004
702,1.5076075196266174,1.5144602060317993,0.38461538461538464,0.8269230769230769,0.2857142857142857,0.8571428571428571,0.0004
703,1.5902520418167114,1.504158854484558,0.34615384615384615,0.8269230769230769,0.2857142857142857,0.8571428571428571,0.0004
704,1.5253625512123108,1.4703974723815918,0.46153846153846156,0.8269230769230769,0.2857142857142857,0.8571428571428571,0.0004
705,1.5040331482887268,1.5053784847259521,0.40384615384615385,0.8269230769230769,0.21428571428571427,0.8571428571428571,0.0004
706,1.5518443584442139,1.4761335849761963,0.36538461538461536,0.8269230769230769,0.2857142857142857,0.8571428571428571,0.0004
707,1.5013507604599,1.5054559707641602,0.4423076923076923,0.8269230769230769,0.21428571428571427,0.8571428571428571,0.0004
708,1.5140008926391602,1.5180000066757202,0.4230769230769231,0.8269230769230769,0.21428571428571427,0.8571428571428571,0.0004
709,1.5510965585708618,1.4572553634643555,0.4230769230769231,0.8269230769230769,0.21428571428571427,0.8571428571428571,0.0004
710,1.5648270845413208,1.543135643005371,0.38461538461538464,0.8269230769230769,0.21428571428571427,0.8571428571428571,0.0004
711,1.5793882608413696,1.5034645795822144,0.36538461538461536,0.8269230769230769,0.2857142857142857,0.8571428571428571,0.0004
712,1.60606449842453,1.5171597003936768,0.36538461538461536,0.8269230769230769,0.2857142857142857,0.8571428571428571,0.0004
713,1.498909592628479,1.508097767829895,0.40384615384615385,0.8269230769230769,0.21428571428571427,0.8571428571428571,0.0004
714,1.525281548500061,1.457789659500122,0.4807692307692308,0.8269230769230769,0.2857142857142857,0.8571428571428571,0.0004
715,1.5637515187263489,1.4819846153259277,0.36538461538461536,0.8269230769230769,0.2857142857142857,0.8571428571428571,0.0004
716,1.467333436012268,1.4952871799468994,0.2692307692307692,0.8269230769230769,0.42857142857142855,0.8571428571428571,0.0004
717,1.5216602087020874,1.4829332828521729,0.4230769230769231,0.8269230769230769,0.42857142857142855,0.8571428571428571,0.0004
718,1.48364919424057,1.6031490564346313,0.25,0.8269230769230769,0.42857142857142855,0.8571428571428571,0.0004
719,1.5309696197509766,1.4547367095947266,0.40384615384615385,0.8269230769230769,0.42857142857142855,0.8571428571428571,0.0004
720,1.4700113534927368,1.504835844039917,0.40384615384615385,0.8269230769230769,0.2857142857142857,0.8571428571428571,0.0004
721,1.519886076450348,1.49721360206604,0.4423076923076923,0.8269230769230769,0.2857142857142857,0.8571428571428571,0.0004
722,1.5022491216659546,1.4981210231781006,0.38461538461538464,0.8269230769230769,0.5,0.8571428571428571,0.0004
723,1.49324369430542,1.5363335609436035,0.38461538461538464,0.8269230769230769,0.35714285714285715,0.8571428571428571,0.0004
724,1.5239582657814026,1.5715490579605103,0.40384615384615385,0.8269230769230769,0.21428571428571427,0.8571428571428571,0.0004
725,1.5538880825042725,1.6011834144592285,0.4230769230769231,0.8269230769230769,0.21428571428571427,0.8571428571428571,0.0004
726,1.502957046031952,1.601205825805664,0.3269230769230769,0.8269230769230769,0.2857142857142857,0.8571428571428571,0.0004
727,1.5084468126296997,1.5715848207473755,0.4423076923076923,0.8269230769230769,0.21428571428571427,0.8571428571428571,0.0004
728,1.5110170245170593,1.5512731075286865,0.4230769230769231,0.8269230769230769,0.21428571428571427,0.8571428571428571,0.0004
729,1.5303469896316528,1.5904974937438965,0.34615384615384615,0.8269230769230769,0.21428571428571427,0.8571428571428571,0.0004
730,1.6232814192771912,1.5040241479873657,0.3269230769230769,0.8269230769230769,0.21428571428571427,0.8571428571428571,0.0004
731,1.5630906224250793,1.5468189716339111,0.36538461538461536,0.8269230769230769,0.21428571428571427,0.8571428571428571,0.0004
732,1.5309497714042664,1.575951337814331,0.3269230769230769,0.8269230769230769,0.21428571428571427,0.8571428571428571,0.0004
733,1.5321117043495178,1.5225245952606201,0.4230769230769231,0.8269230769230769,0.2857142857142857,0.8571428571428571,0.0004
734,1.573261022567749,1.5174709558486938,0.36538461538461536,0.8269230769230769,0.2857142857142857,0.8571428571428571,0.0004
735,1.5629761219024658,1.4863929748535156,0.40384615384615385,0.8269230769230769,0.2857142857142857,0.8571428571428571,0.0004
736,1.568563461303711,1.4891597032546997,0.4230769230769231,0.8269230769230769,0.2857142857142857,0.8571428571428571,0.0004
737,1.4994426369667053,1.5214704275131226,0.40384615384615385,0.8269230769230769,0.42857142857142855,0.8571428571428571,0.0004
738,1.527790904045105,1.5459470748901367,0.28846153846153844,0.8269230769230769,0.21428571428571427,0.8571428571428571,0.0004
739,1.5858013033866882,1.4863920211791992,0.36538461538461536,0.8269230769230769,0.35714285714285715,0.8571428571428571,0.0004
740,1.4820501208305359,1.5057339668273926,0.4423076923076923,0.8269230769230769,0.2857142857142857,0.8571428571428571,0.0004
741,1.5454668998718262,1.4657890796661377,0.4230769230769231,0.8269230769230769,0.2857142857142857,0.8571428571428571,0.0004
742,1.5425620079040527,1.4679754972457886,0.3269230769230769,0.8269230769230769,0.35714285714285715,0.8571428571428571,0.0004
743,1.5357586741447449,1.4972600936889648,0.4423076923076923,0.8269230769230769,0.35714285714285715,0.8571428571428571,0.0004
744,1.49818617105484,1.511892557144165,0.4423076923076923,0.8269230769230769,0.2857142857142857,0.8571428571428571,0.0004
745,1.4832146167755127,1.5038387775421143,0.5384615384615384,0.8269230769230769,0.2857142857142857,0.8571428571428571,0.0004
746,1.527703881263733,1.4577114582061768,0.38461538461538464,0.8269230769230769,0.5,0.8571428571428571,0.0004
747,1.502384066581726,1.510991096496582,0.4423076923076923,0.8269230769230769,0.35714285714285715,0.8571428571428571,0.0004
748,1.5102894306182861,1.5458680391311646,0.4423076923076923,0.8269230769230769,0.21428571428571427,0.8571428571428571,0.0004
749,1.4345031380653381,1.45200514793396,0.4807692307692308,0.8269230769230769,0.35714285714285715,0.8571428571428571,0.0004
750,1.4873899817466736,1.5240583419799805,0.40384615384615385,0.8269230769230769,0.21428571428571427,0.8571428571428571,0.0004
751,1.5099777579307556,1.5133838653564453,0.4807692307692308,0.8269230769230769,0.35714285714285715,0.8571428571428571,0.0004
752,1.4950817823410034,1.522933840751648,0.4230769230769231,0.8269230769230769,0.2857142857142857,0.8571428571428571,0.0004
753,1.5008602738380432,1.5790138244628906,0.38461538461538464,0.8269230769230769,0.21428571428571427,0.8571428571428571,0.0004
754,1.4870807528495789,1.513421654701233,0.4423076923076923,0.8269230769230769,0.21428571428571427,0.8571428571428571,0.0004
755,1.484675407409668,1.4820832014083862,0.38461538461538464,0.8269230769230769,0.35714285714285715,0.8571428571428571,0.0004
756,1.5418860912322998,1.5557314157485962,0.36538461538461536,0.8269230769230769,0.2857142857142857,0.8571428571428571,0.0004
757,1.5000803470611572,1.5095272064208984,0.38461538461538464,0.8269230769230769,0.21428571428571427,0.8571428571428571,0.0004
758,1.5696472525596619,1.524842381477356,0.40384615384615385,0.8269230769230769,0.21428571428571427,0.8571428571428571,0.0004
759,1.5146738290786743,1.5664851665496826,0.4423076923076923,0.8269230769230769,0.2857142857142857,0.8571428571428571,0.0004
760,1.5691768527030945,1.432224988937378,0.3269230769230769,0.8269230769230769,0.35714285714285715,0.8571428571428571,0.0004
761,1.4974451065063477,1.5822043418884277,0.40384615384615385,0.8269230769230769,0.21428571428571427,0.8571428571428571,0.0004
762,1.5302244424819946,1.5526853799819946,0.34615384615384615,0.8269230769230769,0.2857142857142857,0.8571428571428571,0.0004
763,1.446346402168274,1.5094528198242188,0.36538461538461536,0.8269230769230769,0.2857142857142857,0.8571428571428571,0.0004
764,1.517521619796753,1.4726499319076538,0.38461538461538464,0.8269230769230769,0.42857142857142855,0.8571428571428571,0.0004
765,1.5654537081718445,1.4383506774902344,0.3269230769230769,0.8269230769230769,0.35714285714285715,0.8571428571428571,0.0004
766,1.423883080482483,1.5393273830413818,0.4230769230769231,0.8269230769230769,0.21428571428571427,0.8571428571428571,0.0004
767,1.5264083743095398,1.4711744785308838,0.3269230769230769,0.8269230769230769,0.35714285714285715,0.8571428571428571,0.0004
768,1.5858072638511658,1.6251323223114014,0.3269230769230769,0.8269230769230769,0.35714285714285715,0.8571428571428571,0.0004
769,1.5310479402542114,1.419784665107727,0.3269230769230769,0.8269230769230769,0.35714285714285715,0.8571428571428571,0.0004
770,1.5596920847892761,1.4114141464233398,0.3269230769230769,0.8269230769230769,0.35714285714285715,0.8571428571428571,0.0004
771,1.4972729682922363,1.3910878896713257,0.38461538461538464,0.8269230769230769,0.5,0.8571428571428571,0.0004
772,1.5440362691879272,1.55488121509552,0.46153846153846156,0.8269230769230769,0.21428571428571427,0.8571428571428571,0.0004
773,1.4758638739585876,1.4544528722763062,0.36538461538461536,0.8269230769230769,0.35714285714285715,0.8571428571428571,0.0004
774,1.4614694118499756,1.425816297531128,0.4423076923076923,0.8269230769230769,0.5,0.8571428571428571,0.0004
775,1.4892457127571106,1.4453147649765015,0.38461538461538464,0.8269230769230769,0.2857142857142857,0.8571428571428571,0.0004
776,1.4323484897613525,1.4360582828521729,0.5192307692307693,0.8269230769230769,0.35714285714285715,0.8571428571428571,0.0004
777,1.3709052205085754,1.4072880744934082,0.6346153846153846,0.8269230769230769,0.35714285714285715,0.8571428571428571,0.0004
778,1.4733769297599792,1.4524272680282593,0.40384615384615385,0.8269230769230769,0.42857142857142855,0.8571428571428571,0.0004
779,1.4669505953788757,1.5174448490142822,0.36538461538461536,0.8269230769230769,0.35714285714285715,0.8571428571428571,0.0004
780,1.4477819204330444,1.4349100589752197,0.38461538461538464,0.8269230769230769,0.21428571428571427,0.8571428571428571,0.0004
781,1.4272843599319458,1.5529968738555908,0.4423076923076923,0.8269230769230769,0.2857142857142857,0.8571428571428571,0.0004
782,1.4140251874923706,1.595404028892517,0.46153846153846156,0.8269230769230769,0.14285714285714285,0.8571428571428571,0.0004
783,1.3520191311836243,1.5886993408203125,0.46153846153846156,0.8269230769230769,0.21428571428571427,0.8571428571428571,0.0004
784,1.514988660812378,1.5065397024154663,0.36538461538461536,0.8269230769230769,0.21428571428571427,0.8571428571428571,0.0004
785,1.7158849239349365,1.5521401166915894,0.38461538461538464,0.8269230769230769,0.21428571428571427,0.8571428571428571,0.0004
786,1.5998748540878296,1.5506172180175781,0.38461538461538464,0.8269230769230769,0.2857142857142857,0.8571428571428571,0.0004
787,1.6478053331375122,1.4915359020233154,0.4230769230769231,0.8269230769230769,0.35714285714285715,0.8571428571428571,0.0004
788,1.5531266331672668,1.5116276741027832,0.40384615384615385,0.8269230769230769,0.2857142857142857,0.8571428571428571,0.0004
789,1.5304285883903503,1.5196181535720825,0.4230769230769231,0.8269230769230769,0.21428571428571427,0.8571428571428571,0.0004
790,1.4827939867973328,1.5016371011734009,0.4230769230769231,0.8269230769230769,0.2857142857142857,0.8571428571428571,0.0004
791,1.4543421268463135,1.5948153734207153,0.46153846153846156,0.8269230769230769,0.21428571428571427,0.8571428571428571,0.0004
792,1.492807149887085,1.5920979976654053,0.40384615384615385,0.8269230769230769,0.2857142857142857,0.8571428571428571,0.0004
793,1.5261307954788208,1.6186323165893555,0.40384615384615385,0.8269230769230769,0.21428571428571427,0.8571428571428571,0.0004
794,1.589328944683075,1.4968719482421875,0.38461538461538464,0.8269230769230769,0.35714285714285715,0.8571428571428571,0.0004
795,1.4843710064888,1.7136600017547607,0.4423076923076923,0.8269230769230769,0.21428571428571427,0.8571428571428571,0.0004
796,1.5542569160461426,1.557915210723877,0.36538461538461536,0.8269230769230769,0.2857142857142857,0.8571428571428571,0.0004
797,1.4774104952812195,1.5350799560546875,0.4230769230769231,0.8269230769230769,0.2857142857142857,0.8571428571428571,0.0004
798,1.5780333876609802,1.5349547863006592,0.36538461538461536,0.8269230769230769,0.2857142857142857,0.8571428571428571,0.0004
799,1.4955832362174988,1.4797773361206055,0.46153846153846156,0.8269230769230769,0.2857142857142857,0.8571428571428571,0.0004
800,1.4883759021759033,1.3808025121688843,0.38461538461538464,0.8269230769230769,0.35714285714285715,0.8571428571428571,0.0004
801,1.453874111175537,1.5608065128326416,0.4807692307692308,0.8269230769230769,0.2857142857142857,0.8571428571428571,0.0004
802,1.5127965807914734,1.453515648841858,0.38461538461538464,0.8269230769230769,0.35714285714285715,0.8571428571428571,0.0004
803,1.4951595067977905,1.479674220085144,0.38461538461538464,0.8269230769230769,0.35714285714285715,0.8571428571428571,0.0004
804,1.5045340657234192,1.4645107984542847,0.4807692307692308,0.8269230769230769,0.35714285714285715,0.8571428571428571,0.0004
805,1.4497523307800293,1.4398314952850342,0.5192307692307693,0.8269230769230769,0.42857142857142855,0.8571428571428571,0.0004
806,1.5167845487594604,1.3961650133132935,0.40384615384615385,0.8269230769230769,0.5,0.8571428571428571,0.0004
807,1.4138401746749878,1.3775312900543213,0.5,0.8269230769230769,0.42857142857142855,0.8571428571428571,0.0004
808,1.5017858147621155,1.3862743377685547,0.5,0.8269230769230769,0.5,0.8571428571428571,0.0004
809,1.4505435228347778,1.4909908771514893,0.5192307692307693,0.8269230769230769,0.5,0.8571428571428571,0.0004
810,1.4863052368164062,1.420562744140625,0.4423076923076923,0.8269230769230769,0.42857142857142855,0.8571428571428571,0.0004
811,1.4509006142616272,1.448986291885376,0.4230769230769231,0.8269230769230769,0.35714285714285715,0.8571428571428571,0.0004
812,1.5110788941383362,1.3683714866638184,0.4423076923076923,0.8269230769230769,0.5,0.8571428571428571,0.0004
813,1.4200630187988281,1.5736303329467773,0.28846153846153844,0.8269230769230769,0.2857142857142857,0.8571428571428571,0.0004
814,1.440900981426239,1.4499595165252686,0.4230769230769231,0.8269230769230769,0.42857142857142855,0.8571428571428571,0.0004
815,1.5199425220489502,1.6382598876953125,0.38461538461538464,0.8269230769230769,0.2857142857142857,0.8571428571428571,0.0004
816,1.4879437685012817,1.5336741209030151,0.4807692307692308,0.8269230769230769,0.35714285714285715,0.8571428571428571,0.0004
817,1.457199215888977,1.6175734996795654,0.46153846153846156,0.8269230769230769,0.42857142857142855,0.8571428571428571,0.0004
818,1.5095748901367188,1.5348341464996338,0.36538461538461536,0.8269230769230769,0.42857142857142855,0.8571428571428571,0.0004
819,1.5024740099906921,1.4064311981201172,0.4230769230769231,0.8269230769230769,0.35714285714285715,0.8571428571428571,0.0004
820,1.4757679104804993,1.534569263458252,0.40384615384615385,0.8269230769230769,0.35714285714285715,0.8571428571428571,0.0004
821,1.568725824356079,1.5083290338516235,0.25,0.8269230769230769,0.42857142857142855,0.8571428571428571,0.0004
822,1.6455358862876892,1.5448157787322998,0.40384615384615385,0.8269230769230769,0.42857142857142855,0.8571428571428571,0.0004
823,1.6060359477996826,1.5865293741226196,0.3269230769230769,0.8269230769230769,0.42857142857142855,0.8571428571428571,0.0004
824,1.6886345148086548,1.4945991039276123,0.3269230769230769,0.8269230769230769,0.5,0.8571428571428571,0.0004
825,1.6390696167945862,1.515965461730957,0.36538461538461536,0.8269230769230769,0.42857142857142855,0.8571428571428571,0.0004
826,1.606643795967102,1.488488793373108,0.40384615384615385,0.8269230769230769,0.42857142857142855,0.8571428571428571,0.0004
827,1.5570936799049377,1.331679105758667,0.28846153846153844,0.8269230769230769,0.42857142857142855,0.8571428571428571,0.0004
828,1.4060693979263306,1.3774833679199219,0.4423076923076923,0.8269230769230769,0.5714285714285714,0.8571428571428571,0.0004
829,1.4492031931877136,1.5468518733978271,0.46153846153846156,0.8269230769230769,0.42857142857142855,0.8571428571428571,0.0004
830,1.5322820544242859,1.4404064416885376,0.4230769230769231,0.8269230769230769,0.42857142857142855,0.8571428571428571,0.0004
831,1.5014620423316956,1.5739171504974365,0.5576923076923077,0.8269230769230769,0.42857142857142855,0.8571428571428571,0.0004
832,1.4849246144294739,1.5451972484588623,0.4807692307692308,0.8269230769230769,0.35714285714285715,0.8571428571428571,0.0004
833,1.4741304516792297,1.4775187969207764,0.5384615384615384,0.8269230769230769,0.42857142857142855,0.8571428571428571,0.0004
834,1.5213064551353455,1.6255229711532593,0.40384615384615385,0.8269230769230769,0.35714285714285715,0.8571428571428571,0.0004
835,1.5061619877815247,1.4418330192565918,0.46153846153846156,0.8269230769230769,0.42857142857142855,0.8571428571428571,0.0004
836,1.5423645973205566,1.4234423637390137,0.4807692307692308,0.8269230769230769,0.2857142857142857,0.8571428571428571,0.0004
837,1.488025963306427,1.386392593383789,0.4423076923076923,0.8269230769230769,0.35714285714285715,0.8571428571428571,0.0004
838,1.5062046647071838,1.4863380193710327,0.36538461538461536,0.8269230769230769,0.21428571428571427,0.8571428571428571,0.0004
839,1.4184871315956116,1.5455034971237183,0.5,0.8269230769230769,0.2857142857142857,0.8571428571428571,0.0004
840,1.482351541519165,1.4602417945861816,0.34615384615384615,0.8269230769230769,0.35714285714285715,0.8571428571428571,0.0004
841,1.5467168092727661,1.3084734678268433,0.3269230769230769,0.8269230769230769,0.5714285714285714,0.8571428571428571,0.0004
842,1.4044209718704224,1.4711437225341797,0.5,0.8269230769230769,0.2857142857142857,0.8571428571428571,0.0004
843,1.4363106489181519,1.700047254562378,0.5384615384615384,0.8269230769230769,0.35714285714285715,0.8571428571428571,0.0004
844,1.514266312122345,1.4422154426574707,0.4230769230769231,0.8269230769230769,0.2857142857142857,0.8571428571428571,0.0004
845,1.4614360332489014,1.4722561836242676,0.36538461538461536,0.8269230769230769,0.42857142857142855,0.8571428571428571,0.0004
846,1.4019669890403748,1.3544964790344238,0.46153846153846156,0.8269230769230769,0.35714285714285715,0.8571428571428571,0.0004
847,1.440453290939331,1.4092024564743042,0.40384615384615385,0.8269230769230769,0.42857142857142855,0.8571428571428571,0.0004
848,1.4512183666229248,1.492507815361023,0.4423076923076923,0.8269230769230769,0.6428571428571429,0.8571428571428571,0.0004
849,1.4522786140441895,1.5094659328460693,0.5,0.8269230769230769,0.35714285714285715,0.8571428571428571,0.0004
850,1.4042139649391174,1.4220783710479736,0.4230769230769231,0.8269230769230769,0.42857142857142855,0.8571428571428571,0.0004
851,1.3730786442756653,1.3056666851043701,0.5576923076923077,0.8269230769230769,0.6428571428571429,0.8571428571428571,0.0004
852,1.348070740699768,1.1697824001312256,0.4807692307692308,0.8269230769230769,0.6428571428571429,0.8571428571428571,0.0004
853,1.3263627886772156,1.31623113155365,0.46153846153846156,0.8269230769230769,0.5714285714285714,0.8571428571428571,0.0004
854,1.3156780004501343,1.3153096437454224,0.6153846153846154,0.8269230769230769,0.6428571428571429,0.8571428571428571,0.0004
855,1.2909295558929443,1.3838207721710205,0.5384615384615384,0.8269230769230769,0.5714285714285714,0.8571428571428571,0.0004
856,1.448907196521759,1.2449066638946533,0.4423076923076923,0.8269230769230769,0.6428571428571429,0.8571428571428571,0.0004
857,1.3227527141571045,1.209559679031372,0.4807692307692308,0.8269230769230769,0.5714285714285714,0.8571428571428571,0.0004
858,1.5706264972686768,1.4082551002502441,0.4807692307692308,0.8269230769230769,0.6428571428571429,0.8571428571428571,0.0004
859,1.2703012824058533,1.3831300735473633,0.6153846153846154,0.8269230769230769,0.6428571428571429,0.8571428571428571,0.0004
860,1.3994058966636658,1.1391806602478027,0.46153846153846156,0.8269230769230769,0.7142857142857143,0.8571428571428571,0.0004
861,1.5299586653709412,1.5111321210861206,0.4807692307692308,0.8269230769230769,0.42857142857142855,0.8571428571428571,0.0004
862,1.4425067901611328,1.5639169216156006,0.4807692307692308,0.8269230769230769,0.5,0.8571428571428571,0.0004
863,1.2675707340240479,1.5044243335723877,0.5769230769230769,0.8269230769230769,0.5,0.8571428571428571,0.0004
864,1.3348768949508667,1.2351113557815552,0.5384615384615384,0.8269230769230769,0.5714285714285714,0.8571428571428571,0.0004
865,1.386289894580841,1.5584324598312378,0.4807692307692308,0.8269230769230769,0.5,0.8571428571428571,0.0004
866,1.267025113105774,1.5080949068069458,0.5961538461538461,0.8269230769230769,0.35714285714285715,0.8571428571428571,0.0004
867,1.3063064813613892,1.1952431201934814,0.5769230769230769,0.8269230769230769,0.7142857142857143,0.8571428571428571,0.0004
868,1.463997483253479,1.34035062789917,0.5,0.8269230769230769,0.5714285714285714,0.8571428571428571,0.0004
869,1.1912811398506165,1.0901566743850708,0.6538461538461539,0.8269230769230769,0.9285714285714286,0.8571428571428571,0.0004
870,1.2572377920150757,1.6042531728744507,0.5769230769230769,0.8269230769230769,0.35714285714285715,0.8571428571428571,0.0004
871,1.3973308801651,1.36989164352417,0.5576923076923077,0.8269230769230769,0.5714285714285714,0.8571428571428571,0.0004
872,1.1623039841651917,1.579723834991455,0.7115384615384616,0.8269230769230769,0.42857142857142855,0.8571428571428571,0.0004
873,1.405510425567627,1.657607078552246,0.5,0.8269230769230769,0.42857142857142855,0.8571428571428571,0.0004
874,1.2907981872558594,1.378095269203186,0.5961538461538461,0.8269230769230769,0.5714285714285714,0.8571428571428571,0.0004
875,1.4518582820892334,1.155234932899475,0.4807692307692308,0.8269230769230769,0.6428571428571429,0.8571428571428571,0.0004
876,1.2110056281089783,1.2820669412612915,0.5961538461538461,0.8269230769230769,0.42857142857142855,0.8571428571428571,0.0004
877,1.3609981536865234,1.4901078939437866,0.5961538461538461,0.8269230769230769,0.42857142857142855,0.8571428571428571,0.0004
878,1.3044347763061523,1.528084635734558,0.5,0.8269230769230769,0.5,0.8571428571428571,0.0004
879,1.2154805064201355,1.45026695728302,0.5769230769230769,0.8269230769230769,0.42857142857142855,0.8571428571428571,0.0004
880,1.1928481459617615,1.5037845373153687,0.6346153846153846,0.8269230769230769,0.35714285714285715,0.8571428571428571,0.0004
881,1.1352553963661194,1.1533935070037842,0.6538461538461539,0.8269230769230769,0.7142857142857143,0.8571428571428571,0.0004
882,1.4085258841514587,1.1307038068771362,0.46153846153846156,0.8269230769230769,0.6428571428571429,0.8571428571428571,0.0004
883,1.2728899121284485,1.53190016746521,0.6346153846153846,0.8269230769230769,0.5714285714285714,0.8571428571428571,0.0004
884,1.2780445218086243,1.4863243103027344,0.5192307692307693,0.8269230769230769,0.5,0.8571428571428571,0.0004
885,1.2881150245666504,1.1887603998184204,0.5192307692307693,0.8269230769230769,0.5714285714285714,0.8571428571428571,0.0004
886,1.334733486175537,1.4844456911087036,0.5961538461538461,0.8269230769230769,0.5714285714285714,0.8571428571428571,0.0004
887,1.279689908027649,1.491381287574768,0.5384615384615384,0.8269230769230769,0.5,0.8571428571428571,0.0004
888,1.2841006517410278,1.0343530178070068,0.5769230769230769,0.8269230769230769,0.7857142857142857,0.8571428571428571,0.0004
889,1.3421615958213806,1.54325532913208,0.5384615384615384,0.8269230769230769,0.5714285714285714,0.8571428571428571,0.0004
890,1.2580334544181824,1.5738728046417236,0.5384615384615384,0.8269230769230769,0.5714285714285714,0.8571428571428571,0.0004
891,1.3385584354400635,1.3868672847747803,0.5769230769230769,0.8269230769230769,0.5714285714285714,0.8571428571428571,0.0004
892,1.2412320971488953,1.2209885120391846,0.6346153846153846,0.8269230769230769,0.5714285714285714,0.8571428571428571,0.0004
893,1.180428385734558,1.353663444519043,0.5769230769230769,0.8269230769230769,0.42857142857142855,0.8571428571428571,0.0004
894,1.250323474407196,1.3130826950073242,0.5769230769230769,0.8269230769230769,0.5,0.8571428571428571,0.0004
895,1.259975254535675,1.222698450088501,0.5384615384615384,0.8269230769230769,0.5,0.8571428571428571,0.0004
896,1.1641556024551392,1.384842038154602,0.5769230769230769,0.8269230769230769,0.5714285714285714,0.8571428571428571,0.0004
897,1.4601856470108032,1.1251726150512695,0.4807692307692308,0.8269230769230769,0.5714285714285714,0.8571428571428571,0.0004
898,1.3378384113311768,1.4536182880401611,0.5769230769230769,0.8461538461538461,0.5714285714285714,0.8571428571428571,0.0004
899,1.3583146333694458,1.586482286453247,0.4807692307692308,0.8269230769230769,0.5,0.8571428571428571,0.0004
900,1.2129738330841064,1.5059211254119873,0.5192307692307693,0.8461538461538461,0.5714285714285714,0.8571428571428571,0.0004
901,1.3216617703437805,1.6645455360412598,0.5576923076923077,0.8269230769230769,0.5,0.8571428571428571,0.0004
902,1.0929202437400818,1.3917624950408936,0.6730769230769231,0.8269230769230769,0.42857142857142855,0.8571428571428571,0.0004
903,1.2208380103111267,1.7044587135314941,0.5,0.8653846153846154,0.35714285714285715,0.8571428571428571,0.0004
904,1.1764416694641113,1.6783673763275146,0.6153846153846154,0.8461538461538461,0.5,0.8571428571428571,0.0004
905,1.5291787981987,1.5456994771957397,0.4807692307692308,0.8269230769230769,0.42857142857142855,0.8571428571428571,0.0004
906,1.1628437042236328,1.5608975887298584,0.6346153846153846,0.8461538461538461,0.5714285714285714,0.8571428571428571,0.0004
907,1.3670008182525635,1.6684925556182861,0.4807692307692308,0.8653846153846154,0.2857142857142857,0.8571428571428571,0.0004
908,1.2908164858818054,1.717254638671875,0.5961538461538461,0.8461538461538461,0.42857142857142855,0.8571428571428571,0.0004
909,1.230445146560669,1.4023804664611816,0.6346153846153846,0.8076923076923077,0.5714285714285714,0.8571428571428571,0.0004
910,1.1110296845436096,1.6844122409820557,0.6346153846153846,0.8846153846153846,0.35714285714285715,0.8571428571428571,0.0004
911,1.2419055700302124,1.5752527713775635,0.5192307692307693,0.8653846153846154,0.2857142857142857,0.8571428571428571,0.0004
912,1.2260069847106934,1.642884373664856,0.5961538461538461,0.9038461538461539,0.2857142857142857,0.8571428571428571,0.0004
913,1.2846814393997192,1.6465885639190674,0.5,0.8653846153846154,0.35714285714285715,0.8571428571428571,0.0004
914,1.2164503037929535,1.1579233407974243,0.5192307692307693,0.9038461538461539,0.5,0.8571428571428571,0.0004
915,1.3095898628234863,1.6927483081817627,0.5,0.8653846153846154,0.21428571428571427,0.7857142857142857,0.0004
916,1.3098934888839722,1.6924090385437012,0.5576923076923077,0.8653846153846154,0.21428571428571427,0.8571428571428571,0.0004
917,1.2115822434425354,1.4775829315185547,0.4807692307692308,0.8846153846153846,0.42857142857142855,0.8571428571428571,0.0004
918,1.2117787599563599,1.4480392932891846,0.6346153846153846,0.8461538461538461,0.42857142857142855,0.8571428571428571,0.0004
919,1.304944396018982,1.6396799087524414,0.5384615384615384,0.8846153846153846,0.5,0.8571428571428571,0.0004
920,1.5205206274986267,1.5864856243133545,0.36538461538461536,0.8461538461538461,0.5,0.8571428571428571,0.0004
921,1.3235381245613098,1.5103139877319336,0.5384615384615384,0.8846153846153846,0.5714285714285714,0.8571428571428571,0.0004
922,1.4121041893959045,1.7319917678833008,0.4423076923076923,0.8846153846153846,0.5,0.7857142857142857,0.0004
923,1.14780193567276,1.4872422218322754,0.5576923076923077,0.9423076923076923,0.5,0.8571428571428571,0.0004
924,1.3482759594917297,2.180354118347168,0.5192307692307693,0.8846153846153846,0.2857142857142857,0.7142857142857143,0.0004
925,1.2618542909622192,1.2584106922149658,0.5576923076923077,0.9038461538461539,0.5,0.9285714285714286,0.0004
926,1.3434927463531494,1.2065240144729614,0.5192307692307693,0.9038461538461539,0.42857142857142855,0.9285714285714286,0.0004
927,1.248305320739746,1.3395812511444092,0.5384615384615384,0.9038461538461539,0.5,0.8571428571428571,0.0004
928,1.3015062808990479,1.7015742063522339,0.46153846153846156,0.9038461538461539,0.42857142857142855,0.7857142857142857,0.0004
929,1.097424030303955,1.1881930828094482,0.5576923076923077,0.9615384615384616,0.5714285714285714,0.9285714285714286,0.0004
930,1.343143343925476,1.5562604665756226,0.5192307692307693,0.8846153846153846,0.35714285714285715,0.8571428571428571,0.0004
931,1.2801658511161804,1.4421534538269043,0.6153846153846154,0.9038461538461539,0.5,0.8571428571428571,0.0004
932,1.439741849899292,1.3806710243225098,0.4807692307692308,0.8461538461538461,0.5,0.8571428571428571,0.0004
933,1.4071711897850037,1.6529603004455566,0.46153846153846156,0.8653846153846154,0.2857142857142857,0.8571428571428571,0.0004
934,1.4966542720794678,1.4560915231704712,0.4423076923076923,0.8461538461538461,0.35714285714285715,0.8571428571428571,0.0004
935,1.4602928161621094,1.4141631126403809,0.3269230769230769,0.8269230769230769,0.5,0.8571428571428571,0.0004
936,1.561488926410675,1.4729238748550415,0.36538461538461536,0.8269230769230769,0.5,0.8571428571428571,0.0004
937,1.4760341048240662,1.3901022672653198,0.34615384615384615,0.8269230769230769,0.42857142857142855,0.8571428571428571,0.0004
938,1.3913960456848145,1.339048147201538,0.5192307692307693,0.8269230769230769,0.35714285714285715,0.8571428571428571,0.0004
939,1.5290395617485046,1.2710100412368774,0.34615384615384615,0.8269230769230769,0.5,0.8571428571428571,0.0004
940,1.5342049598693848,1.4210712909698486,0.4423076923076923,0.8269230769230769,0.5714285714285714,0.8571428571428571,0.0004
941,1.421868622303009,1.2954462766647339,0.5192307692307693,0.8269230769230769,0.6428571428571429,0.8571428571428571,0.0004
942,1.4141489267349243,1.4888982772827148,0.5576923076923077,0.8269230769230769,0.5,0.8571428571428571,0.0004
943,1.3739520907402039,1.3449273109436035,0.5192307692307693,0.8269230769230769,0.7142857142857143,0.8571428571428571,0.0004
944,1.36567622423172,1.6560719013214111,0.4230769230769231,0.8269230769230769,0.5,0.8571428571428571,0.0004
945,1.4927366971969604,1.6634148359298706,0.5192307692307693,0.8653846153846154,0.5,0.8571428571428571,0.0004
946,1.481767177581787,1.2289304733276367,0.5576923076923077,0.7884615384615384,0.6428571428571429,0.8571428571428571,0.0004
947,1.4874007105827332,1.5538618564605713,0.5384615384615384,0.8461538461538461,0.42857142857142855,0.8571428571428571,0.0004
948,1.4751238226890564,1.4770123958587646,0.5,0.8846153846153846,0.42857142857142855,0.7857142857142857,0.0004
949,1.303724765777588,1.3685741424560547,0.5961538461538461,0.8076923076923077,0.5,0.8571428571428571,0.0004
950,1.3250064849853516,1.4305973052978516,0.6153846153846154,0.8076923076923077,0.6428571428571429,0.8571428571428571,0.0004
951,1.2278380990028381,1.2230217456817627,0.6346153846153846,0.8269230769230769,0.6428571428571429,0.8571428571428571,0.0004
952,1.3148274421691895,1.2740193605422974,0.5,0.8269230769230769,0.5714285714285714,0.8571428571428571,0.0004
953,1.3127134442329407,1.3328421115875244,0.5576923076923077,0.8461538461538461,0.6428571428571429,0.8571428571428571,0.0004
954,1.2324645519256592,1.556410789489746,0.5961538461538461,0.8461538461538461,0.42857142857142855,0.8571428571428571,0.0004
955,1.5046195983886719,1.3381290435791016,0.5192307692307693,0.8269230769230769,0.7142857142857143,0.8571428571428571,0.0004
956,1.499242126941681,1.496430516242981,0.5,0.8269230769230769,0.5714285714285714,0.8571428571428571,0.0004
957,1.4340354204177856,1.399043083190918,0.5,0.8269230769230769,0.5714285714285714,0.8571428571428571,0.0004
958,1.4787145256996155,1.4487335681915283,0.4423076923076923,0.8461538461538461,0.5,0.8571428571428571,0.0004
959,1.299915075302124,1.4695130586624146,0.5192307692307693,0.8653846153846154,0.5,0.8571428571428571,0.0004
960,1.3636835813522339,1.4193601608276367,0.4807692307692308,0.8653846153846154,0.5,0.8571428571428571,0.0004
961,1.3096133470535278,1.3314250707626343,0.5,0.8461538461538461,0.6428571428571429,0.8571428571428571,0.0004
962,1.2133708000183105,1.4396545886993408,0.5384615384615384,0.8653846153846154,0.5,0.8571428571428571,0.0004
963,1.3675473928451538,1.4423171281814575,0.4423076923076923,0.8846153846153846,0.6428571428571429,0.8571428571428571,0.0004
964,1.3328725695610046,1.2946207523345947,0.5961538461538461,0.8846153846153846,0.5714285714285714,0.7857142857142857,0.0004
965,1.1457046270370483,1.4048404693603516,0.5384615384615384,0.8846153846153846,0.5,0.8571428571428571,0.0004
966,1.2652230858802795,1.89872407913208,0.5192307692307693,0.9230769230769231,0.21428571428571427,0.7142857142857143,0.0004
967,1.204986035823822,1.3624542951583862,0.5192307692307693,0.8653846153846154,0.6428571428571429,0.7857142857142857,0.0004
