epoch,train_loss,val_loss,train_acc_action,train_acc_status,val_acc_action,val_acc_status,learning_rate
1,1.7973403334617615,1.7876341342926025,0.3269230769230769,0.17307692307692307,0.35714285714285715,0.8571428571428571,0.0004
2,1.7860479354858398,1.7765164375305176,0.3269230769230769,0.8269230769230769,0.35714285714285715,0.8571428571428571,0.0004
3,1.773729681968689,1.7642326354980469,0.3269230769230769,0.8269230769230769,0.35714285714285715,0.8571428571428571,0.0004
4,1.7600164413452148,1.7528197765350342,0.3269230769230769,0.8269230769230769,0.35714285714285715,0.8571428571428571,0.0004
5,1.7543174028396606,1.7391209602355957,0.3269230769230769,0.8269230769230769,0.21428571428571427,0.8571428571428571,0.0004
6,1.7350443005561829,1.7169429063796997,0.38461538461538464,0.8269230769230769,0.21428571428571427,0.8571428571428571,0.0004
7,1.7121682167053223,1.6799163818359375,0.36538461538461536,0.8269230769230769,0.21428571428571427,0.8571428571428571,0.0004
8,1.6851537823677063,1.6218328475952148,0.36538461538461536,0.8269230769230769,0.21428571428571427,0.8571428571428571,0.0004
9,1.613739013671875,1.5549453496932983,0.36538461538461536,0.8269230769230769,0.21428571428571427,0.8571428571428571,0.0004
10,1.582474708557129,1.5209417343139648,0.36538461538461536,0.8269230769230769,0.21428571428571427,0.8571428571428571,0.0004
11,1.5717471837997437,1.5228641033172607,0.36538461538461536,0.8269230769230769,0.21428571428571427,0.8571428571428571,0.0004
12,1.5583555102348328,1.5298688411712646,0.36538461538461536,0.8269230769230769,0.21428571428571427,0.8571428571428571,0.0004
13,1.600956916809082,1.5344257354736328,0.36538461538461536,0.8269230769230769,0.21428571428571427,0.8571428571428571,0.0004
14,1.5585147142410278,1.5346519947052002,0.36538461538461536,0.8269230769230769,0.21428571428571427,0.8571428571428571,0.0004
15,1.5988951325416565,1.5376911163330078,0.36538461538461536,0.8269230769230769,0.21428571428571427,0.8571428571428571,0.0004
16,1.595384657382965,1.5398991107940674,0.36538461538461536,0.8269230769230769,0.21428571428571427,0.8571428571428571,0.0004
17,1.5890772342681885,1.540213942527771,0.36538461538461536,0.8269230769230769,0.21428571428571427,0.8571428571428571,0.0004
18,1.5626978874206543,1.5398324728012085,0.36538461538461536,0.8269230769230769,0.21428571428571427,0.8571428571428571,0.0004
19,1.552194058895111,1.5412356853485107,0.36538461538461536,0.8269230769230769,0.21428571428571427,0.8571428571428571,0.0004
20,1.5649954676628113,1.5422091484069824,0.36538461538461536,0.8269230769230769,0.21428571428571427,0.8571428571428571,0.0004
21,1.5278856754302979,1.543283224105835,0.36538461538461536,0.8269230769230769,0.21428571428571427,0.8571428571428571,0.0004
22,1.5677565336227417,1.5443546772003174,0.36538461538461536,0.8269230769230769,0.21428571428571427,0.8571428571428571,0.0004
23,1.5449638366699219,1.5448025465011597,0.36538461538461536,0.8269230769230769,0.21428571428571427,0.8571428571428571,0.0004
24,1.542588233947754,1.544145107269287,0.36538461538461536,0.8269230769230769,0.21428571428571427,0.8571428571428571,0.0004
25,1.5814568996429443,1.5431827306747437,0.36538461538461536,0.8269230769230769,0.21428571428571427,0.8571428571428571,0.0004
26,1.5257797837257385,1.5416698455810547,0.36538461538461536,0.8269230769230769,0.21428571428571427,0.8571428571428571,0.0004
27,1.5520049929618835,1.54012131690979,0.36538461538461536,0.8269230769230769,0.21428571428571427,0.8571428571428571,0.0004
28,1.5994442105293274,1.5388896465301514,0.36538461538461536,0.8269230769230769,0.21428571428571427,0.8571428571428571,0.0004
29,1.535563588142395,1.5362101793289185,0.36538461538461536,0.8269230769230769,0.21428571428571427,0.8571428571428571,0.0004
30,1.5627387762069702,1.5341771841049194,0.36538461538461536,0.8269230769230769,0.21428571428571427,0.8571428571428571,0.0004
31,1.5342904925346375,1.5331695079803467,0.36538461538461536,0.8269230769230769,0.21428571428571427,0.8571428571428571,0.0004
32,1.5859898924827576,1.5332531929016113,0.36538461538461536,0.8269230769230769,0.21428571428571427,0.8571428571428571,0.0004
33,1.5629721283912659,1.5319395065307617,0.36538461538461536,0.8269230769230769,0.21428571428571427,0.8571428571428571,0.0004
34,1.5362547636032104,1.5315172672271729,0.36538461538461536,0.8269230769230769,0.21428571428571427,0.8571428571428571,0.0004
35,1.5481830835342407,1.5308783054351807,0.36538461538461536,0.8269230769230769,0.21428571428571427,0.8571428571428571,0.0004
36,1.5444693565368652,1.5304774045944214,0.36538461538461536,0.8269230769230769,0.21428571428571427,0.8571428571428571,0.0004
37,1.5325427651405334,1.5316345691680908,0.36538461538461536,0.8269230769230769,0.21428571428571427,0.8571428571428571,0.0004
38,1.6050149202346802,1.533381700515747,0.36538461538461536,0.8269230769230769,0.21428571428571427,0.8571428571428571,0.0004
39,1.5479108095169067,1.533562183380127,0.36538461538461536,0.8269230769230769,0.21428571428571427,0.8571428571428571,0.0004
40,1.5478011965751648,1.5340644121170044,0.36538461538461536,0.8269230769230769,0.21428571428571427,0.8571428571428571,0.0004
41,1.548211395740509,1.5348461866378784,0.36538461538461536,0.8269230769230769,0.21428571428571427,0.8571428571428571,0.0004
42,1.5568171739578247,1.5361475944519043,0.36538461538461536,0.8269230769230769,0.21428571428571427,0.8571428571428571,0.0004
43,1.5664017796516418,1.5360511541366577,0.36538461538461536,0.8269230769230769,0.21428571428571427,0.8571428571428571,0.0004
44,1.5676167011260986,1.5358211994171143,0.36538461538461536,0.8269230769230769,0.21428571428571427,0.8571428571428571,0.0004
45,1.569760501384735,1.5353566408157349,0.36538461538461536,0.8269230769230769,0.21428571428571427,0.8571428571428571,0.0004
46,1.5806671977043152,1.53413724899292,0.36538461538461536,0.8269230769230769,0.21428571428571427,0.8571428571428571,0.0004
47,1.5661017894744873,1.533165693283081,0.36538461538461536,0.8269230769230769,0.21428571428571427,0.8571428571428571,0.0004
48,1.533240795135498,1.532314658164978,0.36538461538461536,0.8269230769230769,0.21428571428571427,0.8571428571428571,0.0004
49,1.5783511400222778,1.5317106246948242,0.36538461538461536,0.8269230769230769,0.21428571428571427,0.8571428571428571,0.0004
50,1.5501498579978943,1.5317566394805908,0.36538461538461536,0.8269230769230769,0.21428571428571427,0.8571428571428571,0.0004
51,1.5318272113800049,1.5317686796188354,0.36538461538461536,0.8269230769230769,0.21428571428571427,0.8571428571428571,4e-05
52,1.5635215044021606,1.5317968130111694,0.36538461538461536,0.8269230769230769,0.21428571428571427,0.8571428571428571,4e-05
53,1.5265820026397705,1.5319640636444092,0.36538461538461536,0.8269230769230769,0.21428571428571427,0.8571428571428571,4e-05
54,1.53489351272583,1.5319557189941406,0.36538461538461536,0.8269230769230769,0.21428571428571427,0.8571428571428571,4e-05
55,1.547318935394287,1.5319609642028809,0.36538461538461536,0.8269230769230769,0.21428571428571427,0.8571428571428571,4e-05
56,1.5494568347930908,1.5320225954055786,0.36538461538461536,0.8269230769230769,0.21428571428571427,0.8571428571428571,4e-05
57,1.5674270391464233,1.5321502685546875,0.36538461538461536,0.8269230769230769,0.21428571428571427,0.8571428571428571,4e-05
58,1.548145353794098,1.5321789979934692,0.36538461538461536,0.8269230769230769,0.21428571428571427,0.8571428571428571,4e-05
59,1.564064085483551,1.532325029373169,0.36538461538461536,0.8269230769230769,0.21428571428571427,0.8571428571428571,4e-05
60,1.5333411693572998,1.532400369644165,0.36538461538461536,0.8269230769230769,0.21428571428571427,0.8571428571428571,4e-05
61,1.5242257118225098,1.532582402229309,0.36538461538461536,0.8269230769230769,0.21428571428571427,0.8571428571428571,4e-05
62,1.5478419065475464,1.5326534509658813,0.36538461538461536,0.8269230769230769,0.21428571428571427,0.8571428571428571,4e-05
63,1.5331925749778748,1.5328049659729004,0.36538461538461536,0.8269230769230769,0.21428571428571427,0.8571428571428571,4e-05
64,1.5787681341171265,1.5329397916793823,0.36538461538461536,0.8269230769230769,0.21428571428571427,0.8571428571428571,4e-05
65,1.5632749795913696,1.5330884456634521,0.36538461538461536,0.8269230769230769,0.21428571428571427,0.8571428571428571,4e-05
66,1.5526419878005981,1.5332646369934082,0.36538461538461536,0.8269230769230769,0.21428571428571427,0.8571428571428571,4e-05
67,1.5968151092529297,1.5334105491638184,0.36538461538461536,0.8269230769230769,0.21428571428571427,0.8571428571428571,4e-05
68,1.5468817949295044,1.5334551334381104,0.36538461538461536,0.8269230769230769,0.21428571428571427,0.8571428571428571,4e-05
69,1.5805277824401855,1.5336050987243652,0.36538461538461536,0.8269230769230769,0.21428571428571427,0.8571428571428571,4e-05
70,1.595062255859375,1.53367280960083,0.36538461538461536,0.8269230769230769,0.21428571428571427,0.8571428571428571,4e-05
71,1.5473693013191223,1.5337471961975098,0.36538461538461536,0.8269230769230769,0.21428571428571427,0.8571428571428571,4e-05
72,1.553315818309784,1.5339044332504272,0.36538461538461536,0.8269230769230769,0.21428571428571427,0.8571428571428571,4e-05
73,1.5622526407241821,1.5339922904968262,0.36538461538461536,0.8269230769230769,0.21428571428571427,0.8571428571428571,4e-05
74,1.5199373960494995,1.5341130495071411,0.36538461538461536,0.8269230769230769,0.21428571428571427,0.8571428571428571,4e-05
75,1.544917643070221,1.5342133045196533,0.36538461538461536,0.8269230769230769,0.21428571428571427,0.8571428571428571,4e-05
76,1.569978654384613,1.5343945026397705,0.36538461538461536,0.8269230769230769,0.21428571428571427,0.8571428571428571,4e-05
77,1.5362461805343628,1.5344938039779663,0.36538461538461536,0.8269230769230769,0.21428571428571427,0.8571428571428571,4e-05
78,1.551522970199585,1.5345697402954102,0.36538461538461536,0.8269230769230769,0.21428571428571427,0.8571428571428571,4e-05
79,1.5918952226638794,1.5345914363861084,0.36538461538461536,0.8269230769230769,0.21428571428571427,0.8571428571428571,4e-05
80,1.5345368385314941,1.534639835357666,0.36538461538461536,0.8269230769230769,0.21428571428571427,0.8571428571428571,4e-05
81,1.5790286660194397,1.534692645072937,0.36538461538461536,0.8269230769230769,0.21428571428571427,0.8571428571428571,4e-05
82,1.5829561352729797,1.534749150276184,0.36538461538461536,0.8269230769230769,0.21428571428571427,0.8571428571428571,4e-05
83,1.5491204857826233,1.5347615480422974,0.36538461538461536,0.8269230769230769,0.21428571428571427,0.8571428571428571,4e-05
84,1.5795583128929138,1.5347603559494019,0.36538461538461536,0.8269230769230769,0.21428571428571427,0.8571428571428571,4e-05
85,1.5756691694259644,1.5347381830215454,0.36538461538461536,0.8269230769230769,0.21428571428571427,0.8571428571428571,4e-05
86,1.5924237966537476,1.5348259210586548,0.36538461538461536,0.8269230769230769,0.21428571428571427,0.8571428571428571,4e-05
87,1.5648992657661438,1.5348622798919678,0.36538461538461536,0.8269230769230769,0.21428571428571427,0.8571428571428571,4e-05
88,1.548535406589508,1.5349247455596924,0.36538461538461536,0.8269230769230769,0.21428571428571427,0.8571428571428571,4e-05
89,1.533534049987793,1.5349687337875366,0.36538461538461536,0.8269230769230769,0.21428571428571427,0.8571428571428571,4e-05
90,1.5788041949272156,1.5350563526153564,0.36538461538461536,0.8269230769230769,0.21428571428571427,0.8571428571428571,4e-05
91,1.5637919902801514,1.535131812095642,0.36538461538461536,0.8269230769230769,0.21428571428571427,0.8571428571428571,4e-05
92,1.535279095172882,1.53519606590271,0.36538461538461536,0.8269230769230769,0.21428571428571427,0.8571428571428571,4e-05
93,1.534676194190979,1.535276174545288,0.36538461538461536,0.8269230769230769,0.21428571428571427,0.8571428571428571,4e-05
94,1.5349186062812805,1.5353401899337769,0.36538461538461536,0.8269230769230769,0.21428571428571427,0.8571428571428571,4e-05
95,1.5631663799285889,1.5353868007659912,0.36538461538461536,0.8269230769230769,0.21428571428571427,0.8571428571428571,4e-05
96,1.5434654355049133,1.5354622602462769,0.36538461538461536,0.8269230769230769,0.21428571428571427,0.8571428571428571,4e-05
97,1.5362927317619324,1.5356311798095703,0.36538461538461536,0.8269230769230769,0.21428571428571427,0.8571428571428571,4e-05
98,1.5754400491714478,1.5357403755187988,0.36538461538461536,0.8269230769230769,0.21428571428571427,0.8571428571428571,4e-05
99,1.5783673524856567,1.5358741283416748,0.36538461538461536,0.8269230769230769,0.21428571428571427,0.8571428571428571,4e-05
100,1.5777032375335693,1.5360307693481445,0.36538461538461536,0.8269230769230769,0.21428571428571427,0.8571428571428571,4e-05
101,1.5933557748794556,1.5360311269760132,0.36538461538461536,0.8269230769230769,0.21428571428571427,0.8571428571428571,4.000000000000001e-06
102,1.5363640189170837,1.5360783338546753,0.36538461538461536,0.8269230769230769,0.21428571428571427,0.8571428571428571,4.000000000000001e-06
103,1.5596308708190918,1.5360790491104126,0.36538461538461536,0.8269230769230769,0.21428571428571427,0.8571428571428571,4.000000000000001e-06
104,1.594699740409851,1.5360828638076782,0.36538461538461536,0.8269230769230769,0.21428571428571427,0.8571428571428571,4.000000000000001e-06
105,1.5031853318214417,1.5361000299453735,0.36538461538461536,0.8269230769230769,0.21428571428571427,0.8571428571428571,4.000000000000001e-06
106,1.5607306361198425,1.5361310243606567,0.36538461538461536,0.8269230769230769,0.21428571428571427,0.8571428571428571,4.000000000000001e-06
107,1.5486348867416382,1.5361372232437134,0.36538461538461536,0.8269230769230769,0.21428571428571427,0.8571428571428571,4.000000000000001e-06
108,1.5910584926605225,1.5361618995666504,0.36538461538461536,0.8269230769230769,0.21428571428571427,0.8571428571428571,4.000000000000001e-06
109,1.576547384262085,1.536177635192871,0.36538461538461536,0.8269230769230769,0.21428571428571427,0.8571428571428571,4.000000000000001e-06
110,1.5776879787445068,1.536202073097229,0.36538461538461536,0.8269230769230769,0.21428571428571427,0.8571428571428571,4.000000000000001e-06
111,1.5200408101081848,1.5362305641174316,0.36538461538461536,0.8269230769230769,0.21428571428571427,0.8571428571428571,4.000000000000001e-06
112,1.5527545809745789,1.5362383127212524,0.36538461538461536,0.8269230769230769,0.21428571428571427,0.8571428571428571,4.000000000000001e-06
113,1.555118203163147,1.5362727642059326,0.36538461538461536,0.8269230769230769,0.21428571428571427,0.8571428571428571,4.000000000000001e-06
114,1.5659695863723755,1.536253571510315,0.36538461538461536,0.8269230769230769,0.21428571428571427,0.8571428571428571,4.000000000000001e-06
115,1.5724892616271973,1.5362627506256104,0.36538461538461536,0.8269230769230769,0.21428571428571427,0.8571428571428571,4.000000000000001e-06
116,1.5666872262954712,1.5362513065338135,0.36538461538461536,0.8269230769230769,0.21428571428571427,0.8571428571428571,4.000000000000001e-06
117,1.5544639825820923,1.5362272262573242,0.36538461538461536,0.8269230769230769,0.21428571428571427,0.8571428571428571,4.000000000000001e-06
118,1.56317538022995,1.5362181663513184,0.36538461538461536,0.8269230769230769,0.21428571428571427,0.8571428571428571,4.000000000000001e-06
119,1.5672905445098877,1.536200761795044,0.36538461538461536,0.8269230769230769,0.21428571428571427,0.8571428571428571,4.000000000000001e-06
120,1.5811151266098022,1.53617525100708,0.36538461538461536,0.8269230769230769,0.21428571428571427,0.8571428571428571,4.000000000000001e-06
121,1.5701316595077515,1.5361665487289429,0.36538461538461536,0.8269230769230769,0.21428571428571427,0.8571428571428571,4.000000000000001e-06
122,1.5463245511054993,1.536129355430603,0.36538461538461536,0.8269230769230769,0.21428571428571427,0.8571428571428571,4.000000000000001e-06
123,1.5638283491134644,1.5361016988754272,0.36538461538461536,0.8269230769230769,0.21428571428571427,0.8571428571428571,4.000000000000001e-06
124,1.5323912501335144,1.5360932350158691,0.36538461538461536,0.8269230769230769,0.21428571428571427,0.8571428571428571,4.000000000000001e-06
125,1.5619785785675049,1.5360877513885498,0.36538461538461536,0.8269230769230769,0.21428571428571427,0.8571428571428571,4.000000000000001e-06
126,1.5375024676322937,1.5360701084136963,0.36538461538461536,0.8269230769230769,0.21428571428571427,0.8571428571428571,4.000000000000001e-06
127,1.5520938038825989,1.5360592603683472,0.36538461538461536,0.8269230769230769,0.21428571428571427,0.8571428571428571,4.000000000000001e-06
128,1.5625189542770386,1.536039113998413,0.36538461538461536,0.8269230769230769,0.21428571428571427,0.8571428571428571,4.000000000000001e-06
129,1.5492314100265503,1.5360251665115356,0.36538461538461536,0.8269230769230769,0.21428571428571427,0.8571428571428571,4.000000000000001e-06
130,1.5643035769462585,1.536030888557434,0.36538461538461536,0.8269230769230769,0.21428571428571427,0.8571428571428571,4.000000000000001e-06
131,1.56773442029953,1.5360174179077148,0.36538461538461536,0.8269230769230769,0.21428571428571427,0.8571428571428571,4.000000000000001e-06
132,1.595153570175171,1.5359959602355957,0.36538461538461536,0.8269230769230769,0.21428571428571427,0.8571428571428571,4.000000000000001e-06
133,1.5626544952392578,1.5360147953033447,0.36538461538461536,0.8269230769230769,0.21428571428571427,0.8571428571428571,4.000000000000001e-06
134,1.521336853504181,1.5359777212142944,0.36538461538461536,0.8269230769230769,0.21428571428571427,0.8571428571428571,4.000000000000001e-06
135,1.5519928336143494,1.535961389541626,0.36538461538461536,0.8269230769230769,0.21428571428571427,0.8571428571428571,4.000000000000001e-06
136,1.5613359808921814,1.5359700918197632,0.36538461538461536,0.8269230769230769,0.21428571428571427,0.8571428571428571,4.000000000000001e-06
137,1.6090866327285767,1.5359511375427246,0.36538461538461536,0.8269230769230769,0.21428571428571427,0.8571428571428571,4.000000000000001e-06
138,1.5498393177986145,1.5359585285186768,0.36538461538461536,0.8269230769230769,0.21428571428571427,0.8571428571428571,4.000000000000001e-06
139,1.594419240951538,1.5359299182891846,0.36538461538461536,0.8269230769230769,0.21428571428571427,0.8571428571428571,4.000000000000001e-06
140,1.5516483187675476,1.5359470844268799,0.36538461538461536,0.8269230769230769,0.21428571428571427,0.8571428571428571,4.000000000000001e-06
141,1.5504544377326965,1.5359126329421997,0.36538461538461536,0.8269230769230769,0.21428571428571427,0.8571428571428571,4.000000000000001e-06
142,1.547455370426178,1.53590989112854,0.36538461538461536,0.8269230769230769,0.21428571428571427,0.8571428571428571,4.000000000000001e-06
143,1.535191535949707,1.5359104871749878,0.36538461538461536,0.8269230769230769,0.21428571428571427,0.8571428571428571,4.000000000000001e-06
144,1.553298830986023,1.5359007120132446,0.36538461538461536,0.8269230769230769,0.21428571428571427,0.8571428571428571,4.000000000000001e-06
145,1.5329296588897705,1.5358901023864746,0.36538461538461536,0.8269230769230769,0.21428571428571427,0.8571428571428571,4.000000000000001e-06
146,1.551438808441162,1.5358924865722656,0.36538461538461536,0.8269230769230769,0.21428571428571427,0.8571428571428571,4.000000000000001e-06
147,1.5818347334861755,1.5358861684799194,0.36538461538461536,0.8269230769230769,0.21428571428571427,0.8571428571428571,4.000000000000001e-06
148,1.5498288869857788,1.535867691040039,0.36538461538461536,0.8269230769230769,0.21428571428571427,0.8571428571428571,4.000000000000001e-06
149,1.5346418023109436,1.5358619689941406,0.36538461538461536,0.8269230769230769,0.21428571428571427,0.8571428571428571,4.000000000000001e-06
150,1.5841894745826721,1.535858392715454,0.36538461538461536,0.8269230769230769,0.21428571428571427,0.8571428571428571,4.000000000000001e-06
151,1.5503122210502625,1.5358595848083496,0.36538461538461536,0.8269230769230769,0.21428571428571427,0.8571428571428571,4.000000000000001e-07
