epoch,train_loss,val_loss,train_acc_action,train_acc_status,val_acc_action,val_acc_status,learning_rate
1,1.7713043689727783,1.7672901153564453,0.36538461538461536,0.8269230769230769,0.21428571428571427,0.8571428571428571,0.0004
2,1.7113614082336426,1.5234719514846802,0.36538461538461536,0.8269230769230769,0.21428571428571427,0.8571428571428571,0.004995066821070679
3,1.5481135249137878,2.2901816368103027,0.36538461538461536,0.8269230769230769,0.21428571428571427,0.8571428571428571,0.004980286753286195
4,2.0114057064056396,1.5838141441345215,0.36538461538461536,0.8269230769230769,0.5,0.8571428571428571,0.004955718126821722
5,1.6065760254859924,1.3908065557479858,0.4423076923076923,0.8269230769230769,0.5,0.8571428571428571,0.004921457902821578
6,1.5132730603218079,1.4551053047180176,0.40384615384615385,0.8269230769230769,0.5,0.8571428571428571,0.0048776412907378846
7,1.5139684677124023,1.5052354335784912,0.5,0.8269230769230769,0.5,0.8571428571428571,0.004824441214720628
8,1.4828463792800903,1.2533626556396484,0.6153846153846154,0.8269230769230769,0.7857142857142857,0.8571428571428571,0.004762067631165049
9,1.389203667640686,1.5319591760635376,0.6346153846153846,0.8269230769230769,0.5,0.8571428571428571,0.0046907667001096585
10,1.6136648654937744,1.4198269844055176,0.46153846153846156,0.8269230769230769,0.5714285714285714,0.8571428571428571,0.004610819813755038
11,1.400861382484436,1.4354974031448364,0.5769230769230769,0.8269230769230769,0.5714285714285714,0.8571428571428571,0.0045225424859373685
12,1.376814067363739,1.3309650421142578,0.5384615384615384,0.8269230769230769,0.6428571428571429,0.8571428571428571,0.004426283106939473
13,1.3598800301551819,1.2456907033920288,0.5576923076923077,0.8269230769230769,0.5714285714285714,0.8571428571428571,0.004322421568553529
14,1.3501123189926147,1.3737788200378418,0.5384615384615384,0.8269230769230769,0.7142857142857143,0.8571428571428571,0.004211367764821722
15,1.3450933694839478,1.2563273906707764,0.5384615384615384,0.8269230769230769,0.6428571428571429,0.8571428571428571,0.004093559974371724
16,1.352111041545868,1.2477980852127075,0.5961538461538461,0.8269230769230769,0.6428571428571429,0.8571428571428571,0.003969463130731183
17,1.57850980758667,1.1542279720306396,0.5384615384615384,0.8269230769230769,0.6428571428571429,0.8571428571428571,0.0038395669874474914
18,1.4425632953643799,1.3522565364837646,0.5384615384615384,0.8269230769230769,0.6428571428571429,0.8571428571428571,0.0037043841852542883
19,1.3352804780006409,1.4081820249557495,0.5192307692307693,0.8269230769230769,0.5714285714285714,0.8571428571428571,0.003564448228912682
20,1.389022171497345,1.1517244577407837,0.5192307692307693,0.8269230769230769,0.7142857142857143,0.8571428571428571,0.0034203113817116953
21,1.2285312414169312,1.226670265197754,0.5769230769230769,0.8269230769230769,0.7857142857142857,0.8571428571428571,0.0032725424859373687
22,1.337717354297638,1.1205161809921265,0.5769230769230769,0.8269230769230769,0.6428571428571429,0.8571428571428571,0.0031217247179121366
23,1.2976869940757751,1.119460105895996,0.6346153846153846,0.8269230769230769,0.7857142857142857,0.8571428571428571,0.002968453286464312
24,1.312157690525055,1.1904776096343994,0.5961538461538461,0.8269230769230769,0.8571428571428571,0.8571428571428571,0.002813333083910761
25,1.342724084854126,1.3463037014007568,0.5769230769230769,0.8269230769230769,0.7142857142857143,0.8571428571428571,0.0026569762988232835
26,1.211446762084961,1.086942195892334,0.6346153846153846,0.8269230769230769,0.7857142857142857,0.8571428571428571,0.0025
27,1.3891292810440063,1.2267519235610962,0.6153846153846154,0.8269230769230769,0.7142857142857143,0.8571428571428571,0.0023430237011767166
28,1.3137765526771545,1.1907439231872559,0.5961538461538461,0.8269230769230769,0.6428571428571429,0.8571428571428571,0.0021866669160892395
29,1.2048896551132202,1.280982255935669,0.6538461538461539,0.8269230769230769,0.7142857142857143,0.8571428571428571,0.0020315467135356884
30,1.3084060549736023,1.0434131622314453,0.5961538461538461,0.8269230769230769,0.7857142857142857,0.8571428571428571,0.0018782752820878628
31,1.3721129298210144,1.1190776824951172,0.5384615384615384,0.8269230769230769,0.7142857142857143,0.8571428571428571,0.0017274575140626323
32,1.2276487946510315,1.2200751304626465,0.5961538461538461,0.8269230769230769,0.6428571428571429,0.8571428571428571,0.0015796886182883059
33,1.3060473799705505,1.173252820968628,0.6730769230769231,0.8269230769230769,0.6428571428571429,0.8571428571428571,0.0014355517710873183
34,1.2221910953521729,1.1640276908874512,0.6538461538461539,0.8269230769230769,0.7857142857142857,0.8571428571428571,0.0012956158147457114
35,1.1953417658805847,0.9280275106430054,0.5769230769230769,0.8269230769230769,0.8571428571428571,0.8571428571428571,0.0011604330125525079
36,1.1626625061035156,1.1431946754455566,0.6538461538461539,0.8269230769230769,0.8571428571428571,0.8571428571428571,0.0010305368692688174
37,1.2710722088813782,1.189280390739441,0.6153846153846154,0.8269230769230769,0.7142857142857143,0.8571428571428571,0.0009064400256282757
38,1.0184010863304138,0.9623576402664185,0.6923076923076923,0.8269230769230769,0.7857142857142857,0.8571428571428571,0.0007886322351782782
39,1.1932000517845154,1.0424754619598389,0.6153846153846154,0.8269230769230769,0.7142857142857143,0.8571428571428571,0.0006775784314464717
40,1.1651530861854553,0.9476922154426575,0.6538461538461539,0.8269230769230769,0.8571428571428571,0.8571428571428571,0.0005737168930605272
41,1.2190727591514587,0.9421427249908447,0.6538461538461539,0.8269230769230769,0.9285714285714286,0.8571428571428571,0.00047745751406263163
42,1.0590745508670807,1.1863901615142822,0.7115384615384616,0.8269230769230769,0.5714285714285714,0.8571428571428571,0.00038918018624496285
43,0.9652289152145386,1.1053825616836548,0.7692307692307693,0.8269230769230769,0.7857142857142857,0.8571428571428571,0.00030923329989034103
44,1.1190161108970642,1.048531413078308,0.6730769230769231,0.8269230769230769,0.7142857142857143,0.8571428571428571,0.00023793236883495162
45,1.0961132049560547,1.147369146347046,0.7115384615384616,0.8269230769230769,0.5714285714285714,0.8571428571428571,0.00017555878527937164
46,1.0554132461547852,1.1766741275787354,0.7692307692307693,0.8269230769230769,0.6428571428571429,0.8571428571428571,0.00012235870926211617
47,0.9138433337211609,1.1786342859268188,0.8269230769230769,0.8269230769230769,0.5714285714285714,0.8571428571428571,7.854209717842258e-05
48,1.1453627943992615,1.0408155918121338,0.6730769230769231,0.8269230769230769,0.8571428571428571,0.8571428571428571,4.4281873178278196e-05
49,1.1331645250320435,1.0130535364151,0.75,0.8269230769230769,0.7857142857142857,0.8571428571428571,1.9713246713805587e-05
50,1.100439965724945,0.906234860420227,0.6923076923076923,0.8269230769230769,0.8571428571428571,0.8571428571428571,4.933178929321102e-06
51,0.962617427110672,1.2456966638565063,0.7692307692307693,0.8269230769230769,0.5714285714285714,0.8571428571428571,0.005
52,1.2723885774612427,1.198000192642212,0.6346153846153846,0.8269230769230769,0.7857142857142857,0.8571428571428571,0.0049987664009143295
53,1.0450786650180817,1.2229881286621094,0.7692307692307693,0.8269230769230769,0.6428571428571429,0.8571428571428571,0.004995066821070679
54,0.9775744080543518,0.8796008825302124,0.7884615384615384,0.8269230769230769,0.8571428571428571,0.8571428571428571,0.0049889049115077
55,1.1605223417282104,1.374307632446289,0.6923076923076923,0.8269230769230769,0.5714285714285714,0.8571428571428571,0.004980286753286195
56,1.1581497192382812,1.4441990852355957,0.6346153846153846,0.8269230769230769,0.6428571428571429,0.8571428571428571,0.0049692208514878445
57,0.9366439282894135,1.261068344116211,0.8076923076923077,0.8269230769230769,0.7142857142857143,0.8571428571428571,0.004955718126821722
58,1.1219578385353088,0.7596596479415894,0.7692307692307693,0.8269230769230769,0.8571428571428571,0.8571428571428571,0.004939791904846869
59,1.2078171372413635,2.0658044815063477,0.6346153846153846,0.8269230769230769,0.6428571428571429,0.8571428571428571,0.004921457902821578
60,1.1101182699203491,0.8664464950561523,0.6923076923076923,0.8269230769230769,0.7857142857142857,0.8571428571428571,0.004900734214192358
61,1.4289856553077698,1.2548402547836304,0.6153846153846154,0.8269230769230769,0.6428571428571429,0.8571428571428571,0.0048776412907378846
62,1.0130959153175354,1.2673234939575195,0.7307692307692307,0.8269230769230769,0.7142857142857143,0.8571428571428571,0.004852201922385564
63,1.0405013859272003,1.3918097019195557,0.6538461538461539,0.8269230769230769,0.6428571428571429,0.8571428571428571,0.004824441214720628
64,0.8676590025424957,1.5081005096435547,0.75,0.8269230769230769,0.5,0.8571428571428571,0.0047943865642099525
65,1.3459154963493347,0.8456478118896484,0.5769230769230769,0.8269230769230769,0.7857142857142857,0.8571428571428571,0.004762067631165049
66,1.109239637851715,1.2807369232177734,0.6346153846153846,0.8461538461538461,0.7142857142857143,0.7857142857142857,0.00472751631047092
67,1.060327172279358,1.5041030645370483,0.7115384615384616,0.9230769230769231,0.6428571428571429,0.9285714285714286,0.0046907667001096585
68,1.1255453824996948,1.4054617881774902,0.6923076923076923,0.8846153846153846,0.6428571428571429,0.8571428571428571,0.0046518550675098596
69,1.0631865859031677,0.7033373117446899,0.6538461538461539,0.9038461538461539,0.8571428571428571,0.9285714285714286,0.004610819813755038
70,1.0269006490707397,1.2483816146850586,0.5769230769230769,0.8846153846153846,0.6428571428571429,0.8571428571428571,0.004567701435686404
71,0.9306738972663879,1.2024465799331665,0.7307692307692307,0.8846153846153846,0.7857142857142857,0.8571428571428571,0.0045225424859373685
72,0.8639342784881592,1.0156254768371582,0.7115384615384616,0.9423076923076923,0.6428571428571429,0.9285714285714286,0.0044753875309392266
73,1.2279338836669922,1.3022226095199585,0.5961538461538461,0.8653846153846154,0.6428571428571429,0.7857142857142857,0.004426283106939473
74,1.0795270204544067,1.3090362548828125,0.6153846153846154,0.8846153846153846,0.6428571428571429,0.7857142857142857,0.004375277674076149
75,1.253441333770752,0.9409570693969727,0.5769230769230769,0.8653846153846154,0.6428571428571429,0.9285714285714286,0.004322421568553529
76,1.1973535418510437,1.10953688621521,0.6538461538461539,0.8653846153846154,0.6428571428571429,0.8571428571428571,0.004267766952966369
77,1.1291081309318542,1.056074619293213,0.5769230769230769,0.9038461538461539,0.6428571428571429,0.9285714285714286,0.004211367764821722
78,0.9483810365200043,1.2395769357681274,0.7115384615384616,0.8846153846153846,0.6428571428571429,0.7857142857142857,0.00415327966330913
79,0.9768616855144501,0.8645006418228149,0.7692307692307693,0.9230769230769231,0.9285714285714286,0.9285714285714286,0.004093559974371724
80,1.3917509317398071,0.9471249580383301,0.5384615384615384,0.8846153846153846,0.7857142857142857,0.7857142857142857,0.004032267634132442
81,0.9493082165718079,1.1258443593978882,0.6730769230769231,0.9038461538461539,0.6428571428571429,0.8571428571428571,0.003969463130731183
82,0.9820782542228699,1.4060859680175781,0.6730769230769231,0.9038461538461539,0.6428571428571429,0.8571428571428571,0.003905208444630327
83,1.0926997065544128,1.242182731628418,0.5769230769230769,0.9038461538461539,0.5714285714285714,0.7857142857142857,0.0038395669874474914
84,1.0800652503967285,1.0160434246063232,0.5769230769230769,0.8653846153846154,0.7142857142857143,0.9285714285714286,0.0037726035393759283
85,1.0296543538570404,0.9190961122512817,0.6538461538461539,0.9230769230769231,0.6428571428571429,0.9285714285714286,0.0037043841852542883
86,1.0532900393009186,1.3810970783233643,0.5961538461538461,0.8846153846153846,0.5714285714285714,0.7857142857142857,0.003634976249348867
87,0.9167318046092987,1.2709758281707764,0.6730769230769231,0.9230769230769231,0.5714285714285714,0.8571428571428571,0.003564448228912682
88,1.0132980942726135,1.2618783712387085,0.6538461538461539,0.9038461538461539,0.42857142857142855,0.7857142857142857,0.003492869726586951
89,0.9208055138587952,1.3343318700790405,0.6923076923076923,0.9230769230769231,0.7142857142857143,0.8571428571428571,0.0034203113817116953
90,1.0171444118022919,1.3949459791183472,0.6538461538461539,0.9615384615384616,0.35714285714285715,0.8571428571428571,0.0033468448006132292
91,1.1480263471603394,0.9608311653137207,0.6538461538461539,0.8846153846153846,0.6428571428571429,0.9285714285714286,0.0032725424859373687
92,0.949724942445755,1.6682696342468262,0.75,0.9230769230769231,0.5714285714285714,0.8571428571428571,0.0031974777650980737
93,0.9094218611717224,0.9732705354690552,0.6538461538461539,0.9230769230769231,0.6428571428571429,0.8571428571428571,0.0031217247179121366
94,0.9823232293128967,1.3487144708633423,0.6346153846153846,0.9615384615384616,0.6428571428571429,0.7857142857142857,0.0030453581034913567
95,0.6585910022258759,1.1038341522216797,0.8269230769230769,1.0,0.7857142857142857,0.8571428571428571,0.002968453286464312
96,0.8212985396385193,1.235076904296875,0.6923076923076923,0.9038461538461539,0.7142857142857143,0.8571428571428571,0.0028910861626005773
97,0.9531770646572113,1.0521777868270874,0.6153846153846154,0.9230769230769231,0.7142857142857143,0.8571428571428571,0.002813333083910761
98,0.871412992477417,0.830143928527832,0.7115384615384616,0.9230769230769231,0.7142857142857143,0.9285714285714286,0.002735270783296286
99,0.9523046314716339,1.4306302070617676,0.7307692307692307,0.9230769230769231,0.5,0.8571428571428571,0.0026569762988232835
100,1.1956415176391602,1.0481469631195068,0.6730769230769231,0.8653846153846154,0.8571428571428571,0.8571428571428571,0.0025785268976953207
101,0.9341869056224823,1.1510231494903564,0.7692307692307693,0.8846153846153846,0.7857142857142857,0.9285714285714286,0.0025
102,1.0272995233535767,1.0237793922424316,0.6923076923076923,0.9038461538461539,0.7857142857142857,0.7142857142857143,0.0024214731023046794
103,0.8326979279518127,0.9689744710922241,0.75,0.9230769230769231,0.9285714285714286,0.8571428571428571,0.0023430237011767166
104,1.0279243290424347,1.8213235139846802,0.7115384615384616,0.9038461538461539,0.5714285714285714,0.9285714285714286,0.002264729216703714
105,0.8986041247844696,1.7448276281356812,0.75,0.9423076923076923,0.5,0.9285714285714286,0.0021866669160892395
106,1.0237765610218048,0.8138415217399597,0.6153846153846154,0.9615384615384616,0.7857142857142857,0.8571428571428571,0.002108913837399423
107,1.0809299945831299,1.399165391921997,0.6346153846153846,0.8653846153846154,0.7142857142857143,0.8571428571428571,0.0020315467135356884
108,1.114577054977417,1.2146074771881104,0.6153846153846154,0.8846153846153846,0.7142857142857143,0.9285714285714286,0.0019546418965086442
109,1.0619031190872192,1.1907955408096313,0.7307692307692307,0.9038461538461539,0.6428571428571429,0.8571428571428571,0.0018782752820878628
110,0.9250544607639313,1.5722460746765137,0.75,0.9038461538461539,0.5,0.8571428571428571,0.001802522234901927
111,1.0126286149024963,1.154025912284851,0.6538461538461539,0.9230769230769231,0.5714285714285714,0.8571428571428571,0.0017274575140626323
112,1.2733904123306274,0.620324969291687,0.6346153846153846,0.8269230769230769,0.9285714285714286,0.8571428571428571,0.0016531551993867715
113,0.7980102598667145,0.617567241191864,0.7307692307692307,0.9423076923076923,0.7142857142857143,0.9285714285714286,0.0015796886182883059
114,0.9263159036636353,0.9860546588897705,0.7307692307692307,0.8653846153846154,0.7857142857142857,0.8571428571428571,0.0015071302734130482
115,1.3396326303482056,1.4819167852401733,0.5769230769230769,0.8269230769230769,0.5,0.8571428571428571,0.0014355517710873183
116,0.7564420700073242,0.9476357698440552,0.7307692307692307,0.9807692307692307,0.7857142857142857,0.7857142857142857,0.0013650237506511332
117,0.781651109457016,0.9044804573059082,0.7692307692307693,0.9230769230769231,0.8571428571428571,0.9285714285714286,0.0012956158147457114
118,0.9734273552894592,1.0543287992477417,0.6923076923076923,0.9038461538461539,0.8571428571428571,0.7857142857142857,0.0012273964606240718
119,1.2106173038482666,1.1390674114227295,0.6346153846153846,0.9038461538461539,0.7857142857142857,0.8571428571428571,0.0011604330125525079
120,0.8846846520900726,1.9764097929000854,0.6923076923076923,0.9230769230769231,0.5,0.7857142857142857,0.0010947915553696733
121,0.6681004464626312,0.7523872256278992,0.8076923076923077,0.9423076923076923,0.7857142857142857,0.8571428571428571,0.0010305368692688174
122,0.6101314872503281,0.7656862735748291,0.8269230769230769,0.9615384615384616,0.7857142857142857,0.8571428571428571,0.0009677323658675585
123,0.7478233575820923,1.0812208652496338,0.7884615384615384,0.9038461538461539,0.7142857142857143,0.9285714285714286,0.0009064400256282757
124,0.8446741104125977,1.424034595489502,0.7115384615384616,0.9423076923076923,0.7857142857142857,0.8571428571428571,0.0008467203366908707
125,1.257834255695343,0.8393962979316711,0.6346153846153846,0.8846153846153846,0.7857142857142857,0.9285714285714286,0.0007886322351782782
126,0.9061074554920197,0.7804523706436157,0.6730769230769231,0.9423076923076923,0.8571428571428571,0.9285714285714286,0.0007322330470336313
127,1.008776843547821,1.0488495826721191,0.6538461538461539,0.8461538461538461,0.6428571428571429,0.9285714285714286,0.0006775784314464717
128,0.8926996290683746,1.4884990453720093,0.7692307692307693,0.9230769230769231,0.5714285714285714,0.7857142857142857,0.0006247223259238514
129,0.7922945916652679,1.2007700204849243,0.7115384615384616,0.9615384615384616,0.6428571428571429,0.7857142857142857,0.0005737168930605272
130,0.9070574641227722,1.2090001106262207,0.6538461538461539,0.9230769230769231,0.7142857142857143,0.8571428571428571,0.000524612469060774
131,0.784087210893631,0.9498862028121948,0.7884615384615384,0.9230769230769231,0.7142857142857143,0.8571428571428571,0.00047745751406263163
132,0.8292297124862671,1.004982352256775,0.7307692307692307,0.9038461538461539,0.7142857142857143,0.8571428571428571,0.000432298564313596
133,0.9069244563579559,0.7855930328369141,0.6730769230769231,0.9615384615384616,0.7857142857142857,0.9285714285714286,0.00038918018624496285
134,0.7599492073059082,0.7313275933265686,0.7884615384615384,0.8653846153846154,0.7857142857142857,0.9285714285714286,0.0003481449324901406
135,0.9805982410907745,1.379945993423462,0.6923076923076923,0.8846153846153846,0.6428571428571429,0.6428571428571429,0.00030923329989034103
136,0.7763451337814331,1.4367222785949707,0.8076923076923077,0.9615384615384616,0.6428571428571429,0.7857142857142857,0.00027248368952908055
137,1.0258969068527222,0.7567046284675598,0.6538461538461539,0.9423076923076923,0.9285714285714286,0.9285714285714286,0.00023793236883495162
138,1.0878809094429016,1.1044020652770996,0.6153846153846154,0.9230769230769231,0.5714285714285714,0.7857142857142857,0.0002056134357900477
139,1.0936039686203003,1.1926952600479126,0.6538461538461539,0.9038461538461539,0.6428571428571429,0.8571428571428571,0.00017555878527937164
140,0.785064697265625,1.1773548126220703,0.7307692307692307,0.9038461538461539,0.7142857142857143,0.8571428571428571,0.00014779807761443637
141,0.894492119550705,1.3793799877166748,0.7692307692307693,0.9038461538461539,0.6428571428571429,0.8571428571428571,0.00012235870926211617
142,1.0149316489696503,0.8928220868110657,0.8076923076923077,0.8846153846153846,0.8571428571428571,0.9285714285714286,9.926578580764262e-05
143,1.0464258790016174,0.8644558787345886,0.6923076923076923,0.8846153846153846,0.7857142857142857,0.8571428571428571,7.854209717842258e-05
144,0.8936547636985779,0.9370731115341187,0.7307692307692307,0.9230769230769231,0.7857142857142857,0.9285714285714286,6.0208095153131695e-05
145,0.8624845147132874,1.0697146654129028,0.7115384615384616,0.8846153846153846,0.7857142857142857,0.8571428571428571,4.4281873178278196e-05
146,0.8478013277053833,0.7617776989936829,0.7115384615384616,0.9038461538461539,0.8571428571428571,0.8571428571428571,3.077914851215585e-05
147,1.0698915719985962,1.0568504333496094,0.6538461538461539,0.8846153846153846,0.7857142857142857,0.9285714285714286,1.9713246713805587e-05
148,0.95411217212677,1.1195791959762573,0.6730769230769231,0.9038461538461539,0.7142857142857143,0.9285714285714286,1.109508849230001e-05
149,0.9308284521102905,1.2519577741622925,0.7692307692307693,0.9038461538461539,0.7857142857142857,0.8571428571428571,4.933178929321102e-06
150,0.695694237947464,0.835629940032959,0.8076923076923077,0.9230769230769231,0.7857142857142857,0.9285714285714286,1.233599085671e-06
151,1.0464328229427338,1.2169969081878662,0.6923076923076923,0.8846153846153846,0.7857142857142857,0.8571428571428571,0.005
152,0.7843878865242004,0.9508350491523743,0.75,0.9230769230769231,0.7857142857142857,0.9285714285714286,0.004999691581204151
153,0.9270932972431183,1.56990385055542,0.7115384615384616,0.8846153846153846,0.5714285714285714,0.7857142857142857,0.0049987664009143295
154,0.7047041356563568,0.7961223125457764,0.7692307692307693,0.9615384615384616,0.8571428571428571,0.8571428571428571,0.004997224687404925
155,0.8967475891113281,1.5052931308746338,0.7884615384615384,0.8846153846153846,0.6428571428571429,0.7857142857142857,0.004995066821070679
156,0.6636665165424347,1.4443366527557373,0.7692307692307693,0.9615384615384616,0.7142857142857143,0.8571428571428571,0.00499229333433282
157,0.9776843786239624,1.664394736289978,0.6730769230769231,0.9038461538461539,0.5714285714285714,0.8571428571428571,0.0049889049115077
158,0.8708364367485046,0.8656343817710876,0.7307692307692307,0.9038461538461539,0.8571428571428571,0.9285714285714286,0.004984902388637949
159,0.939511239528656,0.9714335799217224,0.7115384615384616,0.9615384615384616,0.8571428571428571,0.7857142857142857,0.004980286753286195
160,1.0117982625961304,1.0934841632843018,0.6538461538461539,0.9230769230769231,0.6428571428571429,0.9285714285714286,0.004975059144291394
161,1.2108870148658752,0.6506350040435791,0.6538461538461539,0.9423076923076923,0.9285714285714286,0.9285714285714286,0.0049692208514878445
162,1.0707623958587646,0.9473366737365723,0.6538461538461539,0.8846153846153846,0.8571428571428571,0.9285714285714286,0.004962773315386935
163,0.8652524948120117,1.1025116443634033,0.7307692307692307,0.9230769230769231,0.7142857142857143,0.8571428571428571,0.004955718126821722
164,0.9355973303318024,1.2496320009231567,0.6730769230769231,0.9615384615384616,0.8571428571428571,0.8571428571428571,0.0049480570265544145
165,0.9765980839729309,1.0796196460723877,0.6538461538461539,0.9230769230769231,0.7142857142857143,0.9285714285714286,0.004939791904846869
166,0.769883781671524,1.637864589691162,0.75,0.9423076923076923,0.6428571428571429,0.8571428571428571,0.004930924800994192
167,0.787039041519165,0.9154161810874939,0.7307692307692307,0.9423076923076923,0.7857142857142857,0.9285714285714286,0.004921457902821578
168,0.8250483572483063,1.49623441696167,0.6730769230769231,0.9423076923076923,0.7142857142857143,0.8571428571428571,0.004911393546144495
169,0.9218406677246094,1.2363979816436768,0.6730769230769231,0.9230769230769231,0.5714285714285714,0.8571428571428571,0.004900734214192358
170,0.7958292961120605,1.2873073816299438,0.6730769230769231,0.9615384615384616,0.6428571428571429,0.8571428571428571,0.004889482536995825
171,0.780083641409874,1.3399384021759033,0.6730769230769231,0.9038461538461539,0.6428571428571429,0.7857142857142857,0.0048776412907378846
172,0.9322826862335205,1.0829225778579712,0.6923076923076923,0.9423076923076923,0.5714285714285714,0.9285714285714286,0.004865213397068863
173,0.8888807892799377,1.0172476768493652,0.6730769230769231,0.9423076923076923,0.6428571428571429,0.9285714285714286,0.004852201922385564
174,0.9665731191635132,1.0026962757110596,0.6730769230769231,0.9038461538461539,0.7142857142857143,0.8571428571428571,0.004838610077074669
175,0.9491150379180908,1.7944321632385254,0.6538461538461539,0.9423076923076923,0.42857142857142855,0.7142857142857143,0.004824441214720628
176,1.032865196466446,0.9915492534637451,0.6730769230769231,0.9230769230769231,0.7857142857142857,0.7857142857142857,0.004809698831278217
177,0.9424892067909241,1.408629059791565,0.75,0.9038461538461539,0.6428571428571429,0.8571428571428571,0.0047943865642099525
178,1.158157467842102,0.7251147031784058,0.5961538461538461,0.8846153846153846,0.7857142857142857,1.0,0.004778508191588613
179,0.9181967377662659,0.5965716242790222,0.7692307692307693,0.8653846153846154,0.8571428571428571,1.0,0.004762067631165049
180,0.7638104856014252,1.03847336769104,0.8076923076923077,0.9230769230769231,0.7142857142857143,0.9285714285714286,0.004745068939401539
181,0.6914950013160706,1.3288483619689941,0.8076923076923077,0.9615384615384616,0.7142857142857143,0.8571428571428571,0.00472751631047092
182,0.8908646702766418,0.9669862985610962,0.75,0.8846153846153846,0.7857142857142857,0.8571428571428571,0.004709414075221734
183,0.8655483424663544,1.9692268371582031,0.7307692307692307,0.9038461538461539,0.6428571428571429,0.8571428571428571,0.0046907667001096585
184,1.2840072512626648,1.4084804058074951,0.6730769230769231,0.8846153846153846,0.6428571428571429,0.8571428571428571,0.004671578786095479
185,0.7958444952964783,1.0880788564682007,0.75,0.9615384615384616,0.7142857142857143,0.8571428571428571,0.0046518550675098596
186,0.6874500215053558,1.0057531595230103,0.8076923076923077,0.9807692307692307,0.7857142857142857,0.9285714285714286,0.004631600410885231
187,1.0291936993598938,1.1641688346862793,0.6730769230769231,0.9038461538461539,0.7142857142857143,0.8571428571428571,0.004610819813755038
188,0.7556474506855011,1.4244056940078735,0.7692307692307693,0.9230769230769231,0.5714285714285714,0.8571428571428571,0.004589518403420676
189,0.8535565435886383,0.8350635766983032,0.6730769230769231,0.9423076923076923,0.9285714285714286,0.9285714285714286,0.004567701435686404
190,0.8487028181552887,1.0690559148788452,0.6730769230769231,0.9615384615384616,0.7142857142857143,0.8571428571428571,0.004545374293562558
191,0.8030425012111664,1.222093105316162,0.7884615384615384,0.9423076923076923,0.7142857142857143,0.8571428571428571,0.0045225424859373685
192,0.9983676373958588,1.4767074584960938,0.7115384615384616,0.9038461538461539,0.5,0.7857142857142857,0.004499211646217727
193,0.8086445331573486,0.9919019937515259,0.7884615384615384,0.9615384615384616,0.9285714285714286,0.8571428571428571,0.0044753875309392266
194,1.139782428741455,0.6958773136138916,0.6346153846153846,0.9038461538461539,0.8571428571428571,0.8571428571428571,0.004451076018345824
195,0.6940370500087738,1.0080615282058716,0.8076923076923077,0.9423076923076923,0.7857142857142857,0.8571428571428571,0.004426283106939473
196,0.758461207151413,1.4294322729110718,0.6923076923076923,0.9615384615384616,0.7142857142857143,0.8571428571428571,0.004401014914000078
197,1.0072315335273743,0.9777415990829468,0.7692307692307693,0.8846153846153846,0.7857142857142857,0.8571428571428571,0.004375277674076149
198,0.8788605034351349,0.9735245704650879,0.7307692307692307,0.9230769230769231,0.8571428571428571,0.8571428571428571,0.004349077737446524
199,0.912022203207016,1.640228509902954,0.7307692307692307,0.8653846153846154,0.5714285714285714,0.6428571428571429,0.004322421568553529
200,0.8871535658836365,0.6803168058395386,0.6346153846153846,0.9615384615384616,0.8571428571428571,0.9285714285714286,0.004295315744407973
201,0.9770190119743347,1.193556785583496,0.6346153846153846,0.9230769230769231,0.42857142857142855,0.8571428571428571,0.004267766952966369
202,1.0272351801395416,1.065081000328064,0.6538461538461539,0.8461538461538461,0.6428571428571429,0.8571428571428571,0.004239781991480785
203,1.0728866755962372,1.267749547958374,0.6923076923076923,0.8846153846153846,0.5714285714285714,0.8571428571428571,0.004211367764821722
204,0.9850004017353058,1.1594748497009277,0.7115384615384616,0.9038461538461539,0.5714285714285714,0.8571428571428571,0.004182531283774433
205,0.8285439610481262,0.622445821762085,0.6730769230769231,0.9038461538461539,0.8571428571428571,0.9285714285714286,0.00415327966330913
206,0.8623654842376709,1.0242631435394287,0.6923076923076923,0.9615384615384616,0.7857142857142857,0.9285714285714286,0.00412362012082546
207,0.7204231917858124,1.0794094800949097,0.75,0.9230769230769231,0.6428571428571429,0.9285714285714286,0.004093559974371724
208,0.8920266330242157,1.1132086515426636,0.7115384615384616,0.9038461538461539,0.6428571428571429,0.8571428571428571,0.004063106640839263
209,1.2398567199707031,0.8489842414855957,0.5576923076923077,0.9038461538461539,0.8571428571428571,0.8571428571428571,0.004032267634132442
210,0.979846715927124,1.104475736618042,0.75,0.9230769230769231,0.7142857142857143,0.9285714285714286,0.004001050563314711
211,0.9520300626754761,0.7832523584365845,0.6730769230769231,0.9038461538461539,0.6428571428571429,0.8571428571428571,0.003969463130731183
212,1.0700738430023193,1.4061983823776245,0.6346153846153846,0.8461538461538461,0.5714285714285714,0.8571428571428571,0.003937513130108197
213,0.9737483859062195,0.8455966711044312,0.7115384615384616,0.9423076923076923,0.7857142857142857,0.9285714285714286,0.003905208444630327
214,0.9418353736400604,1.0533026456832886,0.7307692307692307,0.8846153846153846,0.7142857142857143,0.9285714285714286,0.0038725570449953295
215,0.8803383111953735,0.7611449956893921,0.7692307692307693,0.9423076923076923,0.7857142857142857,0.8571428571428571,0.0038395669874474914
216,0.7977169752120972,0.9285553693771362,0.7115384615384616,0.9615384615384616,0.6428571428571429,0.8571428571428571,0.0038062464117898723
217,0.8779081702232361,0.970158040523529,0.7115384615384616,0.9038461538461539,0.8571428571428571,0.8571428571428571,0.0037726035393759283
218,0.7412274479866028,0.5715107917785645,0.8076923076923077,0.9230769230769231,0.9285714285714286,0.9285714285714286,0.003738646671081019
219,0.8373198509216309,0.8228619694709778,0.75,0.9615384615384616,0.7142857142857143,0.8571428571428571,0.0037043841852542883
220,0.807050496339798,0.9444266557693481,0.7884615384615384,0.9038461538461539,0.6428571428571429,0.9285714285714286,0.0036698245356514337
221,1.0393990278244019,1.7303943634033203,0.6923076923076923,0.8653846153846154,0.5714285714285714,0.7857142857142857,0.003634976249348867
222,0.793503999710083,1.2227193117141724,0.7692307692307693,0.9038461538461539,0.7857142857142857,0.8571428571428571,0.0035998479246397877
223,0.9812922775745392,1.1090178489685059,0.6730769230769231,0.9615384615384616,0.7142857142857143,0.8571428571428571,0.003564448228912682
224,0.837669163942337,1.0381085872650146,0.7307692307692307,0.9038461538461539,0.7142857142857143,0.8571428571428571,0.0035287858965127724
225,0.9924519956111908,1.5028581619262695,0.5961538461538461,0.9423076923076923,0.5714285714285714,0.8571428571428571,0.003492869726586951
226,0.7095843255519867,1.5097558498382568,0.7115384615384616,0.9423076923076923,0.5714285714285714,0.7142857142857143,0.003456708580912725
227,0.9000915288925171,1.1185474395751953,0.6346153846153846,0.9423076923076923,0.7142857142857143,0.8571428571428571,0.0034203113817116953
228,0.8056960701942444,1.0447789430618286,0.7307692307692307,0.9230769230769231,0.8571428571428571,0.9285714285714286,0.003383687109448143
229,0.9699257016181946,1.0821220874786377,0.6730769230769231,0.9038461538461539,0.8571428571428571,0.8571428571428571,0.0033468448006132292
230,0.681912750005722,0.9991005659103394,0.7884615384615384,0.9615384615384616,0.7142857142857143,0.7857142857142857,0.003309793545495374
231,0.7050631642341614,0.6828880310058594,0.7307692307692307,0.9615384615384616,0.8571428571428571,0.9285714285714286,0.0032725424859373687
232,1.1166000962257385,0.8645906448364258,0.6538461538461539,0.9038461538461539,1.0,0.8571428571428571,0.00323510081308076
233,0.9511010646820068,0.8378603458404541,0.75,0.9423076923076923,0.9285714285714286,0.9285714285714286,0.0031974777650980737
234,1.0036812126636505,1.2094539403915405,0.6538461538461539,0.9038461538461539,0.7142857142857143,0.8571428571428571,0.003159682624913432
235,0.81333127617836,1.122326135635376,0.6923076923076923,0.9423076923076923,0.7857142857142857,0.8571428571428571,0.0031217247179121366
236,0.5953377485275269,1.165625810623169,0.8076923076923077,0.9807692307692307,0.6428571428571429,0.9285714285714286,0.0030836134096397638
237,0.8762508928775787,0.7447558641433716,0.6923076923076923,0.9038461538461539,0.8571428571428571,0.9285714285714286,0.0030453581034913567
238,0.6265924572944641,1.7860050201416016,0.7884615384615384,0.9807692307692307,0.5714285714285714,0.8571428571428571,0.0030069682383912816
239,0.8707310259342194,1.4639780521392822,0.7115384615384616,0.9230769230769231,0.5,0.8571428571428571,0.002968453286464312
240,0.7465158402919769,1.1425182819366455,0.7692307692307693,0.9807692307692307,0.7142857142857143,0.8571428571428571,0.0029298227506985236
241,0.9246580600738525,1.3181886672973633,0.6923076923076923,0.9230769230769231,0.7142857142857143,0.8571428571428571,0.0028910861626005773
242,0.896421879529953,1.360500454902649,0.6538461538461539,0.9230769230769231,0.7142857142857143,0.9285714285714286,0.0028522530798439573
243,1.0579417645931244,1.113415241241455,0.7115384615384616,0.8846153846153846,0.7142857142857143,0.7857142857142857,0.002813333083910761
244,0.789920836687088,1.0678406953811646,0.6923076923076923,0.9615384615384616,0.7857142857142857,0.8571428571428571,0.0027743357777276134
245,0.7845310270786285,0.8487280011177063,0.7307692307692307,0.9615384615384616,0.7857142857142857,0.8571428571428571,0.002735270783296286
246,0.6897530853748322,1.0342057943344116,0.75,0.9807692307692307,0.8571428571428571,0.9285714285714286,0.0026961477393196128
247,0.7479401528835297,0.8158684968948364,0.6730769230769231,0.9423076923076923,0.7142857142857143,1.0,0.0026569762988232835
248,0.8439542949199677,0.8071103096008301,0.75,0.9423076923076923,0.7142857142857143,1.0,0.0026177661267741065
249,0.6757586002349854,1.22923743724823,0.8076923076923077,0.9423076923076923,0.7142857142857143,0.9285714285714286,0.0025785268976953207
250,0.709670901298523,0.8974698781967163,0.75,0.9423076923076923,0.8571428571428571,0.9285714285714286,0.002539268293279552
251,0.8740607798099518,1.3493719100952148,0.7307692307692307,0.9230769230769231,0.7857142857142857,0.8571428571428571,0.0025
252,0.7676964104175568,0.9522882699966431,0.7115384615384616,0.9230769230769231,0.7857142857142857,0.9285714285714286,0.002460731706720449
253,0.7088416963815689,1.1561468839645386,0.6923076923076923,0.9615384615384616,0.7142857142857143,0.8571428571428571,0.0024214731023046794
254,0.7906918227672577,1.1209204196929932,0.7307692307692307,0.9615384615384616,0.7142857142857143,0.8571428571428571,0.0023822338732258936
255,0.7047640979290009,1.0023618936538696,0.7115384615384616,0.9807692307692307,0.7857142857142857,0.9285714285714286,0.0023430237011767166
256,0.6907711029052734,0.8747463226318359,0.7115384615384616,0.9230769230769231,0.8571428571428571,0.9285714285714286,0.002303852260680388
257,0.7582652866840363,1.7780548334121704,0.7692307692307693,0.9615384615384616,0.6428571428571429,0.7857142857142857,0.002264729216703714
258,0.7463561594486237,0.5729043483734131,0.75,0.9423076923076923,0.9285714285714286,0.9285714285714286,0.0022256642222723867
259,0.9117717742919922,1.356793999671936,0.6730769230769231,0.9038461538461539,0.7857142857142857,0.7857142857142857,0.0021866669160892395
260,0.6548997759819031,1.2315062284469604,0.8269230769230769,0.9423076923076923,0.7857142857142857,0.8571428571428571,0.002147746920156044
261,0.8463473320007324,1.0714268684387207,0.6923076923076923,0.9423076923076923,0.7857142857142857,0.8571428571428571,0.002108913837399423
262,0.7507379949092865,1.5504368543624878,0.7692307692307693,0.9038461538461539,0.5714285714285714,0.8571428571428571,0.002070177249301476
263,0.8755420446395874,1.5025815963745117,0.6923076923076923,0.9423076923076923,0.6428571428571429,0.8571428571428571,0.0020315467135356884
264,0.9174314439296722,1.2315682172775269,0.6346153846153846,0.9230769230769231,0.5714285714285714,0.8571428571428571,0.001993031761608719
265,0.6667158603668213,0.8731379508972168,0.7307692307692307,0.9230769230769231,0.8571428571428571,0.9285714285714286,0.0019546418965086442
266,0.7143962681293488,1.668607234954834,0.7115384615384616,0.9615384615384616,0.5714285714285714,0.9285714285714286,0.0019163865903602361
267,0.6708410680294037,0.9463070034980774,0.7884615384615384,0.9807692307692307,0.7857142857142857,0.9285714285714286,0.0018782752820878628
268,0.6259638071060181,1.2171763181686401,0.8076923076923077,0.9615384615384616,0.7142857142857143,0.9285714285714286,0.0018403173750865679
269,0.5517304837703705,1.553347110748291,0.8076923076923077,0.9615384615384616,0.7142857142857143,0.7857142857142857,0.001802522234901927
270,0.8128577470779419,1.7775617837905884,0.7115384615384616,0.9423076923076923,0.42857142857142855,0.7142857142857143,0.0017648991869192404
271,0.725157231092453,0.7471250295639038,0.6730769230769231,0.9615384615384616,0.9285714285714286,0.9285714285714286,0.0017274575140626323
272,0.9890765249729156,1.482095718383789,0.7115384615384616,0.9423076923076923,0.6428571428571429,0.8571428571428571,0.0016902064545046263
273,0.8098412454128265,0.9814964532852173,0.7884615384615384,0.9230769230769231,0.7142857142857143,0.7857142857142857,0.0016531551993867715
274,0.8469175398349762,0.5370094180107117,0.7692307692307693,0.9230769230769231,0.9285714285714286,0.9285714285714286,0.0016163128905518577
275,0.8582304120063782,1.1084730625152588,0.7115384615384616,0.9423076923076923,0.6428571428571429,0.8571428571428571,0.0015796886182883059
276,0.9377090036869049,1.1826179027557373,0.6730769230769231,0.8846153846153846,0.7142857142857143,0.9285714285714286,0.0015432914190872762
277,0.6087806522846222,1.539744257926941,0.8461538461538461,0.9615384615384616,0.6428571428571429,0.8571428571428571,0.0015071302734130482
278,0.9544467329978943,0.9123997688293457,0.6730769230769231,0.9038461538461539,0.7142857142857143,0.8571428571428571,0.001471214103487228
279,0.8617791831493378,0.8180490732192993,0.8076923076923077,0.9038461538461539,0.9285714285714286,0.8571428571428571,0.0014355517710873183
280,0.8778069019317627,1.1297225952148438,0.6730769230769231,0.9038461538461539,0.8571428571428571,0.9285714285714286,0.001400152075360212
281,0.5548276007175446,0.8434320688247681,0.8846153846153846,0.9807692307692307,0.8571428571428571,0.9285714285714286,0.0013650237506511332
282,0.5983803868293762,0.9093071222305298,0.7692307692307693,0.9807692307692307,0.7142857142857143,0.9285714285714286,0.001330175464348567
283,0.9744724631309509,0.6506696343421936,0.75,0.9230769230769231,0.9285714285714286,0.8571428571428571,0.0012956158147457114
284,0.6729021072387695,1.1309025287628174,0.8076923076923077,0.9807692307692307,0.7857142857142857,0.9285714285714286,0.001261353328918981
285,0.7864168882369995,1.0977451801300049,0.7692307692307693,0.9423076923076923,0.7142857142857143,0.9285714285714286,0.0012273964606240718
286,0.5541662126779556,1.1734156608581543,0.7692307692307693,1.0,0.7857142857142857,0.8571428571428571,0.001193753588210128
287,0.6053638458251953,1.2476279735565186,0.7307692307692307,0.9423076923076923,0.7142857142857143,0.7857142857142857,0.0011604330125525079
288,0.6232001185417175,1.229933500289917,0.7692307692307693,0.9423076923076923,0.6428571428571429,0.9285714285714286,0.0011274429550046702
289,0.5040944218635559,0.9830341339111328,0.7884615384615384,0.9807692307692307,0.7857142857142857,0.9285714285714286,0.0010947915553696733
290,0.7596214413642883,1.1551401615142822,0.7884615384615384,0.9615384615384616,0.7142857142857143,0.9285714285714286,0.0010624868698918036
291,0.8132053017616272,0.9047330617904663,0.7115384615384616,0.9038461538461539,0.7142857142857143,0.9285714285714286,0.0010305368692688174
292,0.5149267613887787,0.6484739780426025,0.8461538461538461,1.0,0.8571428571428571,0.9285714285714286,0.0009989494366852902
293,0.5922533869743347,1.6529121398925781,0.8076923076923077,0.9423076923076923,0.5714285714285714,0.9285714285714286,0.0009677323658675585
294,0.6263366639614105,0.9912688136100769,0.75,0.9615384615384616,0.7142857142857143,0.8571428571428571,0.000936893359160737
295,0.5819044411182404,1.0865281820297241,0.8076923076923077,0.9615384615384616,0.7142857142857143,0.8571428571428571,0.0009064400256282757
296,0.797256350517273,0.8388741612434387,0.7692307692307693,0.9230769230769231,0.7142857142857143,0.8571428571428571,0.0008763798791745412
297,0.6368008852005005,0.6365347504615784,0.75,0.9807692307692307,0.7142857142857143,0.9285714285714286,0.0008467203366908707
298,0.8500386774539948,0.7087128162384033,0.6923076923076923,0.9423076923076923,0.9285714285714286,0.9285714285714286,0.0008174687162255665
299,1.1844496130943298,0.8453112840652466,0.6730769230769231,0.8846153846153846,0.8571428571428571,0.8571428571428571,0.0007886322351782782
300,0.8107753396034241,0.7738200426101685,0.6730769230769231,0.9230769230769231,0.9285714285714286,0.9285714285714286,0.0007602180085192142
301,0.7467691600322723,1.4345406293869019,0.7307692307692307,0.9615384615384616,0.5714285714285714,0.7857142857142857,0.0007322330470336313
302,0.6309256255626678,1.1331878900527954,0.7884615384615384,0.9807692307692307,0.7857142857142857,0.8571428571428571,0.0007046842555920282
303,0.7713974118232727,1.1509926319122314,0.7307692307692307,0.9807692307692307,0.6428571428571429,0.8571428571428571,0.0006775784314464717
304,0.7752451598644257,1.2229712009429932,0.7307692307692307,0.9615384615384616,0.7142857142857143,0.8571428571428571,0.0006509222625534758
305,0.6857625544071198,1.0641332864761353,0.7692307692307693,0.9807692307692307,0.8571428571428571,0.8571428571428571,0.0006247223259238514
306,0.7519243955612183,0.7956951856613159,0.7307692307692307,0.9423076923076923,0.8571428571428571,0.9285714285714286,0.0005989850859999227
307,0.8674957752227783,0.8651022911071777,0.6730769230769231,0.9423076923076923,0.7142857142857143,0.9285714285714286,0.0005737168930605272
308,0.6975420713424683,1.195972204208374,0.7884615384615384,0.9423076923076923,0.7857142857142857,0.7857142857142857,0.000548923981654176
309,0.8999533951282501,1.0322595834732056,0.6923076923076923,0.9423076923076923,0.9285714285714286,0.9285714285714286,0.000524612469060774
310,0.7774381041526794,1.3057940006256104,0.75,0.9807692307692307,0.6428571428571429,0.7142857142857143,0.0005007883537822738
311,0.6768621206283569,0.9487757682800293,0.8076923076923077,0.9807692307692307,0.7142857142857143,0.8571428571428571,0.00047745751406263163
312,0.6473593711853027,1.326350450515747,0.7884615384615384,0.9615384615384616,0.7142857142857143,0.7857142857142857,0.00045462570643744175
313,0.7403164207935333,1.1475183963775635,0.7307692307692307,0.8846153846153846,0.7142857142857143,0.9285714285714286,0.000432298564313596
314,0.6215332448482513,0.81753009557724,0.8461538461538461,0.9423076923076923,0.9285714285714286,0.9285714285714286,0.00041048159657932487
315,0.6451126933097839,1.1514010429382324,0.7884615384615384,0.9615384615384616,0.8571428571428571,0.9285714285714286,0.00038918018624496285
316,0.8554549664258957,0.9695488214492798,0.7884615384615384,0.9230769230769231,0.8571428571428571,0.9285714285714286,0.00036839958911477014
317,0.8339223265647888,1.1497544050216675,0.6923076923076923,0.9423076923076923,0.7142857142857143,0.7857142857142857,0.0003481449324901406
318,0.7415929138660431,0.9711993932723999,0.7307692307692307,0.9038461538461539,0.7857142857142857,0.8571428571428571,0.0003284212139045217
319,0.6212167143821716,0.7064395546913147,0.8076923076923077,0.9615384615384616,0.7142857142857143,0.9285714285714286,0.00030923329989034103
320,0.6894121170043945,1.6358392238616943,0.8846153846153846,0.9423076923076923,0.7142857142857143,0.8571428571428571,0.00029058592477826633
321,0.5524097383022308,1.264734148979187,0.8269230769230769,1.0,0.7857142857142857,0.9285714285714286,0.00027248368952908055
322,0.660437136888504,0.7231724858283997,0.8461538461538461,0.9615384615384616,0.9285714285714286,0.9285714285714286,0.00025493106059846116
323,0.8754626512527466,1.1782063245773315,0.6923076923076923,0.9615384615384616,0.7142857142857143,0.8571428571428571,0.00023793236883495162
324,0.6052145063877106,1.0358034372329712,0.8076923076923077,0.9807692307692307,0.7142857142857143,0.9285714285714286,0.00022149180841138732
325,0.7960262894630432,0.933425784111023,0.75,0.9230769230769231,0.7857142857142857,0.8571428571428571,0.0002056134357900477
326,0.5950281918048859,1.3782285451889038,0.8653846153846154,0.9615384615384616,0.7142857142857143,0.7857142857142857,0.0001903011687217837
327,0.6977590322494507,2.301708936691284,0.7307692307692307,0.9230769230769231,0.42857142857142855,0.8571428571428571,0.00017555878527937164
328,0.8651660978794098,1.1402140855789185,0.6923076923076923,0.8846153846153846,0.5714285714285714,0.7857142857142857,0.00016138992292533155
329,0.5721026360988617,0.8170335292816162,0.8653846153846154,0.9615384615384616,0.9285714285714286,0.9285714285714286,0.00014779807761443637
330,0.701652318239212,0.9302645921707153,0.75,0.9423076923076923,0.7142857142857143,0.9285714285714286,0.00013478660293113676
331,0.6686652302742004,0.9525314569473267,0.7692307692307693,0.9423076923076923,0.8571428571428571,0.9285714285714286,0.00012235870926211617
332,0.6750195175409317,1.4159889221191406,0.7115384615384616,0.9038461538461539,0.7857142857142857,0.9285714285714286,0.0001105174630041747
333,0.5951287895441055,0.46274858713150024,0.8461538461538461,0.9615384615384616,1.0,0.9285714285714286,9.926578580764262e-05
334,0.7560303509235382,1.2746021747589111,0.7884615384615384,0.9038461538461539,0.7142857142857143,0.8571428571428571,8.860645385550508e-05
335,0.7329953014850616,0.7742011547088623,0.7692307692307693,0.9615384615384616,0.7142857142857143,0.9285714285714286,7.854209717842258e-05
336,0.6267773658037186,2.0023584365844727,0.7692307692307693,0.9615384615384616,0.5,0.6428571428571429,6.90751990058086e-05
337,0.7542905807495117,0.4888809621334076,0.6730769230769231,0.9230769230769231,0.9285714285714286,0.9285714285714286,6.0208095153131695e-05
338,0.6840626895427704,1.4386496543884277,0.75,0.9615384615384616,0.5714285714285714,0.7142857142857143,5.194297344558535e-05
339,0.7084412574768066,0.7330763936042786,0.7884615384615384,0.9423076923076923,0.8571428571428571,0.9285714285714286,4.4281873178278196e-05
340,0.7398059964179993,0.7451468706130981,0.75,0.9615384615384616,0.8571428571428571,0.9285714285714286,3.7226684613065334e-05
341,0.8143397867679596,1.1676234006881714,0.7115384615384616,0.9230769230769231,0.7142857142857143,0.8571428571428571,3.077914851215585e-05
342,0.6183006167411804,1.8592875003814697,0.7692307692307693,0.9807692307692307,0.7142857142857143,0.7857142857142857,2.4940855708606158e-05
343,0.6480541229248047,1.022674322128296,0.8076923076923077,0.9615384615384616,0.7857142857142857,0.9285714285714286,1.9713246713805587e-05
344,0.5952198803424835,1.04752516746521,0.8076923076923077,1.0,0.7857142857142857,0.9285714285714286,1.5097611362051012e-05
345,0.5978320091962814,1.3281981945037842,0.7692307692307693,0.9615384615384616,0.7142857142857143,0.7857142857142857,1.109508849230001e-05
346,0.8469540476799011,0.783341646194458,0.6538461538461539,0.9615384615384616,0.7857142857142857,0.9285714285714286,7.70666566718009e-06
347,0.6651654243469238,0.7487744092941284,0.7884615384615384,0.9807692307692307,0.7142857142857143,0.8571428571428571,4.933178929321102e-06
348,0.9342384934425354,1.4376263618469238,0.7884615384615384,0.9423076923076923,0.7142857142857143,0.8571428571428571,2.775312595075241e-06
349,0.7831140756607056,0.7071998119354248,0.7115384615384616,0.9230769230769231,0.8571428571428571,0.9285714285714286,1.233599085671e-06
350,0.6111097186803818,1.008749008178711,0.7692307692307693,0.9807692307692307,0.7857142857142857,0.8571428571428571,3.0841879584853074e-07
