epoch,train_loss,val_loss,train_acc_action,train_acc_status,val_acc_action,val_acc_status,learning_rate
1,1.7851365804672241,1.7780251502990723,0.28846153846153844,0.7307692307692307,0.21428571428571427,0.8571428571428571,0.0004
2,1.7702684998512268,1.771866798400879,0.36538461538461536,0.8076923076923077,0.21428571428571427,0.8571428571428571,0.0004
3,1.7671610713005066,1.7665069103240967,0.3269230769230769,0.8269230769230769,0.21428571428571427,0.8571428571428571,0.0004
4,1.7586707472801208,1.7601680755615234,0.40384615384615385,0.8269230769230769,0.21428571428571427,0.8571428571428571,0.0004
5,1.7559151649475098,1.7553772926330566,0.25,0.8269230769230769,0.21428571428571427,0.8571428571428571,0.0004
6,1.7545154094696045,1.7481955289840698,0.40384615384615385,0.8269230769230769,0.21428571428571427,0.8571428571428571,0.0004
7,1.7432321906089783,1.7418972253799438,0.3269230769230769,0.8269230769230769,0.21428571428571427,0.8571428571428571,0.0004
8,1.7435021996498108,1.7329180240631104,0.40384615384615385,0.8269230769230769,0.21428571428571427,0.8571428571428571,0.0004
9,1.7461462020874023,1.724989414215088,0.19230769230769232,0.8269230769230769,0.21428571428571427,0.8571428571428571,0.0004
10,1.7230755686759949,1.715059757232666,0.40384615384615385,0.8269230769230769,0.35714285714285715,0.8571428571428571,0.0004
11,1.7173900604248047,1.6994247436523438,0.25,0.8269230769230769,0.35714285714285715,0.8571428571428571,0.0004
12,1.7098137736320496,1.6808087825775146,0.23076923076923078,0.8269230769230769,0.35714285714285715,0.8571428571428571,0.0004
13,1.6910820007324219,1.6496385335922241,0.3269230769230769,0.8269230769230769,0.35714285714285715,0.8571428571428571,0.0004
14,1.6625206470489502,1.599682331085205,0.4807692307692308,0.8269230769230769,0.35714285714285715,0.8571428571428571,0.0004
15,1.6272928714752197,1.5264735221862793,0.21153846153846154,0.8269230769230769,0.35714285714285715,0.8571428571428571,0.0004
16,1.6047112345695496,1.4934897422790527,0.36538461538461536,0.8269230769230769,0.35714285714285715,0.8571428571428571,0.0004
17,1.663417100906372,1.487465500831604,0.34615384615384615,0.8269230769230769,0.35714285714285715,0.8571428571428571,0.0004
18,1.5605840682983398,1.4878817796707153,0.3269230769230769,0.8269230769230769,0.35714285714285715,0.8571428571428571,0.0004
19,1.674891710281372,1.495934247970581,0.23076923076923078,0.8269230769230769,0.35714285714285715,0.8571428571428571,0.0004
20,1.636361837387085,1.5057933330535889,0.3269230769230769,0.8269230769230769,0.35714285714285715,0.8571428571428571,0.0004
21,1.5913052558898926,1.518540382385254,0.28846153846153844,0.8269230769230769,0.35714285714285715,0.8571428571428571,0.0004
22,1.5924909114837646,1.5295073986053467,0.4230769230769231,0.8269230769230769,0.35714285714285715,0.8571428571428571,0.0004
23,1.6052184700965881,1.5447157621383667,0.34615384615384615,0.8269230769230769,0.35714285714285715,0.8571428571428571,0.0004
24,1.6403575539588928,1.5602329969406128,0.2692307692307692,0.8269230769230769,0.21428571428571427,0.8571428571428571,0.0004
25,1.5831878185272217,1.5660557746887207,0.3269230769230769,0.8269230769230769,0.21428571428571427,0.8571428571428571,0.0004
26,1.6020044684410095,1.5720653533935547,0.34615384615384615,0.8269230769230769,0.21428571428571427,0.8571428571428571,0.0004
27,1.584065318107605,1.5727719068527222,0.36538461538461536,0.8269230769230769,0.21428571428571427,0.8571428571428571,0.0004
28,1.6174460649490356,1.5756802558898926,0.34615384615384615,0.8269230769230769,0.21428571428571427,0.8571428571428571,0.0004
29,1.5937374830245972,1.5728380680084229,0.34615384615384615,0.8269230769230769,0.21428571428571427,0.8571428571428571,0.0004
30,1.6240967512130737,1.5725520849227905,0.3076923076923077,0.8269230769230769,0.21428571428571427,0.8571428571428571,0.0004
31,1.645204484462738,1.5690467357635498,0.3076923076923077,0.8269230769230769,0.21428571428571427,0.8571428571428571,0.0004
32,1.6788832545280457,1.566514253616333,0.19230769230769232,0.8269230769230769,0.21428571428571427,0.8571428571428571,0.0004
33,1.5535585284233093,1.5662522315979004,0.36538461538461536,0.8076923076923077,0.21428571428571427,0.8571428571428571,0.0004
34,1.6116947531700134,1.5624940395355225,0.23076923076923078,0.8269230769230769,0.21428571428571427,0.8571428571428571,0.0004
35,1.5431824326515198,1.5620813369750977,0.5,0.8269230769230769,0.21428571428571427,0.8571428571428571,0.0004
36,1.5129901766777039,1.5561610460281372,0.3269230769230769,0.8269230769230769,0.21428571428571427,0.8571428571428571,0.0004
37,1.5991681218147278,1.5546796321868896,0.3269230769230769,0.8269230769230769,0.21428571428571427,0.8571428571428571,0.0004
38,1.6152278184890747,1.5487165451049805,0.36538461538461536,0.8269230769230769,0.21428571428571427,0.8571428571428571,0.0004
39,1.52298104763031,1.5448641777038574,0.46153846153846156,0.8269230769230769,0.21428571428571427,0.8571428571428571,0.0004
40,1.5545427203178406,1.5414620637893677,0.34615384615384615,0.8269230769230769,0.21428571428571427,0.8571428571428571,0.0004
41,1.5679886937141418,1.5377275943756104,0.4230769230769231,0.8269230769230769,0.21428571428571427,0.8571428571428571,0.0004
42,1.5607733726501465,1.5349011421203613,0.38461538461538464,0.8269230769230769,0.21428571428571427,0.8571428571428571,0.0004
43,1.5619691014289856,1.5333082675933838,0.3076923076923077,0.8269230769230769,0.21428571428571427,0.8571428571428571,0.0004
44,1.6053001284599304,1.5322983264923096,0.3076923076923077,0.8269230769230769,0.21428571428571427,0.8571428571428571,0.0004
45,1.643731951713562,1.530763030052185,0.25,0.8269230769230769,0.21428571428571427,0.8571428571428571,0.0004
46,1.5405880808830261,1.530173659324646,0.2692307692307692,0.8269230769230769,0.21428571428571427,0.8571428571428571,0.0004
47,1.5941188335418701,1.5291996002197266,0.28846153846153844,0.8269230769230769,0.21428571428571427,0.8571428571428571,0.0004
48,1.6111098527908325,1.5292295217514038,0.2692307692307692,0.8269230769230769,0.21428571428571427,0.8571428571428571,0.0004
49,1.5307530164718628,1.5282474756240845,0.4807692307692308,0.8269230769230769,0.21428571428571427,0.8571428571428571,0.0004
50,1.59441339969635,1.5284674167633057,0.36538461538461536,0.8269230769230769,0.21428571428571427,0.8571428571428571,0.0004
51,1.6215441226959229,1.531502604484558,0.2692307692307692,0.8269230769230769,0.21428571428571427,0.8571428571428571,0.0004
52,1.6417389512062073,1.535038948059082,0.21153846153846154,0.8269230769230769,0.21428571428571427,0.8571428571428571,0.0004
53,1.5835444927215576,1.5359485149383545,0.36538461538461536,0.8269230769230769,0.21428571428571427,0.8571428571428571,0.0004
54,1.6286191940307617,1.5382477045059204,0.28846153846153844,0.8269230769230769,0.21428571428571427,0.8571428571428571,0.0004
55,1.5848880410194397,1.5412009954452515,0.38461538461538464,0.8269230769230769,0.21428571428571427,0.8571428571428571,0.0004
56,1.583939015865326,1.543788194656372,0.5,0.8269230769230769,0.21428571428571427,0.8571428571428571,0.0004
57,1.5538913011550903,1.5480328798294067,0.28846153846153844,0.8269230769230769,0.21428571428571427,0.8571428571428571,0.0004
58,1.619438886642456,1.5512819290161133,0.3269230769230769,0.8269230769230769,0.21428571428571427,0.8571428571428571,0.0004
59,1.6170629262924194,1.551965594291687,0.34615384615384615,0.8269230769230769,0.21428571428571427,0.8571428571428571,0.0004
60,1.5805175304412842,1.5570580959320068,0.4230769230769231,0.8269230769230769,0.21428571428571427,0.8571428571428571,0.0004
61,1.617645502090454,1.5541788339614868,0.40384615384615385,0.8269230769230769,0.21428571428571427,0.8571428571428571,0.0004
62,1.5754852294921875,1.556830883026123,0.36538461538461536,0.8269230769230769,0.21428571428571427,0.8571428571428571,0.0004
63,1.5449674129486084,1.5562013387680054,0.28846153846153844,0.8269230769230769,0.21428571428571427,0.8571428571428571,0.0004
64,1.5944480299949646,1.5555286407470703,0.3269230769230769,0.8269230769230769,0.21428571428571427,0.8571428571428571,0.0004
65,1.6666792631149292,1.5547548532485962,0.3269230769230769,0.8269230769230769,0.21428571428571427,0.8571428571428571,0.0004
66,1.5782432556152344,1.5552384853363037,0.34615384615384615,0.8269230769230769,0.21428571428571427,0.8571428571428571,0.0004
67,1.6213955283164978,1.5560181140899658,0.21153846153846154,0.8269230769230769,0.21428571428571427,0.8571428571428571,0.0004
68,1.5404791831970215,1.5569572448730469,0.28846153846153844,0.8269230769230769,0.21428571428571427,0.8571428571428571,0.0004
69,1.5633035898208618,1.5532845258712769,0.3269230769230769,0.8269230769230769,0.21428571428571427,0.8571428571428571,0.0004
70,1.625631332397461,1.5505249500274658,0.3269230769230769,0.8269230769230769,0.21428571428571427,0.8571428571428571,0.0004
71,1.5371055603027344,1.5510894060134888,0.3269230769230769,0.8269230769230769,0.21428571428571427,0.8571428571428571,0.0004
72,1.651602327823639,1.5500173568725586,0.23076923076923078,0.8269230769230769,0.21428571428571427,0.8571428571428571,0.0004
73,1.5741755366325378,1.5495338439941406,0.34615384615384615,0.8269230769230769,0.21428571428571427,0.8571428571428571,0.0004
74,1.5489853620529175,1.5470291376113892,0.3076923076923077,0.8269230769230769,0.21428571428571427,0.8571428571428571,0.0004
75,1.6161789894104004,1.5458450317382812,0.34615384615384615,0.8269230769230769,0.21428571428571427,0.8571428571428571,0.0004
76,1.5933103561401367,1.5446429252624512,0.34615384615384615,0.8269230769230769,0.21428571428571427,0.8571428571428571,0.0004
77,1.5988779067993164,1.5464588403701782,0.3269230769230769,0.8269230769230769,0.21428571428571427,0.8571428571428571,0.0004
78,1.634364128112793,1.5443675518035889,0.34615384615384615,0.8269230769230769,0.21428571428571427,0.8571428571428571,0.0004
79,1.5898758172988892,1.5446819067001343,0.34615384615384615,0.8269230769230769,0.21428571428571427,0.8571428571428571,0.0004
80,1.6471285223960876,1.543968915939331,0.2692307692307692,0.8269230769230769,0.21428571428571427,0.8571428571428571,0.0004
81,1.5349745750427246,1.5461679697036743,0.38461538461538464,0.8269230769230769,0.21428571428571427,0.8571428571428571,0.0004
82,1.5704853534698486,1.5472931861877441,0.3269230769230769,0.8269230769230769,0.21428571428571427,0.8571428571428571,0.0004
83,1.6282610297203064,1.5442759990692139,0.3269230769230769,0.8269230769230769,0.21428571428571427,0.8571428571428571,0.0004
84,1.615978717803955,1.545868158340454,0.23076923076923078,0.8269230769230769,0.21428571428571427,0.8571428571428571,0.0004
85,1.555769443511963,1.546721339225769,0.38461538461538464,0.8269230769230769,0.21428571428571427,0.8571428571428571,0.0004
86,1.6099786758422852,1.5447285175323486,0.2692307692307692,0.8269230769230769,0.21428571428571427,0.8571428571428571,0.0004
87,1.5862764120101929,1.5461012125015259,0.3269230769230769,0.8269230769230769,0.21428571428571427,0.8571428571428571,0.0004
88,1.5862861275672913,1.5474035739898682,0.4423076923076923,0.8269230769230769,0.21428571428571427,0.8571428571428571,0.0004
89,1.6261743903160095,1.5433576107025146,0.23076923076923078,0.8269230769230769,0.21428571428571427,0.8571428571428571,0.0004
90,1.5886369347572327,1.544969081878662,0.36538461538461536,0.8269230769230769,0.21428571428571427,0.8571428571428571,0.0004
91,1.5575175881385803,1.541988730430603,0.40384615384615385,0.8269230769230769,0.21428571428571427,0.8571428571428571,0.0004
92,1.6089072227478027,1.542426586151123,0.34615384615384615,0.8269230769230769,0.21428571428571427,0.8571428571428571,0.0004
93,1.492973268032074,1.54079008102417,0.38461538461538464,0.8269230769230769,0.21428571428571427,0.8571428571428571,0.0004
94,1.616802453994751,1.5392664670944214,0.25,0.8269230769230769,0.21428571428571427,0.8571428571428571,0.0004
95,1.6733048558235168,1.5381437540054321,0.34615384615384615,0.8269230769230769,0.21428571428571427,0.8571428571428571,0.0004
96,1.6087558269500732,1.5347820520401,0.3269230769230769,0.8269230769230769,0.21428571428571427,0.8571428571428571,0.0004
97,1.4997735023498535,1.5340120792388916,0.4230769230769231,0.8269230769230769,0.21428571428571427,0.8571428571428571,0.0004
98,1.5836122632026672,1.5340147018432617,0.36538461538461536,0.8269230769230769,0.21428571428571427,0.8571428571428571,0.0004
99,1.5770390629768372,1.5313292741775513,0.34615384615384615,0.8269230769230769,0.21428571428571427,0.8571428571428571,0.0004
100,1.5719172954559326,1.5333662033081055,0.4423076923076923,0.8269230769230769,0.21428571428571427,0.8571428571428571,0.0004
101,1.5566979050636292,1.5310461521148682,0.36538461538461536,0.8269230769230769,0.21428571428571427,0.8571428571428571,0.0004
102,1.6011254787445068,1.5311609506607056,0.3269230769230769,0.8269230769230769,0.21428571428571427,0.8571428571428571,0.0004
103,1.5954920053482056,1.5290734767913818,0.36538461538461536,0.8269230769230769,0.21428571428571427,0.8571428571428571,0.0004
104,1.6218106746673584,1.5314596891403198,0.28846153846153844,0.8269230769230769,0.21428571428571427,0.8571428571428571,0.0004
105,1.5407286882400513,1.5311367511749268,0.28846153846153844,0.8269230769230769,0.21428571428571427,0.8571428571428571,0.0004
106,1.5642854571342468,1.5278292894363403,0.36538461538461536,0.8269230769230769,0.21428571428571427,0.8571428571428571,0.0004
107,1.560534417629242,1.5307775735855103,0.34615384615384615,0.8269230769230769,0.21428571428571427,0.8571428571428571,0.0004
108,1.6723843812942505,1.531838297843933,0.28846153846153844,0.8269230769230769,0.21428571428571427,0.8571428571428571,0.0004
109,1.574662685394287,1.5337445735931396,0.38461538461538464,0.8269230769230769,0.21428571428571427,0.8571428571428571,0.0004
110,1.563268005847931,1.5358771085739136,0.34615384615384615,0.8269230769230769,0.21428571428571427,0.8571428571428571,0.0004
111,1.6252268552780151,1.5412046909332275,0.28846153846153844,0.8269230769230769,0.21428571428571427,0.8571428571428571,0.0004
112,1.6204805374145508,1.5394939184188843,0.3076923076923077,0.8269230769230769,0.21428571428571427,0.8571428571428571,0.0004
113,1.6034369468688965,1.5443594455718994,0.25,0.8269230769230769,0.21428571428571427,0.8571428571428571,0.0004
114,1.557248294353485,1.5461487770080566,0.38461538461538464,0.8269230769230769,0.21428571428571427,0.8571428571428571,0.0004
115,1.6375731825828552,1.5471632480621338,0.21153846153846154,0.8269230769230769,0.21428571428571427,0.8571428571428571,0.0004
116,1.5749248266220093,1.5423541069030762,0.34615384615384615,0.8269230769230769,0.21428571428571427,0.8571428571428571,0.0004
117,1.5800792574882507,1.5475714206695557,0.34615384615384615,0.8269230769230769,0.21428571428571427,0.8571428571428571,0.0004
118,1.6286116242408752,1.546377420425415,0.4423076923076923,0.8269230769230769,0.21428571428571427,0.8571428571428571,0.0004
119,1.5808902382850647,1.5444663763046265,0.38461538461538464,0.8269230769230769,0.21428571428571427,0.8571428571428571,0.0004
120,1.5781055688858032,1.5481764078140259,0.4807692307692308,0.8269230769230769,0.21428571428571427,0.8571428571428571,0.0004
121,1.5785013437271118,1.545366644859314,0.2692307692307692,0.8269230769230769,0.21428571428571427,0.8571428571428571,0.0004
122,1.6360554099082947,1.5464380979537964,0.34615384615384615,0.8269230769230769,0.21428571428571427,0.8571428571428571,0.0004
123,1.5685571432113647,1.5426167249679565,0.36538461538461536,0.8269230769230769,0.21428571428571427,0.8571428571428571,0.0004
124,1.5721436738967896,1.546489953994751,0.38461538461538464,0.8269230769230769,0.21428571428571427,0.8571428571428571,0.0004
125,1.5798645615577698,1.5422873497009277,0.34615384615384615,0.8269230769230769,0.21428571428571427,0.8571428571428571,0.0004
126,1.6123536825180054,1.5400655269622803,0.23076923076923078,0.8269230769230769,0.21428571428571427,0.8571428571428571,0.0004
127,1.5760514736175537,1.5405200719833374,0.38461538461538464,0.8269230769230769,0.21428571428571427,0.8571428571428571,0.0004
128,1.583263635635376,1.5399771928787231,0.46153846153846156,0.8269230769230769,0.21428571428571427,0.8571428571428571,0.0004
129,1.6157620549201965,1.5409493446350098,0.40384615384615385,0.8269230769230769,0.21428571428571427,0.8571428571428571,0.0004
130,1.5772337913513184,1.539564847946167,0.34615384615384615,0.8269230769230769,0.21428571428571427,0.8571428571428571,0.0004
131,1.5892367362976074,1.5395087003707886,0.38461538461538464,0.8269230769230769,0.21428571428571427,0.8571428571428571,0.0004
132,1.5738468170166016,1.5424598455429077,0.28846153846153844,0.8269230769230769,0.21428571428571427,0.8571428571428571,0.0004
133,1.5036113858222961,1.5360064506530762,0.4423076923076923,0.8269230769230769,0.21428571428571427,0.8571428571428571,0.0004
134,1.6498098373413086,1.5394381284713745,0.3269230769230769,0.8269230769230769,0.21428571428571427,0.8571428571428571,0.0004
135,1.592697262763977,1.5388386249542236,0.2692307692307692,0.8269230769230769,0.21428571428571427,0.8571428571428571,0.0004
136,1.5672526955604553,1.535582184791565,0.4230769230769231,0.8269230769230769,0.21428571428571427,0.8571428571428571,0.0004
137,1.534697949886322,1.5346300601959229,0.40384615384615385,0.8269230769230769,0.21428571428571427,0.8571428571428571,0.0004
138,1.614719271659851,1.5390872955322266,0.2692307692307692,0.8269230769230769,0.21428571428571427,0.8571428571428571,0.0004
139,1.52166348695755,1.5384178161621094,0.40384615384615385,0.8269230769230769,0.21428571428571427,0.8571428571428571,0.0004
140,1.513546884059906,1.5378795862197876,0.38461538461538464,0.8269230769230769,0.21428571428571427,0.8571428571428571,0.0004
141,1.6144017577171326,1.5354597568511963,0.34615384615384615,0.8269230769230769,0.21428571428571427,0.8571428571428571,0.0004
142,1.56696355342865,1.5356717109680176,0.25,0.8269230769230769,0.21428571428571427,0.8571428571428571,0.0004
143,1.5889720916748047,1.5316781997680664,0.19230769230769232,0.8269230769230769,0.21428571428571427,0.8571428571428571,0.0004
144,1.5749918222427368,1.539034366607666,0.28846153846153844,0.8269230769230769,0.21428571428571427,0.8571428571428571,0.0004
145,1.5800290703773499,1.5362383127212524,0.46153846153846156,0.8269230769230769,0.21428571428571427,0.8571428571428571,0.0004
146,1.5972603559494019,1.5428482294082642,0.3269230769230769,0.8269230769230769,0.21428571428571427,0.8571428571428571,0.0004
147,1.6233665943145752,1.5385501384735107,0.3076923076923077,0.8269230769230769,0.21428571428571427,0.8571428571428571,0.0004
148,1.5952476263046265,1.5458705425262451,0.36538461538461536,0.8269230769230769,0.21428571428571427,0.8571428571428571,0.0004
149,1.541426420211792,1.5436208248138428,0.3269230769230769,0.8269230769230769,0.21428571428571427,0.8571428571428571,0.0004
150,1.6689549684524536,1.5460401773452759,0.23076923076923078,0.8269230769230769,0.21428571428571427,0.8571428571428571,0.0004
151,1.5266055464744568,1.5502229928970337,0.40384615384615385,0.8269230769230769,0.21428571428571427,0.8571428571428571,0.0004
152,1.54781836271286,1.5479332208633423,0.34615384615384615,0.8269230769230769,0.21428571428571427,0.8571428571428571,0.0004
153,1.5512926578521729,1.5494985580444336,0.34615384615384615,0.8269230769230769,0.21428571428571427,0.8571428571428571,0.0004
154,1.6026768684387207,1.5450010299682617,0.4230769230769231,0.8269230769230769,0.21428571428571427,0.8571428571428571,0.0004
155,1.5772412419319153,1.5509300231933594,0.34615384615384615,0.8269230769230769,0.21428571428571427,0.8571428571428571,0.0004
156,1.567827820777893,1.5463130474090576,0.40384615384615385,0.8269230769230769,0.21428571428571427,0.8571428571428571,0.0004
157,1.6235979795455933,1.551250696182251,0.3076923076923077,0.8269230769230769,0.21428571428571427,0.8571428571428571,0.0004
158,1.6035842299461365,1.5497722625732422,0.3269230769230769,0.8269230769230769,0.21428571428571427,0.8571428571428571,0.0004
159,1.5522843599319458,1.5471954345703125,0.4807692307692308,0.8269230769230769,0.21428571428571427,0.8571428571428571,0.0004
160,1.545454978942871,1.5469392538070679,0.3076923076923077,0.8269230769230769,0.21428571428571427,0.8571428571428571,0.0004
161,1.6151590943336487,1.5405668020248413,0.25,0.8269230769230769,0.21428571428571427,0.8571428571428571,0.0004
162,1.5110719203948975,1.5466192960739136,0.34615384615384615,0.8269230769230769,0.21428571428571427,0.8571428571428571,0.0004
163,1.5650712251663208,1.545416235923767,0.40384615384615385,0.8269230769230769,0.21428571428571427,0.8571428571428571,0.0004
164,1.5636558532714844,1.5399384498596191,0.3076923076923077,0.8269230769230769,0.21428571428571427,0.8571428571428571,0.0004
165,1.6058067083358765,1.5413042306900024,0.3076923076923077,0.8269230769230769,0.21428571428571427,0.8571428571428571,0.0004
166,1.5403132438659668,1.5458674430847168,0.5192307692307693,0.8269230769230769,0.21428571428571427,0.8571428571428571,0.0004
167,1.5851213335990906,1.542328953742981,0.3076923076923077,0.8269230769230769,0.21428571428571427,0.8571428571428571,0.0004
168,1.5702413320541382,1.5448517799377441,0.40384615384615385,0.8269230769230769,0.21428571428571427,0.8571428571428571,0.0004
169,1.539129614830017,1.5462077856063843,0.38461538461538464,0.8269230769230769,0.21428571428571427,0.8571428571428571,0.0004
170,1.6028013229370117,1.5457980632781982,0.2692307692307692,0.8269230769230769,0.21428571428571427,0.8571428571428571,0.0004
171,1.5314747095108032,1.551389217376709,0.40384615384615385,0.8269230769230769,0.21428571428571427,0.8571428571428571,0.0004
172,1.55644291639328,1.5491094589233398,0.4230769230769231,0.8269230769230769,0.21428571428571427,0.8571428571428571,0.0004
173,1.5988980531692505,1.546130895614624,0.3269230769230769,0.8269230769230769,0.21428571428571427,0.8571428571428571,0.0004
174,1.5529035925865173,1.5570764541625977,0.4230769230769231,0.8269230769230769,0.21428571428571427,0.8571428571428571,0.0004
175,1.5409901142120361,1.556016445159912,0.3269230769230769,0.8269230769230769,0.21428571428571427,0.8571428571428571,0.0004
176,1.5699303150177002,1.546909213066101,0.3269230769230769,0.8269230769230769,0.21428571428571427,0.8571428571428571,0.0004
177,1.5462244153022766,1.5531017780303955,0.4230769230769231,0.8269230769230769,0.21428571428571427,0.8571428571428571,0.0004
178,1.5094053745269775,1.5519405603408813,0.34615384615384615,0.8269230769230769,0.21428571428571427,0.8571428571428571,0.0004
179,1.611891269683838,1.5452117919921875,0.2692307692307692,0.8269230769230769,0.21428571428571427,0.8571428571428571,0.0004
180,1.5402662754058838,1.5476248264312744,0.2692307692307692,0.8269230769230769,0.21428571428571427,0.8571428571428571,0.0004
181,1.5387482643127441,1.5476531982421875,0.3269230769230769,0.8269230769230769,0.21428571428571427,0.8571428571428571,0.0004
182,1.538118600845337,1.5443980693817139,0.3269230769230769,0.8269230769230769,0.21428571428571427,0.8571428571428571,0.0004
183,1.5954906940460205,1.5394482612609863,0.3076923076923077,0.8269230769230769,0.21428571428571427,0.8571428571428571,0.0004
184,1.4998189210891724,1.5420823097229004,0.4423076923076923,0.8269230769230769,0.21428571428571427,0.8571428571428571,0.0004
185,1.587831199169159,1.5430102348327637,0.3269230769230769,0.8269230769230769,0.21428571428571427,0.8571428571428571,0.0004
186,1.53262197971344,1.5427175760269165,0.3269230769230769,0.8269230769230769,0.21428571428571427,0.8571428571428571,0.0004
187,1.6208922266960144,1.5377534627914429,0.34615384615384615,0.8269230769230769,0.21428571428571427,0.8571428571428571,0.0004
188,1.5411333441734314,1.5394949913024902,0.28846153846153844,0.8269230769230769,0.21428571428571427,0.8571428571428571,0.0004
189,1.6088301539421082,1.5370842218399048,0.38461538461538464,0.8269230769230769,0.21428571428571427,0.8571428571428571,0.0004
190,1.6420060992240906,1.5393319129943848,0.38461538461538464,0.8269230769230769,0.21428571428571427,0.8571428571428571,0.0004
191,1.6101001501083374,1.5434865951538086,0.2692307692307692,0.8269230769230769,0.21428571428571427,0.8571428571428571,0.0004
192,1.5411381125450134,1.5468381643295288,0.38461538461538464,0.8269230769230769,0.21428571428571427,0.8571428571428571,0.0004
193,1.5407893061637878,1.5521433353424072,0.36538461538461536,0.8269230769230769,0.21428571428571427,0.8571428571428571,0.0004
194,1.5467517971992493,1.551868200302124,0.38461538461538464,0.8269230769230769,0.21428571428571427,0.8571428571428571,0.0004
195,1.5084380507469177,1.5484113693237305,0.36538461538461536,0.8269230769230769,0.21428571428571427,0.8571428571428571,0.0004
196,1.5727537274360657,1.5559556484222412,0.28846153846153844,0.8269230769230769,0.21428571428571427,0.8571428571428571,0.0004
197,1.5570586323738098,1.5550408363342285,0.38461538461538464,0.8269230769230769,0.21428571428571427,0.8571428571428571,0.0004
198,1.5961883664131165,1.5444004535675049,0.23076923076923078,0.8269230769230769,0.21428571428571427,0.8571428571428571,0.0004
199,1.6155483722686768,1.5519907474517822,0.28846153846153844,0.8269230769230769,0.21428571428571427,0.8571428571428571,0.0004
200,1.5508708953857422,1.5381392240524292,0.40384615384615385,0.8269230769230769,0.21428571428571427,0.8571428571428571,0.0004
201,1.559612214565277,1.5455632209777832,0.40384615384615385,0.8269230769230769,0.21428571428571427,0.8571428571428571,0.0004
202,1.5596219897270203,1.5369012355804443,0.3269230769230769,0.8269230769230769,0.21428571428571427,0.8571428571428571,0.0004
203,1.5881303548812866,1.5475870370864868,0.36538461538461536,0.8269230769230769,0.21428571428571427,0.8571428571428571,0.0004
204,1.5887532234191895,1.5455970764160156,0.4230769230769231,0.8269230769230769,0.21428571428571427,0.8571428571428571,0.0004
205,1.571179449558258,1.538654088973999,0.25,0.8269230769230769,0.21428571428571427,0.8571428571428571,0.0004
206,1.549944281578064,1.5397028923034668,0.40384615384615385,0.8269230769230769,0.21428571428571427,0.8571428571428571,0.0004
207,1.586158037185669,1.5441079139709473,0.38461538461538464,0.8269230769230769,0.21428571428571427,0.8571428571428571,0.0004
208,1.5390613675117493,1.538618803024292,0.46153846153846156,0.8269230769230769,0.21428571428571427,0.8571428571428571,0.0004
209,1.5562321543693542,1.5430587530136108,0.34615384615384615,0.8269230769230769,0.21428571428571427,0.8571428571428571,0.0004
210,1.5759881138801575,1.5467523336410522,0.40384615384615385,0.8269230769230769,0.21428571428571427,0.8571428571428571,0.0004
211,1.5800681114196777,1.552796483039856,0.2692307692307692,0.8269230769230769,0.21428571428571427,0.8571428571428571,0.0004
212,1.548038125038147,1.542783498764038,0.36538461538461536,0.8269230769230769,0.21428571428571427,0.8571428571428571,0.0004
213,1.607967734336853,1.5505632162094116,0.2692307692307692,0.8269230769230769,0.21428571428571427,0.8571428571428571,0.0004
214,1.6327639818191528,1.5512058734893799,0.19230769230769232,0.8269230769230769,0.21428571428571427,0.8571428571428571,0.0004
215,1.6070053577423096,1.5505813360214233,0.3076923076923077,0.8269230769230769,0.21428571428571427,0.8571428571428571,0.0004
216,1.5378268957138062,1.5535173416137695,0.38461538461538464,0.8269230769230769,0.21428571428571427,0.8571428571428571,0.0004
217,1.6305394172668457,1.5592341423034668,0.19230769230769232,0.8269230769230769,0.21428571428571427,0.8571428571428571,0.0004
218,1.6144697666168213,1.5497102737426758,0.34615384615384615,0.8269230769230769,0.21428571428571427,0.8571428571428571,0.0004
219,1.5422074794769287,1.5647531747817993,0.36538461538461536,0.8269230769230769,0.21428571428571427,0.8571428571428571,0.0004
220,1.6051874160766602,1.5593297481536865,0.28846153846153844,0.8269230769230769,0.21428571428571427,0.8571428571428571,0.0004
221,1.5582293272018433,1.5585064888000488,0.3269230769230769,0.8269230769230769,0.21428571428571427,0.8571428571428571,0.0004
222,1.582462728023529,1.5522174835205078,0.4230769230769231,0.8269230769230769,0.21428571428571427,0.8571428571428571,0.0004
223,1.5746797323226929,1.548069953918457,0.40384615384615385,0.8269230769230769,0.21428571428571427,0.8571428571428571,0.0004
224,1.5686447620391846,1.556459665298462,0.34615384615384615,0.8269230769230769,0.21428571428571427,0.8571428571428571,0.0004
225,1.6398417949676514,1.550694465637207,0.38461538461538464,0.8269230769230769,0.21428571428571427,0.8571428571428571,0.0004
226,1.6317598223686218,1.554000973701477,0.2692307692307692,0.8269230769230769,0.21428571428571427,0.8571428571428571,0.0004
227,1.5390808582305908,1.5567357540130615,0.40384615384615385,0.8269230769230769,0.21428571428571427,0.8571428571428571,0.0004
228,1.592735469341278,1.5467193126678467,0.36538461538461536,0.8269230769230769,0.21428571428571427,0.8571428571428571,0.0004
229,1.605249047279358,1.546328067779541,0.46153846153846156,0.8269230769230769,0.21428571428571427,0.8571428571428571,0.0004
230,1.5709646940231323,1.5448237657546997,0.4230769230769231,0.8269230769230769,0.21428571428571427,0.8571428571428571,0.0004
231,1.5194511413574219,1.5525343418121338,0.36538461538461536,0.8269230769230769,0.21428571428571427,0.8571428571428571,0.0004
232,1.6429131627082825,1.550102949142456,0.3076923076923077,0.8269230769230769,0.21428571428571427,0.8571428571428571,0.0004
233,1.557409405708313,1.5596563816070557,0.38461538461538464,0.8269230769230769,0.21428571428571427,0.8571428571428571,0.0004
234,1.5926263928413391,1.5467875003814697,0.3269230769230769,0.8269230769230769,0.21428571428571427,0.8571428571428571,0.0004
235,1.5978127717971802,1.5454647541046143,0.38461538461538464,0.8269230769230769,0.21428571428571427,0.8571428571428571,0.0004
236,1.600356638431549,1.5524084568023682,0.36538461538461536,0.8269230769230769,0.21428571428571427,0.8571428571428571,0.0004
237,1.5715684294700623,1.5523288249969482,0.4423076923076923,0.8269230769230769,0.21428571428571427,0.8571428571428571,0.0004
238,1.5490778088569641,1.5502419471740723,0.36538461538461536,0.8269230769230769,0.21428571428571427,0.8571428571428571,0.0004
239,1.5975435376167297,1.5546534061431885,0.40384615384615385,0.8269230769230769,0.21428571428571427,0.8571428571428571,0.0004
240,1.5496466159820557,1.5465298891067505,0.36538461538461536,0.8269230769230769,0.21428571428571427,0.8571428571428571,0.0004
241,1.608536720275879,1.5556309223175049,0.25,0.8269230769230769,0.21428571428571427,0.8571428571428571,0.0004
242,1.5396775007247925,1.5438361167907715,0.38461538461538464,0.8269230769230769,0.21428571428571427,0.8571428571428571,0.0004
243,1.5812063813209534,1.5498055219650269,0.34615384615384615,0.8269230769230769,0.21428571428571427,0.8571428571428571,0.0004
244,1.5361837148666382,1.547659158706665,0.40384615384615385,0.8269230769230769,0.21428571428571427,0.8571428571428571,0.0004
245,1.5356391668319702,1.540520429611206,0.38461538461538464,0.8269230769230769,0.21428571428571427,0.8571428571428571,0.0004
246,1.5972996950149536,1.536027431488037,0.36538461538461536,0.8269230769230769,0.21428571428571427,0.8571428571428571,0.0004
247,1.5851167440414429,1.5445761680603027,0.28846153846153844,0.8269230769230769,0.21428571428571427,0.8571428571428571,0.0004
248,1.5947166085243225,1.5423201322555542,0.25,0.8269230769230769,0.21428571428571427,0.8571428571428571,0.0004
249,1.6591162085533142,1.537124752998352,0.2692307692307692,0.8269230769230769,0.21428571428571427,0.8571428571428571,0.0004
250,1.573509931564331,1.5425069332122803,0.28846153846153844,0.8269230769230769,0.21428571428571427,0.8571428571428571,0.0004
251,1.571761965751648,1.5459988117218018,0.46153846153846156,0.8269230769230769,0.21428571428571427,0.8571428571428571,0.0004
252,1.631234049797058,1.554821491241455,0.38461538461538464,0.8269230769230769,0.21428571428571427,0.8571428571428571,0.0004
253,1.6032190918922424,1.5542564392089844,0.3076923076923077,0.8269230769230769,0.21428571428571427,0.8571428571428571,0.0004
254,1.5557950139045715,1.5515196323394775,0.40384615384615385,0.8269230769230769,0.21428571428571427,0.8571428571428571,0.0004
255,1.5716125965118408,1.5649008750915527,0.4423076923076923,0.8269230769230769,0.21428571428571427,0.8571428571428571,0.0004
256,1.6107090711593628,1.556898593902588,0.3269230769230769,0.8269230769230769,0.21428571428571427,0.8571428571428571,0.0004
257,1.5475335121154785,1.5397679805755615,0.36538461538461536,0.8269230769230769,0.21428571428571427,0.8571428571428571,0.0004
258,1.5211578011512756,1.5561628341674805,0.40384615384615385,0.8269230769230769,0.21428571428571427,0.8571428571428571,0.0004
259,1.5658507943153381,1.5446422100067139,0.36538461538461536,0.8269230769230769,0.21428571428571427,0.8571428571428571,0.0004
260,1.5807382464408875,1.5420658588409424,0.25,0.8269230769230769,0.21428571428571427,0.8571428571428571,0.0004
261,1.543437421321869,1.5426924228668213,0.40384615384615385,0.8269230769230769,0.21428571428571427,0.8571428571428571,0.0004
262,1.5468347668647766,1.5365771055221558,0.3076923076923077,0.8269230769230769,0.2857142857142857,0.8571428571428571,0.0004
263,1.5940406918525696,1.5358600616455078,0.36538461538461536,0.8269230769230769,0.2857142857142857,0.8571428571428571,0.0004
264,1.5963563919067383,1.5368497371673584,0.3269230769230769,0.8269230769230769,0.2857142857142857,0.8571428571428571,0.0004
265,1.5424548387527466,1.538081407546997,0.28846153846153844,0.8269230769230769,0.2857142857142857,0.8571428571428571,0.0004
266,1.6097090244293213,1.5243120193481445,0.4230769230769231,0.8269230769230769,0.2857142857142857,0.8571428571428571,0.0004
267,1.5690808296203613,1.5288281440734863,0.40384615384615385,0.8269230769230769,0.21428571428571427,0.8571428571428571,0.0004
268,1.5668435096740723,1.5294697284698486,0.36538461538461536,0.8269230769230769,0.21428571428571427,0.8571428571428571,0.0004
269,1.5883529782295227,1.529836893081665,0.36538461538461536,0.8269230769230769,0.21428571428571427,0.8571428571428571,0.0004
270,1.5673360228538513,1.5316507816314697,0.23076923076923078,0.8269230769230769,0.21428571428571427,0.8571428571428571,0.0004
271,1.567111611366272,1.555029273033142,0.34615384615384615,0.8269230769230769,0.21428571428571427,0.8571428571428571,0.0004
272,1.5755518078804016,1.5361326932907104,0.25,0.8269230769230769,0.21428571428571427,0.8571428571428571,0.0004
273,1.5976229310035706,1.5529290437698364,0.36538461538461536,0.8269230769230769,0.21428571428571427,0.8571428571428571,0.0004
274,1.5430430173873901,1.5544359683990479,0.28846153846153844,0.8269230769230769,0.21428571428571427,0.8571428571428571,0.0004
275,1.5417129397392273,1.54796302318573,0.4230769230769231,0.8269230769230769,0.21428571428571427,0.8571428571428571,0.0004
276,1.565850853919983,1.5443165302276611,0.36538461538461536,0.8269230769230769,0.21428571428571427,0.8571428571428571,0.0004
277,1.5755098462104797,1.5429433584213257,0.40384615384615385,0.8269230769230769,0.21428571428571427,0.8571428571428571,0.0004
278,1.5833492279052734,1.5393059253692627,0.23076923076923078,0.8269230769230769,0.21428571428571427,0.8571428571428571,0.0004
279,1.609532117843628,1.5390852689743042,0.23076923076923078,0.8269230769230769,0.21428571428571427,0.8571428571428571,0.0004
280,1.5447195768356323,1.5374869108200073,0.23076923076923078,0.8269230769230769,0.21428571428571427,0.8571428571428571,0.0004
281,1.5766241550445557,1.5457346439361572,0.34615384615384615,0.8269230769230769,0.21428571428571427,0.8571428571428571,0.0004
282,1.5997545719146729,1.5509759187698364,0.40384615384615385,0.8269230769230769,0.21428571428571427,0.8571428571428571,0.0004
283,1.6612756848335266,1.5328011512756348,0.3076923076923077,0.8269230769230769,0.21428571428571427,0.8571428571428571,0.0004
284,1.6207526922225952,1.5474597215652466,0.36538461538461536,0.8269230769230769,0.21428571428571427,0.8571428571428571,0.0004
285,1.6230396628379822,1.542710781097412,0.34615384615384615,0.8269230769230769,0.21428571428571427,0.8571428571428571,0.0004
286,1.6160610914230347,1.5543813705444336,0.28846153846153844,0.8269230769230769,0.21428571428571427,0.8571428571428571,0.0004
287,1.5510404109954834,1.553762674331665,0.40384615384615385,0.8269230769230769,0.21428571428571427,0.8571428571428571,0.0004
288,1.5893552899360657,1.5620572566986084,0.34615384615384615,0.8269230769230769,0.21428571428571427,0.8571428571428571,0.0004
289,1.5676641464233398,1.5480186939239502,0.36538461538461536,0.8269230769230769,0.21428571428571427,0.8571428571428571,0.0004
290,1.588850736618042,1.551193356513977,0.40384615384615385,0.8269230769230769,0.21428571428571427,0.8571428571428571,0.0004
291,1.606745421886444,1.5630602836608887,0.25,0.8269230769230769,0.21428571428571427,0.8571428571428571,0.0004
292,1.5697209239006042,1.5696978569030762,0.28846153846153844,0.8269230769230769,0.21428571428571427,0.8571428571428571,0.0004
293,1.5966497659683228,1.5563929080963135,0.23076923076923078,0.8269230769230769,0.21428571428571427,0.8571428571428571,0.0004
294,1.563163697719574,1.5584748983383179,0.23076923076923078,0.8269230769230769,0.21428571428571427,0.8571428571428571,0.0004
295,1.612921953201294,1.5467028617858887,0.38461538461538464,0.8269230769230769,0.21428571428571427,0.8571428571428571,0.0004
296,1.5959018468856812,1.545103907585144,0.36538461538461536,0.8269230769230769,0.21428571428571427,0.8571428571428571,0.0004
297,1.634053349494934,1.5479357242584229,0.3076923076923077,0.8269230769230769,0.21428571428571427,0.8571428571428571,0.0004
298,1.6511495113372803,1.5649696588516235,0.28846153846153844,0.8269230769230769,0.21428571428571427,0.8571428571428571,0.0004
299,1.4938388466835022,1.5518453121185303,0.3269230769230769,0.8269230769230769,0.21428571428571427,0.8571428571428571,0.0004
300,1.5723145604133606,1.5532622337341309,0.34615384615384615,0.8269230769230769,0.21428571428571427,0.8571428571428571,0.0004
301,1.5888667702674866,1.5664490461349487,0.38461538461538464,0.8269230769230769,0.21428571428571427,0.8571428571428571,0.0004
302,1.545513927936554,1.5415743589401245,0.38461538461538464,0.8269230769230769,0.21428571428571427,0.8571428571428571,0.0004
303,1.5548956990242004,1.5535669326782227,0.34615384615384615,0.8269230769230769,0.21428571428571427,0.8571428571428571,0.0004
304,1.566640853881836,1.5511144399642944,0.38461538461538464,0.8269230769230769,0.21428571428571427,0.8571428571428571,0.0004
305,1.6067839860916138,1.546986699104309,0.36538461538461536,0.8269230769230769,0.21428571428571427,0.8571428571428571,0.0004
306,1.532689392566681,1.5369704961776733,0.36538461538461536,0.8269230769230769,0.21428571428571427,0.8571428571428571,0.0004
307,1.5858010053634644,1.5494807958602905,0.25,0.8269230769230769,0.21428571428571427,0.8571428571428571,0.0004
308,1.5676295161247253,1.5341835021972656,0.2692307692307692,0.8269230769230769,0.21428571428571427,0.8571428571428571,0.0004
309,1.5728060007095337,1.54718816280365,0.38461538461538464,0.8269230769230769,0.21428571428571427,0.8571428571428571,0.0004
310,1.6084569096565247,1.5313019752502441,0.21153846153846154,0.8269230769230769,0.21428571428571427,0.8571428571428571,0.0004
311,1.563872754573822,1.5526654720306396,0.38461538461538464,0.8269230769230769,0.21428571428571427,0.8571428571428571,0.0004
312,1.6210001707077026,1.5411521196365356,0.36538461538461536,0.8269230769230769,0.21428571428571427,0.8571428571428571,0.0004
313,1.575710415840149,1.5502285957336426,0.34615384615384615,0.8269230769230769,0.21428571428571427,0.8571428571428571,0.0004
314,1.5064556002616882,1.5465528964996338,0.4230769230769231,0.8269230769230769,0.21428571428571427,0.8571428571428571,0.0004
315,1.592466413974762,1.5636218786239624,0.34615384615384615,0.8269230769230769,0.21428571428571427,0.8571428571428571,0.0004
316,1.5038947463035583,1.5552425384521484,0.34615384615384615,0.8269230769230769,0.21428571428571427,0.8571428571428571,0.0004
317,1.6048582792282104,1.5457913875579834,0.25,0.8269230769230769,0.21428571428571427,0.8571428571428571,0.0004
318,1.538360059261322,1.5292500257492065,0.4807692307692308,0.8269230769230769,0.21428571428571427,0.8571428571428571,0.0004
319,1.5564599633216858,1.524567723274231,0.25,0.8269230769230769,0.21428571428571427,0.8571428571428571,0.0004
320,1.5285260081291199,1.5455048084259033,0.28846153846153844,0.8269230769230769,0.21428571428571427,0.8571428571428571,0.0004
321,1.5860819220542908,1.5303736925125122,0.38461538461538464,0.8269230769230769,0.21428571428571427,0.8571428571428571,0.0004
322,1.5541753768920898,1.5266032218933105,0.2692307692307692,0.8269230769230769,0.21428571428571427,0.8571428571428571,0.0004
323,1.5796418190002441,1.5421215295791626,0.34615384615384615,0.8269230769230769,0.21428571428571427,0.8571428571428571,0.0004
324,1.5984266996383667,1.5597968101501465,0.38461538461538464,0.8269230769230769,0.21428571428571427,0.8571428571428571,0.0004
325,1.5571126341819763,1.5470913648605347,0.34615384615384615,0.8269230769230769,0.21428571428571427,0.8571428571428571,0.0004
326,1.5729783773422241,1.5415359735488892,0.3076923076923077,0.8269230769230769,0.21428571428571427,0.8571428571428571,0.0004
327,1.5881731510162354,1.5638176202774048,0.3076923076923077,0.8269230769230769,0.21428571428571427,0.8571428571428571,0.0004
328,1.5077353715896606,1.554573893547058,0.34615384615384615,0.8269230769230769,0.21428571428571427,0.8571428571428571,0.0004
329,1.5875466465950012,1.5578644275665283,0.28846153846153844,0.8269230769230769,0.21428571428571427,0.8571428571428571,0.0004
330,1.5875602960586548,1.5488964319229126,0.40384615384615385,0.8269230769230769,0.21428571428571427,0.8571428571428571,0.0004
331,1.561073124408722,1.5492931604385376,0.28846153846153844,0.8269230769230769,0.21428571428571427,0.8571428571428571,0.0004
332,1.5722986459732056,1.5605297088623047,0.38461538461538464,0.8269230769230769,0.21428571428571427,0.8571428571428571,0.0004
333,1.5577069520950317,1.561307430267334,0.40384615384615385,0.8269230769230769,0.21428571428571427,0.8571428571428571,0.0004
334,1.5855260491371155,1.5533723831176758,0.25,0.8269230769230769,0.21428571428571427,0.8571428571428571,0.0004
335,1.546162188053131,1.562035083770752,0.3076923076923077,0.8269230769230769,0.21428571428571427,0.8571428571428571,0.0004
336,1.4990110993385315,1.5571414232254028,0.23076923076923078,0.8269230769230769,0.21428571428571427,0.8571428571428571,0.0004
337,1.544592559337616,1.5588631629943848,0.4807692307692308,0.8269230769230769,0.21428571428571427,0.8571428571428571,0.0004
338,1.5671746730804443,1.5442458391189575,0.3269230769230769,0.8269230769230769,0.21428571428571427,0.8571428571428571,0.0004
339,1.6553117632865906,1.5546669960021973,0.40384615384615385,0.8269230769230769,0.21428571428571427,0.8571428571428571,0.0004
340,1.5984827876091003,1.5533102750778198,0.36538461538461536,0.8269230769230769,0.21428571428571427,0.8571428571428571,0.0004
341,1.5461992025375366,1.5550349950790405,0.3076923076923077,0.8269230769230769,0.21428571428571427,0.8571428571428571,0.0004
342,1.5925235748291016,1.5408267974853516,0.38461538461538464,0.8269230769230769,0.21428571428571427,0.8571428571428571,0.0004
343,1.5069696307182312,1.550414800643921,0.40384615384615385,0.8269230769230769,0.21428571428571427,0.8571428571428571,0.0004
344,1.5718099474906921,1.5561531782150269,0.34615384615384615,0.8269230769230769,0.21428571428571427,0.8571428571428571,0.0004
345,1.5857640504837036,1.5543025732040405,0.38461538461538464,0.8269230769230769,0.21428571428571427,0.8571428571428571,0.0004
346,1.5314751267433167,1.568798303604126,0.36538461538461536,0.8269230769230769,0.21428571428571427,0.8571428571428571,0.0004
347,1.5420268774032593,1.5582404136657715,0.3076923076923077,0.8269230769230769,0.21428571428571427,0.8571428571428571,0.0004
348,1.621759831905365,1.5527576208114624,0.3269230769230769,0.8269230769230769,0.21428571428571427,0.8571428571428571,0.0004
349,1.5715396404266357,1.5639736652374268,0.36538461538461536,0.8269230769230769,0.21428571428571427,0.8571428571428571,0.0004
350,1.5723302960395813,1.5514558553695679,0.38461538461538464,0.8269230769230769,0.21428571428571427,0.8571428571428571,0.0004
351,1.5453542470932007,1.5519514083862305,0.34615384615384615,0.8269230769230769,0.21428571428571427,0.8571428571428571,0.0004
352,1.5641377568244934,1.558685541152954,0.38461538461538464,0.8269230769230769,0.21428571428571427,0.8571428571428571,0.0004
353,1.5531408786773682,1.5548553466796875,0.3269230769230769,0.8269230769230769,0.21428571428571427,0.8571428571428571,0.0004
354,1.5367737412452698,1.5484222173690796,0.4423076923076923,0.8269230769230769,0.21428571428571427,0.8571428571428571,0.0004
355,1.5386427640914917,1.5327799320220947,0.4807692307692308,0.8269230769230769,0.21428571428571427,0.8571428571428571,0.0004
356,1.5480290055274963,1.5388805866241455,0.25,0.8269230769230769,0.21428571428571427,0.8571428571428571,0.0004
357,1.5025281310081482,1.5590676069259644,0.40384615384615385,0.8269230769230769,0.21428571428571427,0.8571428571428571,0.0004
358,1.5644975900650024,1.5433998107910156,0.28846153846153844,0.8269230769230769,0.21428571428571427,0.8571428571428571,0.0004
359,1.599387764930725,1.5521824359893799,0.40384615384615385,0.8269230769230769,0.21428571428571427,0.8571428571428571,0.0004
360,1.5604597330093384,1.552351474761963,0.40384615384615385,0.8269230769230769,0.21428571428571427,0.8571428571428571,0.0004
361,1.6436878442764282,1.5471892356872559,0.4423076923076923,0.8269230769230769,0.21428571428571427,0.8571428571428571,0.0004
362,1.609908938407898,1.5401771068572998,0.3269230769230769,0.8269230769230769,0.21428571428571427,0.8571428571428571,0.0004
363,1.587947130203247,1.568599820137024,0.4230769230769231,0.8269230769230769,0.21428571428571427,0.8571428571428571,0.0004
364,1.5916253328323364,1.5446438789367676,0.36538461538461536,0.8269230769230769,0.21428571428571427,0.8571428571428571,0.0004
365,1.5439532399177551,1.5724563598632812,0.34615384615384615,0.8269230769230769,0.21428571428571427,0.8571428571428571,0.0004
366,1.547524094581604,1.560118556022644,0.4807692307692308,0.8269230769230769,0.21428571428571427,0.8571428571428571,0.0004
367,1.5373099446296692,1.5645675659179688,0.38461538461538464,0.8269230769230769,0.21428571428571427,0.8571428571428571,0.0004
368,1.590435266494751,1.5571268796920776,0.3076923076923077,0.8269230769230769,0.21428571428571427,0.8571428571428571,0.0004
369,1.5878918766975403,1.5422120094299316,0.34615384615384615,0.8269230769230769,0.21428571428571427,0.8571428571428571,0.0004
370,1.5835739970207214,1.5402401685714722,0.34615384615384615,0.8269230769230769,0.21428571428571427,0.8571428571428571,0.0004
371,1.6312260031700134,1.5407695770263672,0.3076923076923077,0.8269230769230769,0.21428571428571427,0.8571428571428571,0.0004
372,1.5907936096191406,1.554490089416504,0.3269230769230769,0.8269230769230769,0.21428571428571427,0.8571428571428571,0.0004
373,1.637101411819458,1.5455750226974487,0.19230769230769232,0.8269230769230769,0.21428571428571427,0.8571428571428571,0.0004
374,1.565006673336029,1.526882290840149,0.3269230769230769,0.8269230769230769,0.21428571428571427,0.8571428571428571,0.0004
375,1.576162874698639,1.5484631061553955,0.3269230769230769,0.8269230769230769,0.21428571428571427,0.8571428571428571,0.0004
376,1.5587343573570251,1.5368924140930176,0.3269230769230769,0.8269230769230769,0.21428571428571427,0.8571428571428571,0.0004
377,1.5498860478401184,1.5526524782180786,0.3076923076923077,0.8269230769230769,0.21428571428571427,0.8571428571428571,0.0004
378,1.5754076838493347,1.562609076499939,0.17307692307692307,0.8269230769230769,0.21428571428571427,0.8571428571428571,0.0004
379,1.5401915907859802,1.5467432737350464,0.34615384615384615,0.8269230769230769,0.21428571428571427,0.8571428571428571,0.0004
380,1.601656973361969,1.5430302619934082,0.38461538461538464,0.8269230769230769,0.21428571428571427,0.8571428571428571,0.0004
381,1.5296249985694885,1.545731544494629,0.28846153846153844,0.8269230769230769,0.21428571428571427,0.8571428571428571,0.0004
382,1.5522437691688538,1.5285929441452026,0.3076923076923077,0.8269230769230769,0.21428571428571427,0.8571428571428571,0.0004
383,1.5905358791351318,1.5439432859420776,0.34615384615384615,0.8269230769230769,0.21428571428571427,0.8571428571428571,0.0004
384,1.575485646724701,1.5378636121749878,0.36538461538461536,0.8269230769230769,0.2857142857142857,0.8571428571428571,0.0004
385,1.629340410232544,1.5373666286468506,0.34615384615384615,0.8269230769230769,0.21428571428571427,0.8571428571428571,0.0004
386,1.5914334654808044,1.5329346656799316,0.17307692307692307,0.8269230769230769,0.21428571428571427,0.8571428571428571,0.0004
387,1.5141819715499878,1.5456023216247559,0.38461538461538464,0.8269230769230769,0.21428571428571427,0.8571428571428571,0.0004
388,1.569061517715454,1.5634909868240356,0.46153846153846156,0.8269230769230769,0.21428571428571427,0.8571428571428571,0.0004
389,1.52463299036026,1.561152696609497,0.46153846153846156,0.8269230769230769,0.21428571428571427,0.8571428571428571,0.0004
390,1.5480546355247498,1.5560988187789917,0.28846153846153844,0.8269230769230769,0.21428571428571427,0.8571428571428571,0.0004
391,1.5708774328231812,1.5334720611572266,0.28846153846153844,0.8269230769230769,0.21428571428571427,0.8571428571428571,0.0004
392,1.5574421882629395,1.5450551509857178,0.2692307692307692,0.8269230769230769,0.21428571428571427,0.8571428571428571,0.0004
393,1.5907704830169678,1.5483434200286865,0.4423076923076923,0.8269230769230769,0.21428571428571427,0.8571428571428571,0.0004
394,1.5680753588676453,1.543342113494873,0.34615384615384615,0.8269230769230769,0.21428571428571427,0.8571428571428571,0.0004
395,1.583498775959015,1.555824637413025,0.34615384615384615,0.8269230769230769,0.21428571428571427,0.8571428571428571,0.0004
396,1.5619357824325562,1.58466374874115,0.36538461538461536,0.8269230769230769,0.21428571428571427,0.8571428571428571,0.0004
397,1.5761807560920715,1.5577938556671143,0.40384615384615385,0.8269230769230769,0.21428571428571427,0.8571428571428571,0.0004
398,1.5348209142684937,1.545820951461792,0.4423076923076923,0.8269230769230769,0.21428571428571427,0.8571428571428571,0.0004
399,1.5293861627578735,1.5342600345611572,0.36538461538461536,0.8269230769230769,0.21428571428571427,0.8571428571428571,0.0004
400,1.6004928350448608,1.539386510848999,0.28846153846153844,0.8269230769230769,0.21428571428571427,0.8571428571428571,0.0004
401,1.5496140718460083,1.5321844816207886,0.34615384615384615,0.8269230769230769,0.21428571428571427,0.8571428571428571,0.0004
402,1.5923394560813904,1.565906047821045,0.23076923076923078,0.8269230769230769,0.21428571428571427,0.8571428571428571,0.0004
403,1.597523808479309,1.5553704500198364,0.3269230769230769,0.8269230769230769,0.21428571428571427,0.8571428571428571,0.0004
404,1.5731863975524902,1.5570461750030518,0.36538461538461536,0.8269230769230769,0.21428571428571427,0.8571428571428571,0.0004
405,1.56090646982193,1.5604777336120605,0.40384615384615385,0.8269230769230769,0.21428571428571427,0.8571428571428571,0.0004
406,1.600756049156189,1.582455039024353,0.34615384615384615,0.8269230769230769,0.21428571428571427,0.8571428571428571,0.0004
407,1.5710161924362183,1.5616393089294434,0.34615384615384615,0.8269230769230769,0.21428571428571427,0.8571428571428571,0.0004
408,1.5591493844985962,1.5612879991531372,0.38461538461538464,0.8269230769230769,0.21428571428571427,0.8571428571428571,0.0004
409,1.5528011322021484,1.5770888328552246,0.36538461538461536,0.8269230769230769,0.21428571428571427,0.8571428571428571,0.0004
410,1.5744075179100037,1.5623828172683716,0.36538461538461536,0.8269230769230769,0.21428571428571427,0.8571428571428571,0.0004
411,1.5131428241729736,1.5771656036376953,0.3076923076923077,0.8269230769230769,0.21428571428571427,0.8571428571428571,0.0004
412,1.5898187160491943,1.5644944906234741,0.36538461538461536,0.8269230769230769,0.21428571428571427,0.8571428571428571,0.0004
413,1.5978062748908997,1.5520210266113281,0.3076923076923077,0.8269230769230769,0.21428571428571427,0.8571428571428571,0.0004
414,1.5696675777435303,1.5715410709381104,0.36538461538461536,0.8269230769230769,0.21428571428571427,0.8571428571428571,0.0004
415,1.5613223910331726,1.5589072704315186,0.28846153846153844,0.8269230769230769,0.21428571428571427,0.8571428571428571,0.0004
416,1.6002861857414246,1.5623655319213867,0.40384615384615385,0.8269230769230769,0.21428571428571427,0.8571428571428571,0.0004
417,1.5427178740501404,1.5698254108428955,0.3076923076923077,0.8269230769230769,0.21428571428571427,0.8571428571428571,0.0004
418,1.615012288093567,1.560800552368164,0.2692307692307692,0.8269230769230769,0.21428571428571427,0.8571428571428571,0.0004
419,1.5798195600509644,1.543282389640808,0.38461538461538464,0.8269230769230769,0.21428571428571427,0.8571428571428571,0.0004
420,1.5642818212509155,1.5830227136611938,0.34615384615384615,0.8269230769230769,0.21428571428571427,0.8571428571428571,0.0004
421,1.5537978410720825,1.5810322761535645,0.4423076923076923,0.8269230769230769,0.21428571428571427,0.8571428571428571,0.0004
422,1.5380955338478088,1.5826464891433716,0.38461538461538464,0.8269230769230769,0.21428571428571427,0.8571428571428571,0.0004
423,1.548233151435852,1.5631465911865234,0.36538461538461536,0.8269230769230769,0.21428571428571427,0.8571428571428571,0.0004
424,1.5160387754440308,1.5615630149841309,0.38461538461538464,0.8269230769230769,0.21428571428571427,0.8571428571428571,0.0004
425,1.561465322971344,1.5722016096115112,0.36538461538461536,0.8269230769230769,0.21428571428571427,0.8571428571428571,0.0004
426,1.587992787361145,1.5890930891036987,0.38461538461538464,0.8269230769230769,0.21428571428571427,0.8571428571428571,0.0004
427,1.5803940892219543,1.5789686441421509,0.40384615384615385,0.8269230769230769,0.21428571428571427,0.8571428571428571,0.0004
428,1.5912851691246033,1.5458974838256836,0.40384615384615385,0.8269230769230769,0.21428571428571427,0.8571428571428571,0.0004
429,1.528958022594452,1.5588889122009277,0.38461538461538464,0.8269230769230769,0.21428571428571427,0.8571428571428571,0.0004
430,1.5368735194206238,1.5297577381134033,0.36538461538461536,0.8269230769230769,0.21428571428571427,0.8571428571428571,0.0004
431,1.5893746614456177,1.5588091611862183,0.4807692307692308,0.8269230769230769,0.21428571428571427,0.8571428571428571,0.0004
432,1.575625240802765,1.553246259689331,0.34615384615384615,0.8269230769230769,0.21428571428571427,0.8571428571428571,0.0004
433,1.5666484236717224,1.52699613571167,0.36538461538461536,0.8269230769230769,0.21428571428571427,0.8571428571428571,0.0004
434,1.5383090376853943,1.5458389520645142,0.34615384615384615,0.8269230769230769,0.21428571428571427,0.8571428571428571,0.0004
435,1.5666958689689636,1.5484089851379395,0.28846153846153844,0.8269230769230769,0.21428571428571427,0.8571428571428571,0.0004
436,1.5966758728027344,1.5464106798171997,0.3269230769230769,0.8269230769230769,0.21428571428571427,0.8571428571428571,0.0004
437,1.5554348826408386,1.5721873044967651,0.3076923076923077,0.8269230769230769,0.21428571428571427,0.8571428571428571,0.0004
438,1.6160967946052551,1.5646954774856567,0.38461538461538464,0.8269230769230769,0.21428571428571427,0.8571428571428571,0.0004
439,1.55249685049057,1.5639593601226807,0.38461538461538464,0.8269230769230769,0.21428571428571427,0.8571428571428571,0.0004
440,1.5931951403617859,1.5648257732391357,0.4230769230769231,0.8269230769230769,0.21428571428571427,0.8571428571428571,0.0004
441,1.560291349887848,1.5683423280715942,0.36538461538461536,0.8269230769230769,0.21428571428571427,0.8571428571428571,0.0004
442,1.5384490489959717,1.5657156705856323,0.40384615384615385,0.8269230769230769,0.21428571428571427,0.8571428571428571,0.0004
443,1.5845967531204224,1.5756276845932007,0.36538461538461536,0.8269230769230769,0.21428571428571427,0.8571428571428571,0.0004
444,1.5749517679214478,1.5568103790283203,0.4230769230769231,0.8269230769230769,0.21428571428571427,0.8571428571428571,0.0004
445,1.6028369069099426,1.5449320077896118,0.3076923076923077,0.8269230769230769,0.21428571428571427,0.8571428571428571,0.0004
446,1.5865389704704285,1.541697382926941,0.46153846153846156,0.8269230769230769,0.21428571428571427,0.8571428571428571,0.0004
447,1.598838210105896,1.5729979276657104,0.3269230769230769,0.8269230769230769,0.21428571428571427,0.8571428571428571,0.0004
448,1.5783345699310303,1.534504771232605,0.36538461538461536,0.8269230769230769,0.21428571428571427,0.8571428571428571,0.0004
449,1.500571608543396,1.537067174911499,0.46153846153846156,0.8269230769230769,0.21428571428571427,0.8571428571428571,0.0004
450,1.6080313920974731,1.5438193082809448,0.36538461538461536,0.8269230769230769,0.2857142857142857,0.8571428571428571,0.0004
451,1.587262749671936,1.52421236038208,0.40384615384615385,0.8269230769230769,0.2857142857142857,0.8571428571428571,0.0004
452,1.5526938438415527,1.5183660984039307,0.4423076923076923,0.8269230769230769,0.21428571428571427,0.8571428571428571,0.0004
453,1.5617085695266724,1.555072546005249,0.38461538461538464,0.8269230769230769,0.21428571428571427,0.8571428571428571,0.0004
454,1.580626904964447,1.5562001466751099,0.3269230769230769,0.8269230769230769,0.21428571428571427,0.8571428571428571,0.0004
455,1.5183675289154053,1.5645558834075928,0.4807692307692308,0.8269230769230769,0.21428571428571427,0.8571428571428571,0.0004
456,1.5767582654953003,1.5360114574432373,0.28846153846153844,0.8269230769230769,0.21428571428571427,0.8571428571428571,0.0004
457,1.5758480429649353,1.551822543144226,0.36538461538461536,0.8269230769230769,0.21428571428571427,0.8571428571428571,0.0004
458,1.524855613708496,1.5444839000701904,0.40384615384615385,0.8269230769230769,0.21428571428571427,0.8571428571428571,0.0004
459,1.5739129781723022,1.576828122138977,0.4807692307692308,0.8269230769230769,0.35714285714285715,0.8571428571428571,0.0004
460,1.5400880575180054,1.5317984819412231,0.4807692307692308,0.8269230769230769,0.35714285714285715,0.8571428571428571,0.0004
461,1.6321093440055847,1.5404691696166992,0.3076923076923077,0.8269230769230769,0.35714285714285715,0.8571428571428571,0.0004
462,1.538048505783081,1.5416338443756104,0.4230769230769231,0.8269230769230769,0.2857142857142857,0.8571428571428571,0.0004
463,1.5620087385177612,1.5187771320343018,0.4230769230769231,0.8269230769230769,0.35714285714285715,0.8571428571428571,0.0004
464,1.593396008014679,1.5742994546890259,0.36538461538461536,0.8269230769230769,0.2857142857142857,0.8571428571428571,0.0004
465,1.5243852138519287,1.5243010520935059,0.5,0.8269230769230769,0.2857142857142857,0.8571428571428571,0.0004
466,1.546952486038208,1.570054054260254,0.4230769230769231,0.8269230769230769,0.2857142857142857,0.8571428571428571,0.0004
467,1.6207097172737122,1.5241219997406006,0.4230769230769231,0.8269230769230769,0.35714285714285715,0.8571428571428571,0.0004
468,1.5103815793991089,1.5333001613616943,0.4230769230769231,0.8269230769230769,0.35714285714285715,0.8571428571428571,0.0004
469,1.5425825715065002,1.5618423223495483,0.4230769230769231,0.8269230769230769,0.2857142857142857,0.8571428571428571,0.0004
470,1.5363147258758545,1.5630117654800415,0.38461538461538464,0.8269230769230769,0.2857142857142857,0.8571428571428571,0.0004
471,1.5674706101417542,1.584233045578003,0.38461538461538464,0.8269230769230769,0.21428571428571427,0.8571428571428571,0.0004
472,1.5114880204200745,1.550305724143982,0.36538461538461536,0.8269230769230769,0.2857142857142857,0.8571428571428571,0.0004
473,1.5361396670341492,1.579147219657898,0.4423076923076923,0.8269230769230769,0.21428571428571427,0.8571428571428571,0.0004
474,1.6511513590812683,1.5400607585906982,0.36538461538461536,0.8269230769230769,0.2857142857142857,0.8571428571428571,0.0004
475,1.5442526936531067,1.5024070739746094,0.38461538461538464,0.8269230769230769,0.35714285714285715,0.8571428571428571,0.0004
476,1.575393557548523,1.5009104013442993,0.36538461538461536,0.8269230769230769,0.35714285714285715,0.8571428571428571,0.0004
477,1.4991047382354736,1.4820476770401,0.46153846153846156,0.8269230769230769,0.35714285714285715,0.8571428571428571,0.0004
478,1.4839807748794556,1.4812530279159546,0.4423076923076923,0.8269230769230769,0.35714285714285715,0.8571428571428571,0.0004
479,1.6421186923980713,1.4823139905929565,0.36538461538461536,0.8269230769230769,0.35714285714285715,0.8571428571428571,0.0004
480,1.5218350291252136,1.3629026412963867,0.4807692307692308,0.8269230769230769,0.5,0.8571428571428571,0.0004
481,1.4804260730743408,1.516879677772522,0.4423076923076923,0.8269230769230769,0.2857142857142857,0.8571428571428571,0.0004
482,1.5338515043258667,1.4672170877456665,0.4423076923076923,0.8269230769230769,0.35714285714285715,0.8571428571428571,0.0004
483,1.4807156324386597,1.467215657234192,0.46153846153846156,0.8269230769230769,0.35714285714285715,0.8571428571428571,0.0004
484,1.5435224175453186,1.3977973461151123,0.5,0.8269230769230769,0.42857142857142855,0.8571428571428571,0.0004
485,1.5010592937469482,1.392395257949829,0.4423076923076923,0.8269230769230769,0.42857142857142855,0.8571428571428571,0.0004
486,1.5270159840583801,1.7835252285003662,0.5192307692307693,0.8269230769230769,0.2857142857142857,0.8571428571428571,0.0004
487,1.6483305096626282,1.6494760513305664,0.4230769230769231,0.8269230769230769,0.2857142857142857,0.8571428571428571,0.0004
488,1.6642575860023499,1.6272988319396973,0.4230769230769231,0.8269230769230769,0.2857142857142857,0.8571428571428571,0.0004
489,1.5465240478515625,1.4812932014465332,0.40384615384615385,0.8269230769230769,0.42857142857142855,0.8571428571428571,0.0004
490,1.595101237297058,1.5399361848831177,0.4807692307692308,0.8269230769230769,0.35714285714285715,0.8571428571428571,0.0004
491,1.6924334168434143,1.492106318473816,0.4423076923076923,0.8269230769230769,0.2857142857142857,0.8571428571428571,0.0004
492,1.6554956436157227,1.4674668312072754,0.40384615384615385,0.8269230769230769,0.42857142857142855,0.8571428571428571,0.0004
493,1.5840232372283936,1.408172607421875,0.3269230769230769,0.8269230769230769,0.5,0.8571428571428571,0.0004
494,1.6610274910926819,1.425196647644043,0.4230769230769231,0.8269230769230769,0.42857142857142855,0.8571428571428571,0.0004
495,1.6026749014854431,1.530127763748169,0.40384615384615385,0.8269230769230769,0.35714285714285715,0.8571428571428571,0.0004
496,1.5657442808151245,1.4586762189865112,0.4423076923076923,0.8269230769230769,0.42857142857142855,0.8571428571428571,0.0004
497,1.6254183053970337,1.5235127210617065,0.36538461538461536,0.8269230769230769,0.2857142857142857,0.8571428571428571,0.0004
498,1.5282645225524902,1.4973108768463135,0.5384615384615384,0.8269230769230769,0.42857142857142855,0.8571428571428571,0.0004
499,1.6748993396759033,1.4956127405166626,0.38461538461538464,0.8269230769230769,0.42857142857142855,0.8571428571428571,0.0004
500,1.5065359473228455,1.4870877265930176,0.46153846153846156,0.8269230769230769,0.35714285714285715,0.8571428571428571,0.0004
501,1.5110878944396973,1.5270466804504395,0.46153846153846156,0.8269230769230769,0.2857142857142857,0.8571428571428571,0.0004
502,1.5162401795387268,1.4606266021728516,0.40384615384615385,0.8269230769230769,0.42857142857142855,0.8571428571428571,0.0004
503,1.5789692401885986,1.5086541175842285,0.34615384615384615,0.8269230769230769,0.35714285714285715,0.8571428571428571,0.0004
504,1.585893154144287,1.4908430576324463,0.4230769230769231,0.8269230769230769,0.35714285714285715,0.8571428571428571,0.0004
505,1.5861148238182068,1.523916244506836,0.2692307692307692,0.8269230769230769,0.35714285714285715,0.8571428571428571,0.0004
506,1.528548538684845,1.5405625104904175,0.3076923076923077,0.8269230769230769,0.2857142857142857,0.8571428571428571,0.0004
507,1.6014156341552734,1.5502667427062988,0.3076923076923077,0.8269230769230769,0.35714285714285715,0.8571428571428571,0.0004
508,1.5654080510139465,1.566835641860962,0.3269230769230769,0.8269230769230769,0.2857142857142857,0.8571428571428571,0.0004
509,1.5861995220184326,1.5305554866790771,0.36538461538461536,0.8269230769230769,0.35714285714285715,0.8571428571428571,0.0004
510,1.4695202708244324,1.5313949584960938,0.5192307692307693,0.8269230769230769,0.2857142857142857,0.8571428571428571,0.0004
511,1.639914333820343,1.5734388828277588,0.4230769230769231,0.8269230769230769,0.21428571428571427,0.8571428571428571,0.0004
512,1.5645774602890015,1.5901070833206177,0.38461538461538464,0.8269230769230769,0.21428571428571427,0.8571428571428571,0.0004
513,1.5387942790985107,1.5944128036499023,0.38461538461538464,0.8269230769230769,0.21428571428571427,0.8571428571428571,0.0004
514,1.5580276846885681,1.5554420948028564,0.38461538461538464,0.8269230769230769,0.21428571428571427,0.8571428571428571,0.0004
515,1.5366953015327454,1.5813555717468262,0.4230769230769231,0.8269230769230769,0.21428571428571427,0.8571428571428571,0.0004
516,1.5936588644981384,1.5342986583709717,0.36538461538461536,0.8269230769230769,0.21428571428571427,0.8571428571428571,0.0004
517,1.501961588859558,1.5630499124526978,0.40384615384615385,0.8269230769230769,0.21428571428571427,0.8571428571428571,0.0004
518,1.5225732922554016,1.5679388046264648,0.4230769230769231,0.8269230769230769,0.21428571428571427,0.8571428571428571,0.0004
519,1.5253812074661255,1.5191419124603271,0.3269230769230769,0.8269230769230769,0.2857142857142857,0.8571428571428571,0.0004
520,1.6042684316635132,1.534501314163208,0.38461538461538464,0.8269230769230769,0.2857142857142857,0.8571428571428571,0.0004
521,1.6015735864639282,1.555999517440796,0.4423076923076923,0.8269230769230769,0.2857142857142857,0.8571428571428571,0.0004
522,1.5887696743011475,1.504510521888733,0.4230769230769231,0.8269230769230769,0.42857142857142855,0.8571428571428571,0.0004
523,1.5515047311782837,1.5652284622192383,0.38461538461538464,0.8269230769230769,0.2857142857142857,0.8571428571428571,0.0004
524,1.5865482091903687,1.5189722776412964,0.4230769230769231,0.8269230769230769,0.35714285714285715,0.8571428571428571,0.0004
525,1.5689619183540344,1.5509692430496216,0.4423076923076923,0.8269230769230769,0.2857142857142857,0.8571428571428571,0.0004
526,1.5352057218551636,1.5010509490966797,0.46153846153846156,0.8269230769230769,0.42857142857142855,0.8571428571428571,0.0004
527,1.5008230209350586,1.536982536315918,0.5,0.8269230769230769,0.35714285714285715,0.8571428571428571,0.0004
528,1.4920095801353455,1.5005220174789429,0.36538461538461536,0.8269230769230769,0.42857142857142855,0.8571428571428571,0.0004
529,1.5822885632514954,1.5944784879684448,0.36538461538461536,0.8269230769230769,0.21428571428571427,0.8571428571428571,0.0004
530,1.5391840934753418,1.5932420492172241,0.40384615384615385,0.8269230769230769,0.21428571428571427,0.8571428571428571,0.0004
531,1.5667536854743958,1.6147487163543701,0.38461538461538464,0.8269230769230769,0.21428571428571427,0.8571428571428571,0.0004
532,1.5708480477333069,1.6088389158248901,0.38461538461538464,0.8269230769230769,0.21428571428571427,0.8571428571428571,0.0004
533,1.5516725182533264,1.613438367843628,0.36538461538461536,0.8269230769230769,0.21428571428571427,0.8571428571428571,0.0004
534,1.5990919470787048,1.6066581010818481,0.34615384615384615,0.8269230769230769,0.21428571428571427,0.8571428571428571,0.0004
535,1.6408746242523193,1.596869945526123,0.38461538461538464,0.8269230769230769,0.21428571428571427,0.8571428571428571,0.0004
536,1.585943579673767,1.5973081588745117,0.38461538461538464,0.8269230769230769,0.21428571428571427,0.8571428571428571,0.0004
537,1.5507428646087646,1.597415566444397,0.38461538461538464,0.8269230769230769,0.21428571428571427,0.8571428571428571,0.0004
538,1.6284886002540588,1.5935773849487305,0.36538461538461536,0.8269230769230769,0.21428571428571427,0.8571428571428571,0.0004
539,1.618010401725769,1.5743476152420044,0.3269230769230769,0.8269230769230769,0.21428571428571427,0.8571428571428571,0.0004
540,1.5709413290023804,1.5798050165176392,0.34615384615384615,0.8269230769230769,0.21428571428571427,0.8571428571428571,0.0004
541,1.5818978548049927,1.6198689937591553,0.3269230769230769,0.8269230769230769,0.21428571428571427,0.8571428571428571,0.0004
542,1.5886309146881104,1.6035072803497314,0.3269230769230769,0.8269230769230769,0.21428571428571427,0.8571428571428571,0.0004
543,1.5339764952659607,1.5830342769622803,0.3269230769230769,0.8269230769230769,0.21428571428571427,0.8571428571428571,0.0004
544,1.5711393356323242,1.5673271417617798,0.4230769230769231,0.8269230769230769,0.21428571428571427,0.8571428571428571,0.0004
545,1.541538953781128,1.550033450126648,0.3269230769230769,0.8269230769230769,0.21428571428571427,0.8571428571428571,0.0004
546,1.5436463952064514,1.5670008659362793,0.36538461538461536,0.8269230769230769,0.21428571428571427,0.8571428571428571,0.0004
547,1.6502507328987122,1.5521063804626465,0.2692307692307692,0.8269230769230769,0.21428571428571427,0.8571428571428571,0.0004
548,1.5960682034492493,1.5428681373596191,0.3269230769230769,0.8269230769230769,0.21428571428571427,0.8571428571428571,0.0004
549,1.6543973684310913,1.5716850757598877,0.28846153846153844,0.8269230769230769,0.21428571428571427,0.8571428571428571,0.0004
550,1.5422925353050232,1.5678715705871582,0.36538461538461536,0.8269230769230769,0.21428571428571427,0.8571428571428571,0.0004
551,1.4989649057388306,1.5590192079544067,0.34615384615384615,0.8269230769230769,0.21428571428571427,0.8571428571428571,0.0004
552,1.55596125125885,1.5632354021072388,0.3076923076923077,0.8269230769230769,0.21428571428571427,0.8571428571428571,0.0004
553,1.5698594450950623,1.557774305343628,0.3076923076923077,0.8269230769230769,0.21428571428571427,0.8571428571428571,0.0004
554,1.562416136264801,1.5511651039123535,0.36538461538461536,0.8269230769230769,0.21428571428571427,0.8571428571428571,0.0004
555,1.553816020488739,1.541605830192566,0.3269230769230769,0.8269230769230769,0.21428571428571427,0.8571428571428571,0.0004
556,1.546663761138916,1.5458264350891113,0.36538461538461536,0.8269230769230769,0.21428571428571427,0.8571428571428571,0.0004
557,1.5965498089790344,1.5339372158050537,0.4423076923076923,0.8269230769230769,0.21428571428571427,0.8571428571428571,0.0004
558,1.584759533405304,1.5460624694824219,0.3076923076923077,0.8269230769230769,0.21428571428571427,0.8571428571428571,0.0004
559,1.5619397163391113,1.5385140180587769,0.3076923076923077,0.8269230769230769,0.21428571428571427,0.8571428571428571,0.0004
560,1.5722215175628662,1.5412737131118774,0.2692307692307692,0.8269230769230769,0.21428571428571427,0.8571428571428571,0.0004
561,1.5721179842948914,1.5515345335006714,0.3269230769230769,0.8269230769230769,0.21428571428571427,0.8571428571428571,0.0004
562,1.5628557205200195,1.5577325820922852,0.28846153846153844,0.8269230769230769,0.21428571428571427,0.8571428571428571,0.0004
563,1.6063457131385803,1.544240951538086,0.3269230769230769,0.8269230769230769,0.21428571428571427,0.8571428571428571,0.0004
564,1.51340651512146,1.5623583793640137,0.40384615384615385,0.8269230769230769,0.21428571428571427,0.8571428571428571,0.0004
565,1.605255126953125,1.554779052734375,0.36538461538461536,0.8269230769230769,0.21428571428571427,0.8571428571428571,0.0004
566,1.5487056970596313,1.5529203414916992,0.36538461538461536,0.8269230769230769,0.21428571428571427,0.8571428571428571,0.0004
567,1.5515650510787964,1.5665944814682007,0.25,0.8269230769230769,0.21428571428571427,0.8571428571428571,0.0004
568,1.6004488468170166,1.5585005283355713,0.4230769230769231,0.8269230769230769,0.21428571428571427,0.8571428571428571,0.0004
569,1.5593852400779724,1.5681720972061157,0.46153846153846156,0.8269230769230769,0.21428571428571427,0.8571428571428571,0.0004
570,1.5533809065818787,1.5479645729064941,0.3269230769230769,0.8269230769230769,0.21428571428571427,0.8571428571428571,0.0004
571,1.5836923718452454,1.570300579071045,0.40384615384615385,0.8269230769230769,0.21428571428571427,0.8571428571428571,0.0004
572,1.599132478237152,1.5648014545440674,0.36538461538461536,0.8269230769230769,0.21428571428571427,0.8571428571428571,0.0004
573,1.5795429944992065,1.5665044784545898,0.38461538461538464,0.8269230769230769,0.21428571428571427,0.8571428571428571,0.0004
574,1.5158779621124268,1.5703669786453247,0.34615384615384615,0.8269230769230769,0.21428571428571427,0.8571428571428571,0.0004
575,1.5700880885124207,1.556396722793579,0.3269230769230769,0.8269230769230769,0.21428571428571427,0.8571428571428571,0.0004
576,1.5387403964996338,1.570074439048767,0.3269230769230769,0.8269230769230769,0.21428571428571427,0.8571428571428571,0.0004
577,1.5902184844017029,1.5699948072433472,0.34615384615384615,0.8269230769230769,0.21428571428571427,0.8571428571428571,0.0004
578,1.5931872129440308,1.5595715045928955,0.38461538461538464,0.8269230769230769,0.21428571428571427,0.8571428571428571,0.0004
579,1.5515900254249573,1.5642789602279663,0.40384615384615385,0.8269230769230769,0.21428571428571427,0.8571428571428571,0.0004
580,1.5365110039710999,1.5529937744140625,0.46153846153846156,0.8269230769230769,0.21428571428571427,0.8571428571428571,0.0004
581,1.5429341793060303,1.553257942199707,0.38461538461538464,0.8269230769230769,0.21428571428571427,0.8571428571428571,0.0004
582,1.5483338236808777,1.56302809715271,0.4423076923076923,0.8269230769230769,0.21428571428571427,0.8571428571428571,0.0004
583,1.5486795902252197,1.5601980686187744,0.46153846153846156,0.8269230769230769,0.21428571428571427,0.8571428571428571,0.0004
584,1.5378743410110474,1.5551708936691284,0.36538461538461536,0.8269230769230769,0.21428571428571427,0.8571428571428571,0.0004
585,1.5604171752929688,1.5525219440460205,0.40384615384615385,0.8269230769230769,0.21428571428571427,0.8571428571428571,0.0004
586,1.5245361328125,1.5534870624542236,0.3269230769230769,0.8269230769230769,0.21428571428571427,0.8571428571428571,0.0004
587,1.5608733296394348,1.5644514560699463,0.4423076923076923,0.8269230769230769,0.21428571428571427,0.8571428571428571,0.0004
588,1.5783167481422424,1.5667948722839355,0.3269230769230769,0.8269230769230769,0.21428571428571427,0.8571428571428571,0.0004
589,1.5444908738136292,1.5658650398254395,0.38461538461538464,0.8269230769230769,0.21428571428571427,0.8571428571428571,0.0004
590,1.5686266422271729,1.562946081161499,0.3269230769230769,0.8269230769230769,0.21428571428571427,0.8571428571428571,0.0004
591,1.602758526802063,1.553645133972168,0.40384615384615385,0.8269230769230769,0.21428571428571427,0.8571428571428571,0.0004
592,1.6041749715805054,1.5699893236160278,0.28846153846153844,0.8269230769230769,0.21428571428571427,0.8571428571428571,0.0004
593,1.5772613883018494,1.5714600086212158,0.34615384615384615,0.8269230769230769,0.21428571428571427,0.8571428571428571,0.0004
594,1.5336483120918274,1.5736677646636963,0.38461538461538464,0.8269230769230769,0.21428571428571427,0.8571428571428571,0.0004
595,1.582760214805603,1.561692237854004,0.3076923076923077,0.8269230769230769,0.21428571428571427,0.8571428571428571,0.0004
596,1.5046322345733643,1.5611014366149902,0.38461538461538464,0.8269230769230769,0.21428571428571427,0.8571428571428571,0.0004
597,1.5709505081176758,1.557612657546997,0.3076923076923077,0.8269230769230769,0.21428571428571427,0.8571428571428571,0.0004
598,1.4779891967773438,1.5897269248962402,0.36538461538461536,0.8269230769230769,0.21428571428571427,0.8571428571428571,0.0004
599,1.4965487718582153,1.5627858638763428,0.40384615384615385,0.8269230769230769,0.21428571428571427,0.8571428571428571,0.0004
600,1.5109613537788391,1.5722931623458862,0.36538461538461536,0.8269230769230769,0.21428571428571427,0.8571428571428571,0.0004
601,1.5626189708709717,1.5884768962860107,0.3076923076923077,0.8269230769230769,0.21428571428571427,0.8571428571428571,0.0004
602,1.6030302047729492,1.567610740661621,0.38461538461538464,0.8269230769230769,0.21428571428571427,0.8571428571428571,0.0004
603,1.557061493396759,1.5852909088134766,0.3269230769230769,0.8269230769230769,0.21428571428571427,0.8571428571428571,0.0004
604,1.5466994047164917,1.5633947849273682,0.38461538461538464,0.8269230769230769,0.21428571428571427,0.8571428571428571,0.0004
605,1.522737205028534,1.5842385292053223,0.36538461538461536,0.8269230769230769,0.21428571428571427,0.8571428571428571,0.0004
606,1.5539997220039368,1.59535551071167,0.36538461538461536,0.8269230769230769,0.21428571428571427,0.8571428571428571,0.0004
607,1.5704114437103271,1.5753695964813232,0.3269230769230769,0.8269230769230769,0.21428571428571427,0.8571428571428571,0.0004
608,1.5368894934654236,1.5954456329345703,0.36538461538461536,0.8269230769230769,0.21428571428571427,0.8571428571428571,0.0004
609,1.5968955159187317,1.567138433456421,0.3269230769230769,0.8269230769230769,0.21428571428571427,0.8571428571428571,0.0004
610,1.5969695448875427,1.5625545978546143,0.3269230769230769,0.8269230769230769,0.21428571428571427,0.8571428571428571,0.0004
611,1.6004104614257812,1.551966667175293,0.38461538461538464,0.8269230769230769,0.21428571428571427,0.8571428571428571,0.0004
612,1.5543853044509888,1.6364505290985107,0.38461538461538464,0.8269230769230769,0.21428571428571427,0.8571428571428571,0.0004
613,1.5903294086456299,1.599326729774475,0.36538461538461536,0.8269230769230769,0.21428571428571427,0.8571428571428571,0.0004
614,1.5520436763763428,1.5746979713439941,0.38461538461538464,0.8269230769230769,0.21428571428571427,0.8571428571428571,0.0004
615,1.5743016600608826,1.5977996587753296,0.36538461538461536,0.8269230769230769,0.21428571428571427,0.8571428571428571,0.0004
616,1.5488149523735046,1.5582928657531738,0.4230769230769231,0.8269230769230769,0.21428571428571427,0.8571428571428571,0.0004
617,1.6073787808418274,1.5700407028198242,0.3269230769230769,0.8269230769230769,0.21428571428571427,0.8571428571428571,0.0004
618,1.581017017364502,1.5402865409851074,0.23076923076923078,0.8269230769230769,0.21428571428571427,0.8571428571428571,0.0004
619,1.5350395441055298,1.5452038049697876,0.3269230769230769,0.8269230769230769,0.21428571428571427,0.8571428571428571,0.0004
620,1.5578805208206177,1.5715802907943726,0.3269230769230769,0.8269230769230769,0.21428571428571427,0.8571428571428571,0.0004
621,1.5702850222587585,1.582420825958252,0.36538461538461536,0.8269230769230769,0.21428571428571427,0.8571428571428571,0.0004
622,1.5475202798843384,1.5839643478393555,0.38461538461538464,0.8269230769230769,0.21428571428571427,0.8571428571428571,0.0004
623,1.5650418400764465,1.5628083944320679,0.38461538461538464,0.8269230769230769,0.21428571428571427,0.8571428571428571,0.0004
624,1.5782077312469482,1.562711238861084,0.40384615384615385,0.8269230769230769,0.21428571428571427,0.8571428571428571,0.0004
625,1.5701221227645874,1.6022088527679443,0.40384615384615385,0.8269230769230769,0.21428571428571427,0.8571428571428571,0.0004
626,1.5525732040405273,1.5851731300354004,0.3269230769230769,0.8269230769230769,0.21428571428571427,0.8571428571428571,0.0004
627,1.5616086721420288,1.5485988855361938,0.38461538461538464,0.8269230769230769,0.21428571428571427,0.8571428571428571,0.0004
628,1.50481516122818,1.5996568202972412,0.4230769230769231,0.8269230769230769,0.21428571428571427,0.8571428571428571,0.0004
629,1.5305789709091187,1.5561224222183228,0.3269230769230769,0.8269230769230769,0.21428571428571427,0.8571428571428571,0.0004
630,1.5473724603652954,1.5586541891098022,0.3269230769230769,0.8269230769230769,0.21428571428571427,0.8571428571428571,0.0004
631,1.5361394882202148,1.5549578666687012,0.3269230769230769,0.8269230769230769,0.21428571428571427,0.8571428571428571,0.0004
632,1.5472967624664307,1.5388102531433105,0.28846153846153844,0.8269230769230769,0.21428571428571427,0.8571428571428571,0.0004
633,1.5243921875953674,1.6027169227600098,0.40384615384615385,0.8269230769230769,0.21428571428571427,0.8571428571428571,0.0004
634,1.5775874853134155,1.5805840492248535,0.34615384615384615,0.8269230769230769,0.21428571428571427,0.8571428571428571,0.0004
635,1.5873944759368896,1.5753717422485352,0.21153846153846154,0.8269230769230769,0.21428571428571427,0.8571428571428571,0.0004
636,1.5682079792022705,1.6056067943572998,0.4230769230769231,0.8269230769230769,0.21428571428571427,0.8571428571428571,0.0004
637,1.6013505458831787,1.5465764999389648,0.38461538461538464,0.8269230769230769,0.21428571428571427,0.8571428571428571,0.0004
638,1.549438714981079,1.582956314086914,0.36538461538461536,0.8269230769230769,0.21428571428571427,0.8571428571428571,0.0004
639,1.5704886317253113,1.61318838596344,0.3076923076923077,0.8269230769230769,0.21428571428571427,0.8571428571428571,0.0004
640,1.5675697326660156,1.6356329917907715,0.3076923076923077,0.8269230769230769,0.21428571428571427,0.8571428571428571,0.0004
641,1.5948671102523804,1.5928343534469604,0.4230769230769231,0.8269230769230769,0.21428571428571427,0.8571428571428571,0.0004
642,1.579232931137085,1.5969680547714233,0.4230769230769231,0.8269230769230769,0.21428571428571427,0.8571428571428571,0.0004
643,1.5929279923439026,1.5995984077453613,0.38461538461538464,0.8269230769230769,0.21428571428571427,0.8571428571428571,0.0004
644,1.6089229583740234,1.6184630393981934,0.38461538461538464,0.8269230769230769,0.21428571428571427,0.8571428571428571,0.0004
645,1.6026273369789124,1.6218438148498535,0.36538461538461536,0.8269230769230769,0.21428571428571427,0.8571428571428571,0.0004
646,1.6096802949905396,1.617948055267334,0.34615384615384615,0.8269230769230769,0.21428571428571427,0.8571428571428571,0.0004
647,1.6177574396133423,1.6040878295898438,0.38461538461538464,0.8269230769230769,0.21428571428571427,0.8571428571428571,0.0004
648,1.6232521533966064,1.605337142944336,0.34615384615384615,0.8269230769230769,0.21428571428571427,0.8571428571428571,0.0004
649,1.5960931181907654,1.602245807647705,0.40384615384615385,0.8269230769230769,0.21428571428571427,0.8571428571428571,0.0004
650,1.5885672569274902,1.5852103233337402,0.36538461538461536,0.8269230769230769,0.21428571428571427,0.8571428571428571,0.0004
651,1.5931149125099182,1.5613327026367188,0.38461538461538464,0.8269230769230769,0.21428571428571427,0.8571428571428571,0.0004
652,1.574970781803131,1.6009597778320312,0.3269230769230769,0.8269230769230769,0.21428571428571427,0.8571428571428571,0.0004
653,1.5777308940887451,1.5850728750228882,0.4423076923076923,0.8269230769230769,0.21428571428571427,0.8571428571428571,0.0004
654,1.582131028175354,1.5819892883300781,0.38461538461538464,0.8269230769230769,0.21428571428571427,0.8571428571428571,0.0004
655,1.5750648975372314,1.5579510927200317,0.36538461538461536,0.8269230769230769,0.21428571428571427,0.8571428571428571,0.0004
656,1.5998746156692505,1.582973837852478,0.28846153846153844,0.8269230769230769,0.35714285714285715,0.8571428571428571,0.0004
657,1.5037046074867249,1.5318150520324707,0.3269230769230769,0.8269230769230769,0.21428571428571427,0.8571428571428571,0.0004
658,1.6215690970420837,1.5446244478225708,0.34615384615384615,0.8269230769230769,0.21428571428571427,0.8571428571428571,0.0004
659,1.5732102394104004,1.5739104747772217,0.34615384615384615,0.8269230769230769,0.42857142857142855,0.8571428571428571,0.0004
660,1.6167013049125671,1.5672669410705566,0.4230769230769231,0.8269230769230769,0.42857142857142855,0.8571428571428571,0.0004
661,1.5317181944847107,1.565786361694336,0.4230769230769231,0.8269230769230769,0.35714285714285715,0.8571428571428571,0.0004
662,1.5828527808189392,1.5523375272750854,0.40384615384615385,0.8269230769230769,0.21428571428571427,0.8571428571428571,0.0004
663,1.5346805453300476,1.5851763486862183,0.36538461538461536,0.8269230769230769,0.21428571428571427,0.8571428571428571,0.0004
664,1.5618451833724976,1.553396224975586,0.3269230769230769,0.8269230769230769,0.21428571428571427,0.8571428571428571,0.0004
665,1.5189493894577026,1.5444698333740234,0.3269230769230769,0.8269230769230769,0.21428571428571427,0.8571428571428571,0.0004
666,1.5937212705612183,1.5620338916778564,0.34615384615384615,0.8269230769230769,0.21428571428571427,0.8571428571428571,0.0004
667,1.5390503406524658,1.5650951862335205,0.36538461538461536,0.8269230769230769,0.21428571428571427,0.8571428571428571,0.0004
668,1.589122235774994,1.5751200914382935,0.34615384615384615,0.8269230769230769,0.21428571428571427,0.8571428571428571,0.0004
669,1.5579267740249634,1.5545406341552734,0.4230769230769231,0.8269230769230769,0.21428571428571427,0.8571428571428571,0.0004
670,1.5356273651123047,1.5643529891967773,0.4230769230769231,0.8269230769230769,0.21428571428571427,0.8571428571428571,0.0004
671,1.5424556732177734,1.5656135082244873,0.36538461538461536,0.8269230769230769,0.21428571428571427,0.8571428571428571,0.0004
672,1.6052383780479431,1.561924934387207,0.34615384615384615,0.8269230769230769,0.21428571428571427,0.8571428571428571,0.0004
673,1.5322465896606445,1.547811508178711,0.3269230769230769,0.8269230769230769,0.21428571428571427,0.8571428571428571,0.0004
674,1.6216692328453064,1.5565119981765747,0.40384615384615385,0.8269230769230769,0.21428571428571427,0.8571428571428571,0.0004
675,1.5836473107337952,1.555161952972412,0.38461538461538464,0.8269230769230769,0.21428571428571427,0.8571428571428571,0.0004
676,1.5905556082725525,1.5513637065887451,0.36538461538461536,0.8269230769230769,0.21428571428571427,0.8571428571428571,0.0004
677,1.5095415711402893,1.549241065979004,0.36538461538461536,0.8269230769230769,0.21428571428571427,0.8571428571428571,0.0004
678,1.538467526435852,1.5474708080291748,0.4423076923076923,0.8269230769230769,0.21428571428571427,0.8571428571428571,0.0004
679,1.541763961315155,1.55821692943573,0.4230769230769231,0.8269230769230769,0.21428571428571427,0.8571428571428571,0.0004
680,1.592394769191742,1.5449987649917603,0.4230769230769231,0.8269230769230769,0.21428571428571427,0.8571428571428571,0.0004
681,1.5312588810920715,1.5410280227661133,0.36538461538461536,0.8269230769230769,0.21428571428571427,0.8571428571428571,0.0004
682,1.5685441493988037,1.5808117389678955,0.36538461538461536,0.8269230769230769,0.21428571428571427,0.8571428571428571,0.0004
683,1.5444099307060242,1.5367764234542847,0.4230769230769231,0.8269230769230769,0.21428571428571427,0.8571428571428571,0.0004
684,1.6113409996032715,1.5438436269760132,0.2692307692307692,0.8269230769230769,0.21428571428571427,0.8571428571428571,0.0004
685,1.5764029026031494,1.5403047800064087,0.4423076923076923,0.8269230769230769,0.21428571428571427,0.8571428571428571,0.0004
686,1.5615731477737427,1.5582624673843384,0.36538461538461536,0.8269230769230769,0.21428571428571427,0.8571428571428571,0.0004
687,1.592094898223877,1.5574324131011963,0.36538461538461536,0.8269230769230769,0.21428571428571427,0.8571428571428571,0.0004
688,1.5724301934242249,1.5307395458221436,0.3076923076923077,0.8269230769230769,0.21428571428571427,0.8571428571428571,0.0004
689,1.5678118467330933,1.5526126623153687,0.3269230769230769,0.8269230769230769,0.21428571428571427,0.8571428571428571,0.0004
690,1.5409513711929321,1.5720362663269043,0.4230769230769231,0.8269230769230769,0.21428571428571427,0.8571428571428571,0.0004
691,1.550050973892212,1.5601943731307983,0.36538461538461536,0.8269230769230769,0.21428571428571427,0.8571428571428571,0.0004
692,1.5880131721496582,1.5719611644744873,0.3269230769230769,0.8269230769230769,0.21428571428571427,0.8571428571428571,0.0004
693,1.6044304370880127,1.5444307327270508,0.38461538461538464,0.8269230769230769,0.21428571428571427,0.8571428571428571,0.0004
694,1.5504742860794067,1.5607730150222778,0.38461538461538464,0.8269230769230769,0.21428571428571427,0.8571428571428571,0.0004
695,1.5666877627372742,1.5452606678009033,0.3076923076923077,0.8269230769230769,0.21428571428571427,0.8571428571428571,0.0004
696,1.5318528413772583,1.5771949291229248,0.38461538461538464,0.8269230769230769,0.21428571428571427,0.8571428571428571,0.0004
697,1.5864046216011047,1.575057029724121,0.4230769230769231,0.8269230769230769,0.21428571428571427,0.8571428571428571,0.0004
698,1.5497238636016846,1.5327178239822388,0.3269230769230769,0.8269230769230769,0.21428571428571427,0.8571428571428571,0.0004
699,1.5983566045761108,1.5631557703018188,0.3269230769230769,0.8269230769230769,0.21428571428571427,0.8571428571428571,0.0004
700,1.6242913007736206,1.5639097690582275,0.4230769230769231,0.8269230769230769,0.21428571428571427,0.8571428571428571,0.0004
701,1.5512170195579529,1.5637469291687012,0.40384615384615385,0.8269230769230769,0.21428571428571427,0.8571428571428571,0.0004
702,1.5512693524360657,1.5486317873001099,0.40384615384615385,0.8269230769230769,0.21428571428571427,0.8571428571428571,0.0004
703,1.5396296381950378,1.567995548248291,0.3269230769230769,0.8269230769230769,0.21428571428571427,0.8571428571428571,0.0004
704,1.5596011281013489,1.5682923793792725,0.3269230769230769,0.8269230769230769,0.21428571428571427,0.8571428571428571,0.0004
705,1.5816445350646973,1.579712986946106,0.34615384615384615,0.8269230769230769,0.21428571428571427,0.8571428571428571,0.0004
706,1.5821338891983032,1.5375851392745972,0.36538461538461536,0.8269230769230769,0.21428571428571427,0.8571428571428571,0.0004
707,1.57267165184021,1.5622707605361938,0.36538461538461536,0.8269230769230769,0.21428571428571427,0.8571428571428571,0.0004
708,1.5311833024024963,1.5597450733184814,0.3269230769230769,0.8269230769230769,0.21428571428571427,0.8571428571428571,0.0004
709,1.6218839287757874,1.567624568939209,0.36538461538461536,0.8269230769230769,0.21428571428571427,0.8571428571428571,0.0004
710,1.5480579137802124,1.5578246116638184,0.36538461538461536,0.8269230769230769,0.21428571428571427,0.8571428571428571,0.0004
711,1.5261507034301758,1.5394082069396973,0.36538461538461536,0.8269230769230769,0.21428571428571427,0.8571428571428571,0.0004
712,1.554747223854065,1.5740282535552979,0.4230769230769231,0.8269230769230769,0.21428571428571427,0.8571428571428571,0.0004
713,1.4882065653800964,1.544495940208435,0.38461538461538464,0.8269230769230769,0.21428571428571427,0.8571428571428571,0.0004
714,1.5652884244918823,1.5603511333465576,0.4807692307692308,0.8269230769230769,0.21428571428571427,0.8571428571428571,0.0004
715,1.5653376579284668,1.548921823501587,0.34615384615384615,0.8269230769230769,0.21428571428571427,0.8571428571428571,0.0004
716,1.5688111782073975,1.567049503326416,0.3076923076923077,0.8269230769230769,0.21428571428571427,0.8571428571428571,0.0004
717,1.572791337966919,1.559577226638794,0.34615384615384615,0.8269230769230769,0.21428571428571427,0.8571428571428571,0.0004
718,1.535792589187622,1.55867338180542,0.34615384615384615,0.8269230769230769,0.21428571428571427,0.8571428571428571,0.0004
719,1.549213945865631,1.560380220413208,0.34615384615384615,0.8269230769230769,0.21428571428571427,0.8571428571428571,0.0004
720,1.6163976788520813,1.5594558715820312,0.4230769230769231,0.8269230769230769,0.21428571428571427,0.8571428571428571,0.0004
721,1.5130462646484375,1.5499024391174316,0.38461538461538464,0.8269230769230769,0.21428571428571427,0.8571428571428571,0.0004
722,1.6096292734146118,1.5498324632644653,0.28846153846153844,0.8269230769230769,0.21428571428571427,0.8571428571428571,0.0004
723,1.5741042494773865,1.563036561012268,0.40384615384615385,0.8269230769230769,0.21428571428571427,0.8571428571428571,0.0004
724,1.6038421988487244,1.5511176586151123,0.19230769230769232,0.8269230769230769,0.21428571428571427,0.8571428571428571,0.0004
725,1.5674145817756653,1.5308363437652588,0.38461538461538464,0.8269230769230769,0.21428571428571427,0.8571428571428571,0.0004
726,1.624570369720459,1.5550174713134766,0.38461538461538464,0.8269230769230769,0.21428571428571427,0.8571428571428571,0.0004
727,1.5596652626991272,1.5553827285766602,0.4807692307692308,0.8269230769230769,0.21428571428571427,0.8571428571428571,0.0004
728,1.5551121234893799,1.563699722290039,0.38461538461538464,0.8269230769230769,0.21428571428571427,0.8571428571428571,0.0004
729,1.5573715567588806,1.5436375141143799,0.3269230769230769,0.8269230769230769,0.21428571428571427,0.8571428571428571,0.0004
730,1.6011806726455688,1.555257797241211,0.34615384615384615,0.8269230769230769,0.21428571428571427,0.8571428571428571,0.0004
731,1.5613588094711304,1.56730055809021,0.34615384615384615,0.8269230769230769,0.21428571428571427,0.8571428571428571,0.0004
732,1.5907024145126343,1.5593984127044678,0.38461538461538464,0.8269230769230769,0.21428571428571427,0.8571428571428571,0.0004
733,1.5789200067520142,1.5767269134521484,0.2692307692307692,0.8269230769230769,0.21428571428571427,0.8571428571428571,0.0004
734,1.5652592778205872,1.5624237060546875,0.4230769230769231,0.8269230769230769,0.21428571428571427,0.8571428571428571,0.0004
735,1.6201989650726318,1.5552020072937012,0.34615384615384615,0.8269230769230769,0.21428571428571427,0.8571428571428571,0.0004
736,1.5604624152183533,1.5649617910385132,0.46153846153846156,0.8269230769230769,0.21428571428571427,0.8571428571428571,0.0004
737,1.6062079071998596,1.5633411407470703,0.46153846153846156,0.8269230769230769,0.21428571428571427,0.8571428571428571,0.0004
738,1.6025980710983276,1.5598119497299194,0.40384615384615385,0.8269230769230769,0.21428571428571427,0.8571428571428571,0.0004
739,1.5586662888526917,1.5692157745361328,0.38461538461538464,0.8269230769230769,0.21428571428571427,0.8571428571428571,0.0004
740,1.5450575351715088,1.5711524486541748,0.4230769230769231,0.8269230769230769,0.21428571428571427,0.8571428571428571,0.0004
741,1.5610991716384888,1.570568323135376,0.34615384615384615,0.8269230769230769,0.21428571428571427,0.8571428571428571,0.0004
742,1.5397857427597046,1.5275887250900269,0.40384615384615385,0.8269230769230769,0.21428571428571427,0.8571428571428571,0.0004
743,1.562127947807312,1.5480022430419922,0.38461538461538464,0.8269230769230769,0.21428571428571427,0.8571428571428571,0.0004
744,1.5436427593231201,1.5315433740615845,0.40384615384615385,0.8269230769230769,0.21428571428571427,0.8571428571428571,0.0004
745,1.6169033646583557,1.5668292045593262,0.3269230769230769,0.8269230769230769,0.21428571428571427,0.8571428571428571,0.0004
746,1.5604221820831299,1.5455811023712158,0.28846153846153844,0.8269230769230769,0.21428571428571427,0.8571428571428571,0.0004
747,1.5543735027313232,1.537300944328308,0.38461538461538464,0.8269230769230769,0.21428571428571427,0.8571428571428571,0.0004
748,1.5746147632598877,1.5353446006774902,0.3269230769230769,0.8269230769230769,0.21428571428571427,0.8571428571428571,0.0004
749,1.5676542520523071,1.544373869895935,0.3076923076923077,0.8269230769230769,0.21428571428571427,0.8571428571428571,0.0004
750,1.5748074054718018,1.5503993034362793,0.3269230769230769,0.8269230769230769,0.21428571428571427,0.8571428571428571,0.0004
751,1.5601432919502258,1.538631558418274,0.4423076923076923,0.8269230769230769,0.21428571428571427,0.8571428571428571,0.0004
752,1.6237772703170776,1.5585631132125854,0.34615384615384615,0.8269230769230769,0.21428571428571427,0.8571428571428571,0.0004
753,1.6052929162979126,1.547215461730957,0.34615384615384615,0.8269230769230769,0.21428571428571427,0.8571428571428571,0.0004
754,1.570971131324768,1.568258285522461,0.36538461538461536,0.8269230769230769,0.21428571428571427,0.8571428571428571,0.0004
755,1.5751904249191284,1.5508109331130981,0.36538461538461536,0.8269230769230769,0.21428571428571427,0.8571428571428571,0.0004
756,1.6105326414108276,1.5280137062072754,0.40384615384615385,0.8269230769230769,0.21428571428571427,0.8571428571428571,0.0004
757,1.5534926056861877,1.5729634761810303,0.46153846153846156,0.8269230769230769,0.21428571428571427,0.8571428571428571,0.0004
758,1.5594289898872375,1.562179446220398,0.36538461538461536,0.8269230769230769,0.21428571428571427,0.8571428571428571,0.0004
759,1.5831153392791748,1.5381410121917725,0.40384615384615385,0.8269230769230769,0.21428571428571427,0.8571428571428571,0.0004
760,1.530421793460846,1.5607922077178955,0.36538461538461536,0.8269230769230769,0.21428571428571427,0.8571428571428571,0.0004
761,1.5713281631469727,1.555621862411499,0.3076923076923077,0.8269230769230769,0.21428571428571427,0.8571428571428571,0.0004
762,1.575664758682251,1.55453360080719,0.36538461538461536,0.8269230769230769,0.21428571428571427,0.8571428571428571,0.0004
763,1.5131450295448303,1.549085021018982,0.4423076923076923,0.8269230769230769,0.21428571428571427,0.8571428571428571,0.0004
764,1.5300625562667847,1.5562866926193237,0.28846153846153844,0.8269230769230769,0.21428571428571427,0.8571428571428571,0.0004
765,1.5578784942626953,1.5499281883239746,0.38461538461538464,0.8269230769230769,0.21428571428571427,0.8571428571428571,0.0004
766,1.5523275136947632,1.5554838180541992,0.36538461538461536,0.8269230769230769,0.21428571428571427,0.8571428571428571,0.0004
767,1.5125497579574585,1.552733302116394,0.46153846153846156,0.8269230769230769,0.21428571428571427,0.8571428571428571,0.0004
768,1.5344799757003784,1.5560126304626465,0.4230769230769231,0.8269230769230769,0.21428571428571427,0.8571428571428571,0.0004
769,1.561313271522522,1.552318811416626,0.2692307692307692,0.8269230769230769,0.21428571428571427,0.8571428571428571,0.0004
770,1.5830806493759155,1.5541325807571411,0.3076923076923077,0.8269230769230769,0.21428571428571427,0.8571428571428571,0.0004
771,1.5457537770271301,1.5411583185195923,0.36538461538461536,0.8269230769230769,0.21428571428571427,0.8571428571428571,0.0004
772,1.5686029195785522,1.5454936027526855,0.3076923076923077,0.8269230769230769,0.21428571428571427,0.8571428571428571,0.0004
773,1.5425538420677185,1.5522267818450928,0.40384615384615385,0.8269230769230769,0.21428571428571427,0.8571428571428571,0.0004
774,1.5420024394989014,1.5313174724578857,0.2692307692307692,0.8269230769230769,0.21428571428571427,0.8571428571428571,0.0004
775,1.5227051973342896,1.561594843864441,0.4230769230769231,0.8269230769230769,0.21428571428571427,0.8571428571428571,0.0004
776,1.5375099182128906,1.5465984344482422,0.40384615384615385,0.8269230769230769,0.21428571428571427,0.8571428571428571,0.0004
777,1.6201583743095398,1.5601459741592407,0.25,0.8269230769230769,0.21428571428571427,0.8571428571428571,0.0004
778,1.6128554940223694,1.557607650756836,0.28846153846153844,0.8269230769230769,0.21428571428571427,0.8571428571428571,0.0004
779,1.5712333917617798,1.5524392127990723,0.3076923076923077,0.8269230769230769,0.21428571428571427,0.8571428571428571,0.0004
780,1.5828420519828796,1.5463695526123047,0.3269230769230769,0.8269230769230769,0.21428571428571427,0.8571428571428571,0.0004
781,1.5415021777153015,1.5541085004806519,0.38461538461538464,0.8269230769230769,0.21428571428571427,0.8571428571428571,0.0004
782,1.5617794394493103,1.562942385673523,0.4230769230769231,0.8269230769230769,0.21428571428571427,0.8571428571428571,0.0004
783,1.5571657419204712,1.5562999248504639,0.36538461538461536,0.8269230769230769,0.21428571428571427,0.8571428571428571,0.0004
784,1.5327390432357788,1.557786464691162,0.4423076923076923,0.8269230769230769,0.21428571428571427,0.8571428571428571,0.0004
785,1.546571433544159,1.5703588724136353,0.34615384615384615,0.8269230769230769,0.21428571428571427,0.8571428571428571,0.0004
786,1.559627115726471,1.5438902378082275,0.38461538461538464,0.8269230769230769,0.21428571428571427,0.8571428571428571,0.0004
787,1.569041132926941,1.5624701976776123,0.3269230769230769,0.8269230769230769,0.21428571428571427,0.8571428571428571,0.0004
788,1.5384600758552551,1.5607824325561523,0.36538461538461536,0.8269230769230769,0.21428571428571427,0.8571428571428571,0.0004
789,1.579796016216278,1.5592060089111328,0.40384615384615385,0.8269230769230769,0.21428571428571427,0.8571428571428571,0.0004
790,1.5858794450759888,1.5448940992355347,0.40384615384615385,0.8269230769230769,0.21428571428571427,0.8571428571428571,0.0004
791,1.6044237613677979,1.5498251914978027,0.34615384615384615,0.8269230769230769,0.21428571428571427,0.8571428571428571,0.0004
792,1.514626383781433,1.5430314540863037,0.36538461538461536,0.8269230769230769,0.21428571428571427,0.8571428571428571,0.0004
793,1.5880178213119507,1.5446486473083496,0.46153846153846156,0.8269230769230769,0.21428571428571427,0.8571428571428571,0.0004
794,1.6465184092521667,1.534255027770996,0.28846153846153844,0.8269230769230769,0.21428571428571427,0.8571428571428571,0.0004
795,1.5883513689041138,1.5630985498428345,0.40384615384615385,0.8269230769230769,0.21428571428571427,0.8571428571428571,0.0004
796,1.5934998989105225,1.5566297769546509,0.34615384615384615,0.8269230769230769,0.21428571428571427,0.8571428571428571,0.0004
797,1.59523206949234,1.5801132917404175,0.3076923076923077,0.8269230769230769,0.21428571428571427,0.8571428571428571,0.0004
798,1.6001235842704773,1.5704110860824585,0.3269230769230769,0.8269230769230769,0.21428571428571427,0.8571428571428571,0.0004
799,1.562293529510498,1.5351662635803223,0.28846153846153844,0.8269230769230769,0.21428571428571427,0.8571428571428571,0.0004
800,1.5596975684165955,1.5821444988250732,0.38461538461538464,0.8269230769230769,0.21428571428571427,0.8571428571428571,0.0004
801,1.5304622054100037,1.5561416149139404,0.36538461538461536,0.8269230769230769,0.21428571428571427,0.8571428571428571,0.0004
802,1.5320267081260681,1.5382192134857178,0.36538461538461536,0.8269230769230769,0.21428571428571427,0.8571428571428571,0.0004
803,1.552586555480957,1.5568093061447144,0.3269230769230769,0.8269230769230769,0.21428571428571427,0.8571428571428571,0.0004
804,1.5408541560173035,1.5532121658325195,0.40384615384615385,0.8269230769230769,0.21428571428571427,0.8571428571428571,0.0004
805,1.5371724367141724,1.5613609552383423,0.28846153846153844,0.8269230769230769,0.21428571428571427,0.8571428571428571,0.0004
806,1.5662147402763367,1.5594027042388916,0.28846153846153844,0.8269230769230769,0.21428571428571427,0.8571428571428571,0.0004
807,1.527414619922638,1.5430831909179688,0.36538461538461536,0.8269230769230769,0.21428571428571427,0.8571428571428571,0.0004
808,1.5861692428588867,1.5680108070373535,0.28846153846153844,0.8269230769230769,0.21428571428571427,0.8571428571428571,0.0004
809,1.5037610530853271,1.5453956127166748,0.46153846153846156,0.8269230769230769,0.21428571428571427,0.8571428571428571,0.0004
810,1.5639160871505737,1.542510986328125,0.36538461538461536,0.8269230769230769,0.21428571428571427,0.8571428571428571,0.0004
811,1.620341420173645,1.5333995819091797,0.40384615384615385,0.8269230769230769,0.21428571428571427,0.8571428571428571,0.0004
812,1.5701244473457336,1.5507875680923462,0.25,0.8269230769230769,0.21428571428571427,0.8571428571428571,0.0004
813,1.5699458122253418,1.5369534492492676,0.34615384615384615,0.8269230769230769,0.21428571428571427,0.8571428571428571,0.0004
814,1.5992565751075745,1.5473095178604126,0.4230769230769231,0.8269230769230769,0.21428571428571427,0.8571428571428571,0.0004
815,1.6012437343597412,1.5551235675811768,0.40384615384615385,0.8269230769230769,0.21428571428571427,0.8571428571428571,0.0004
816,1.6003581285476685,1.5336787700653076,0.36538461538461536,0.8269230769230769,0.21428571428571427,0.8571428571428571,0.0004
817,1.5649222135543823,1.5656371116638184,0.36538461538461536,0.8269230769230769,0.21428571428571427,0.8571428571428571,0.0004
818,1.5276845693588257,1.5618305206298828,0.38461538461538464,0.8269230769230769,0.21428571428571427,0.8571428571428571,0.0004
819,1.558231234550476,1.5717250108718872,0.38461538461538464,0.8269230769230769,0.21428571428571427,0.8571428571428571,0.0004
820,1.569515347480774,1.5754950046539307,0.34615384615384615,0.8269230769230769,0.21428571428571427,0.8571428571428571,0.0004
821,1.5440328121185303,1.5494511127471924,0.4230769230769231,0.8269230769230769,0.21428571428571427,0.8571428571428571,0.0004
822,1.5277114510536194,1.5579986572265625,0.36538461538461536,0.8269230769230769,0.21428571428571427,0.8571428571428571,0.0004
823,1.5772140622138977,1.5567952394485474,0.4230769230769231,0.8269230769230769,0.21428571428571427,0.8571428571428571,0.0004
824,1.5683456063270569,1.532462239265442,0.25,0.8269230769230769,0.21428571428571427,0.8571428571428571,0.0004
825,1.5955841541290283,1.5582005977630615,0.38461538461538464,0.8269230769230769,0.21428571428571427,0.8571428571428571,0.0004
826,1.6124931573867798,1.561029076576233,0.23076923076923078,0.8269230769230769,0.21428571428571427,0.8571428571428571,0.0004
827,1.516367793083191,1.567434549331665,0.28846153846153844,0.8269230769230769,0.21428571428571427,0.8571428571428571,0.0004
828,1.5858003497123718,1.543607473373413,0.3269230769230769,0.8269230769230769,0.21428571428571427,0.8571428571428571,0.0004
829,1.5584770441055298,1.5552964210510254,0.46153846153846156,0.8269230769230769,0.21428571428571427,0.8571428571428571,0.0004
830,1.6013526320457458,1.5712072849273682,0.36538461538461536,0.8269230769230769,0.21428571428571427,0.8571428571428571,0.0004
831,1.5791383385658264,1.5513670444488525,0.34615384615384615,0.8269230769230769,0.21428571428571427,0.8571428571428571,0.0004
832,1.5438538789749146,1.568307876586914,0.38461538461538464,0.8269230769230769,0.21428571428571427,0.8571428571428571,0.0004
833,1.5429995656013489,1.5817008018493652,0.34615384615384615,0.8269230769230769,0.21428571428571427,0.8571428571428571,0.0004
834,1.5261734127998352,1.5635288953781128,0.4423076923076923,0.8269230769230769,0.21428571428571427,0.8571428571428571,0.0004
835,1.586173951625824,1.5890858173370361,0.4423076923076923,0.8269230769230769,0.21428571428571427,0.8571428571428571,0.0004
836,1.5638172626495361,1.550763726234436,0.34615384615384615,0.8269230769230769,0.21428571428571427,0.8571428571428571,0.0004
837,1.5320900678634644,1.5699131488800049,0.34615384615384615,0.8269230769230769,0.21428571428571427,0.8571428571428571,0.0004
838,1.5201506614685059,1.5686284303665161,0.3269230769230769,0.8269230769230769,0.21428571428571427,0.8571428571428571,0.0004
839,1.6155303120613098,1.577512502670288,0.34615384615384615,0.8269230769230769,0.21428571428571427,0.8571428571428571,0.0004
840,1.5975425243377686,1.5538098812103271,0.38461538461538464,0.8269230769230769,0.21428571428571427,0.8571428571428571,0.0004
841,1.5590534210205078,1.5929551124572754,0.23076923076923078,0.8269230769230769,0.21428571428571427,0.8571428571428571,0.0004
842,1.6026477813720703,1.5514494180679321,0.38461538461538464,0.8269230769230769,0.21428571428571427,0.8571428571428571,0.0004
843,1.599158525466919,1.5606162548065186,0.34615384615384615,0.8269230769230769,0.21428571428571427,0.8571428571428571,0.0004
844,1.5930547714233398,1.5490188598632812,0.38461538461538464,0.8269230769230769,0.21428571428571427,0.8571428571428571,0.0004
845,1.5400125980377197,1.5494577884674072,0.4423076923076923,0.8269230769230769,0.21428571428571427,0.8571428571428571,0.0004
846,1.5842978358268738,1.5812382698059082,0.40384615384615385,0.8269230769230769,0.21428571428571427,0.8571428571428571,0.0004
847,1.540746808052063,1.5735633373260498,0.4230769230769231,0.8269230769230769,0.21428571428571427,0.8571428571428571,0.0004
848,1.570244014263153,1.5549743175506592,0.38461538461538464,0.8269230769230769,0.21428571428571427,0.8571428571428571,0.0004
849,1.5814966559410095,1.5841363668441772,0.40384615384615385,0.8269230769230769,0.21428571428571427,0.8571428571428571,0.0004
850,1.5267069339752197,1.5653448104858398,0.38461538461538464,0.8269230769230769,0.21428571428571427,0.8571428571428571,0.0004
851,1.5174327492713928,1.574169397354126,0.36538461538461536,0.8269230769230769,0.21428571428571427,0.8571428571428571,0.0004
852,1.56070214509964,1.5922077894210815,0.3269230769230769,0.8269230769230769,0.21428571428571427,0.8571428571428571,0.0004
853,1.5935463905334473,1.5530483722686768,0.3269230769230769,0.8269230769230769,0.21428571428571427,0.8571428571428571,0.0004
854,1.5411067008972168,1.5643184185028076,0.34615384615384615,0.8269230769230769,0.21428571428571427,0.8571428571428571,0.0004
855,1.5689587593078613,1.5525429248809814,0.38461538461538464,0.8269230769230769,0.21428571428571427,0.8571428571428571,0.0004
856,1.5722075700759888,1.5576759576797485,0.3076923076923077,0.8269230769230769,0.21428571428571427,0.8571428571428571,0.0004
857,1.585794746875763,1.5663471221923828,0.3269230769230769,0.8269230769230769,0.21428571428571427,0.8571428571428571,0.0004
858,1.5272586941719055,1.5533044338226318,0.36538461538461536,0.8269230769230769,0.21428571428571427,0.8571428571428571,0.0004
859,1.5504117012023926,1.5735375881195068,0.28846153846153844,0.8269230769230769,0.21428571428571427,0.8571428571428571,0.0004
860,1.5837822556495667,1.5528579950332642,0.3269230769230769,0.8269230769230769,0.21428571428571427,0.8571428571428571,0.0004
861,1.545316457748413,1.560892939567566,0.4230769230769231,0.8269230769230769,0.21428571428571427,0.8571428571428571,0.0004
862,1.5599071979522705,1.560397982597351,0.34615384615384615,0.8269230769230769,0.21428571428571427,0.8571428571428571,0.0004
863,1.5617730617523193,1.5594122409820557,0.40384615384615385,0.8269230769230769,0.21428571428571427,0.8571428571428571,0.0004
864,1.5646856427192688,1.5705276727676392,0.3076923076923077,0.8269230769230769,0.21428571428571427,0.8571428571428571,0.0004
865,1.559244155883789,1.557004690170288,0.34615384615384615,0.8269230769230769,0.21428571428571427,0.8571428571428571,0.0004
866,1.5429314374923706,1.5785725116729736,0.36538461538461536,0.8269230769230769,0.21428571428571427,0.8571428571428571,0.0004
867,1.54189133644104,1.5570862293243408,0.4230769230769231,0.8269230769230769,0.21428571428571427,0.8571428571428571,0.0004
868,1.5657359957695007,1.5391879081726074,0.28846153846153844,0.8269230769230769,0.21428571428571427,0.8571428571428571,0.0004
869,1.5705909729003906,1.5353258848190308,0.3269230769230769,0.8269230769230769,0.21428571428571427,0.8571428571428571,0.0004
870,1.5185730457305908,1.5655460357666016,0.34615384615384615,0.8269230769230769,0.21428571428571427,0.8571428571428571,0.0004
871,1.5756835341453552,1.556171178817749,0.4423076923076923,0.8269230769230769,0.21428571428571427,0.8571428571428571,0.0004
872,1.5380807518959045,1.563495397567749,0.34615384615384615,0.8269230769230769,0.21428571428571427,0.8571428571428571,0.0004
873,1.536112368106842,1.5506739616394043,0.38461538461538464,0.8269230769230769,0.21428571428571427,0.8571428571428571,0.0004
874,1.5791796445846558,1.5722384452819824,0.34615384615384615,0.8269230769230769,0.21428571428571427,0.8571428571428571,0.0004
875,1.5247658491134644,1.575627088546753,0.28846153846153844,0.8269230769230769,0.21428571428571427,0.8571428571428571,0.0004
876,1.550324261188507,1.5755454301834106,0.34615384615384615,0.8269230769230769,0.21428571428571427,0.8571428571428571,0.0004
877,1.5876763463020325,1.615664005279541,0.4230769230769231,0.8269230769230769,0.21428571428571427,0.8571428571428571,0.0004
878,1.5105856657028198,1.5820130109786987,0.36538461538461536,0.8269230769230769,0.21428571428571427,0.8571428571428571,0.0004
879,1.5561252236366272,1.5758183002471924,0.38461538461538464,0.8269230769230769,0.21428571428571427,0.8571428571428571,0.0004
880,1.5438929796218872,1.5771560668945312,0.3076923076923077,0.8269230769230769,0.21428571428571427,0.8571428571428571,0.0004
881,1.5354653000831604,1.6026411056518555,0.40384615384615385,0.8269230769230769,0.21428571428571427,0.8571428571428571,0.0004
882,1.524557650089264,1.5604963302612305,0.38461538461538464,0.8269230769230769,0.21428571428571427,0.8571428571428571,0.0004
883,1.5523956418037415,1.5796469449996948,0.36538461538461536,0.8269230769230769,0.21428571428571427,0.8571428571428571,0.0004
884,1.5396703481674194,1.5852526426315308,0.3269230769230769,0.8269230769230769,0.21428571428571427,0.8571428571428571,0.0004
885,1.5375930666923523,1.5767993927001953,0.34615384615384615,0.8269230769230769,0.21428571428571427,0.8571428571428571,0.0004
886,1.563121259212494,1.5518263578414917,0.38461538461538464,0.8269230769230769,0.21428571428571427,0.8571428571428571,0.0004
887,1.5145467519760132,1.547531008720398,0.40384615384615385,0.8269230769230769,0.21428571428571427,0.8571428571428571,0.0004
888,1.559367060661316,1.569022536277771,0.36538461538461536,0.8269230769230769,0.21428571428571427,0.8571428571428571,0.0004
889,1.5661260485649109,1.5463078022003174,0.34615384615384615,0.8269230769230769,0.21428571428571427,0.8571428571428571,0.0004
890,1.5535563230514526,1.56105637550354,0.3269230769230769,0.8269230769230769,0.21428571428571427,0.8571428571428571,0.0004
891,1.534656047821045,1.5641379356384277,0.28846153846153844,0.8269230769230769,0.21428571428571427,0.8571428571428571,0.0004
892,1.559415340423584,1.5722463130950928,0.40384615384615385,0.8269230769230769,0.21428571428571427,0.8571428571428571,0.0004
893,1.595520257949829,1.535380482673645,0.28846153846153844,0.8269230769230769,0.21428571428571427,0.8571428571428571,0.0004
894,1.6405837535858154,1.5496758222579956,0.3076923076923077,0.8269230769230769,0.21428571428571427,0.8571428571428571,0.0004
895,1.592201828956604,1.569887399673462,0.36538461538461536,0.8269230769230769,0.21428571428571427,0.8571428571428571,0.0004
896,1.5732909440994263,1.5612989664077759,0.28846153846153844,0.8269230769230769,0.21428571428571427,0.8571428571428571,0.0004
897,1.612689197063446,1.6227443218231201,0.36538461538461536,0.8269230769230769,0.21428571428571427,0.8571428571428571,0.0004
898,1.5769532918930054,1.634603500366211,0.34615384615384615,0.8269230769230769,0.21428571428571427,0.8571428571428571,0.0004
899,1.5449318289756775,1.6685490608215332,0.40384615384615385,0.8269230769230769,0.21428571428571427,0.8571428571428571,0.0004
900,1.6213936805725098,1.6264667510986328,0.36538461538461536,0.8269230769230769,0.21428571428571427,0.8571428571428571,0.0004
901,1.5911831259727478,1.6447763442993164,0.36538461538461536,0.8269230769230769,0.21428571428571427,0.8571428571428571,0.0004
902,1.5992299914360046,1.6226670742034912,0.34615384615384615,0.8269230769230769,0.21428571428571427,0.8571428571428571,0.0004
903,1.6245547533035278,1.6139698028564453,0.40384615384615385,0.8269230769230769,0.21428571428571427,0.8571428571428571,0.0004
904,1.509614109992981,1.6042574644088745,0.38461538461538464,0.8269230769230769,0.21428571428571427,0.8571428571428571,0.0004
905,1.5644987225532532,1.580277442932129,0.36538461538461536,0.8269230769230769,0.21428571428571427,0.8571428571428571,0.0004
906,1.5251250863075256,1.593148946762085,0.3269230769230769,0.8269230769230769,0.21428571428571427,0.8571428571428571,0.0004
907,1.5611058473587036,1.6000274419784546,0.38461538461538464,0.8269230769230769,0.21428571428571427,0.8571428571428571,0.0004
908,1.5798442959785461,1.533770203590393,0.4423076923076923,0.8269230769230769,0.21428571428571427,0.8571428571428571,0.0004
909,1.539258360862732,1.5404046773910522,0.4230769230769231,0.8269230769230769,0.21428571428571427,0.8571428571428571,0.0004
910,1.5279031991958618,1.5310394763946533,0.28846153846153844,0.8269230769230769,0.21428571428571427,0.8571428571428571,0.0004
911,1.5647375583648682,1.529253363609314,0.3076923076923077,0.8269230769230769,0.21428571428571427,0.8571428571428571,0.0004
912,1.558591365814209,1.5517473220825195,0.38461538461538464,0.8269230769230769,0.21428571428571427,0.8571428571428571,0.0004
913,1.6378058195114136,1.5340590476989746,0.38461538461538464,0.8269230769230769,0.21428571428571427,0.8571428571428571,0.0004
914,1.67802095413208,1.533948540687561,0.38461538461538464,0.8269230769230769,0.21428571428571427,0.8571428571428571,0.0004
915,1.5666924715042114,1.5518935918807983,0.4807692307692308,0.8269230769230769,0.21428571428571427,0.8571428571428571,0.0004
916,1.560819923877716,1.550072193145752,0.40384615384615385,0.8269230769230769,0.21428571428571427,0.8571428571428571,0.0004
917,1.6316068768501282,1.5307915210723877,0.36538461538461536,0.8269230769230769,0.21428571428571427,0.8571428571428571,0.0004
918,1.5585813522338867,1.5362989902496338,0.4230769230769231,0.8269230769230769,0.21428571428571427,0.8571428571428571,0.0004
919,1.589278519153595,1.5405454635620117,0.36538461538461536,0.8269230769230769,0.21428571428571427,0.8571428571428571,0.0004
920,1.6078178882598877,1.5520124435424805,0.40384615384615385,0.8269230769230769,0.21428571428571427,0.8571428571428571,0.0004
921,1.558742642402649,1.552059292793274,0.38461538461538464,0.8269230769230769,0.21428571428571427,0.8571428571428571,0.0004
922,1.5585037469863892,1.5538103580474854,0.34615384615384615,0.8269230769230769,0.21428571428571427,0.8571428571428571,0.0004
923,1.5793041586875916,1.5422046184539795,0.36538461538461536,0.8269230769230769,0.21428571428571427,0.8571428571428571,0.0004
924,1.5771712064743042,1.5431827306747437,0.36538461538461536,0.8269230769230769,0.21428571428571427,0.8571428571428571,0.0004
925,1.586145281791687,1.5471463203430176,0.38461538461538464,0.8269230769230769,0.21428571428571427,0.8571428571428571,0.0004
926,1.5689367055892944,1.5450373888015747,0.3269230769230769,0.8269230769230769,0.21428571428571427,0.8571428571428571,0.0004
927,1.5727037191390991,1.547084927558899,0.36538461538461536,0.8269230769230769,0.21428571428571427,0.8571428571428571,0.0004
928,1.5809067487716675,1.5465518236160278,0.36538461538461536,0.8269230769230769,0.21428571428571427,0.8571428571428571,0.0004
929,1.6150627136230469,1.5510332584381104,0.36538461538461536,0.8269230769230769,0.21428571428571427,0.8571428571428571,0.0004
930,1.545107126235962,1.5533043146133423,0.36538461538461536,0.8269230769230769,0.21428571428571427,0.8571428571428571,0.0004
931,1.5390748977661133,1.5503190755844116,0.38461538461538464,0.8269230769230769,0.21428571428571427,0.8571428571428571,0.0004
932,1.6177268624305725,1.5514330863952637,0.36538461538461536,0.8269230769230769,0.21428571428571427,0.8571428571428571,0.0004
933,1.626847267150879,1.5505659580230713,0.34615384615384615,0.8269230769230769,0.21428571428571427,0.8571428571428571,0.0004
934,1.5610198378562927,1.5639610290527344,0.38461538461538464,0.8269230769230769,0.21428571428571427,0.8571428571428571,0.0004
935,1.5357250571250916,1.5529359579086304,0.36538461538461536,0.8269230769230769,0.21428571428571427,0.8571428571428571,0.0004
936,1.6095975041389465,1.565670132637024,0.36538461538461536,0.8269230769230769,0.21428571428571427,0.8571428571428571,0.0004
937,1.5709498524665833,1.5501298904418945,0.34615384615384615,0.8269230769230769,0.21428571428571427,0.8571428571428571,0.0004
938,1.5646964311599731,1.5603010654449463,0.34615384615384615,0.8269230769230769,0.21428571428571427,0.8571428571428571,0.0004
939,1.5369949340820312,1.5522302389144897,0.36538461538461536,0.8269230769230769,0.21428571428571427,0.8571428571428571,0.0004
940,1.5562085509300232,1.5518615245819092,0.36538461538461536,0.8269230769230769,0.21428571428571427,0.8571428571428571,0.0004
941,1.6317864656448364,1.5490940809249878,0.3269230769230769,0.8269230769230769,0.21428571428571427,0.8571428571428571,0.0004
942,1.5486366748809814,1.545668601989746,0.3269230769230769,0.8269230769230769,0.21428571428571427,0.8571428571428571,0.0004
943,1.5579034686088562,1.5585358142852783,0.36538461538461536,0.8269230769230769,0.21428571428571427,0.8571428571428571,0.0004
944,1.59089195728302,1.5581966638565063,0.38461538461538464,0.8269230769230769,0.21428571428571427,0.8571428571428571,0.0004
945,1.5666948556900024,1.5455498695373535,0.36538461538461536,0.8269230769230769,0.21428571428571427,0.8571428571428571,0.0004
946,1.5768719911575317,1.5522091388702393,0.3269230769230769,0.8269230769230769,0.21428571428571427,0.8571428571428571,0.0004
947,1.6246305704116821,1.5445470809936523,0.34615384615384615,0.8269230769230769,0.21428571428571427,0.8571428571428571,0.0004
948,1.5369616746902466,1.5443899631500244,0.34615384615384615,0.8269230769230769,0.21428571428571427,0.8571428571428571,0.0004
949,1.5437260866165161,1.5450491905212402,0.34615384615384615,0.8269230769230769,0.21428571428571427,0.8571428571428571,0.0004
950,1.5896649956703186,1.539465308189392,0.36538461538461536,0.8269230769230769,0.21428571428571427,0.8571428571428571,0.0004
951,1.5578235983848572,1.5417412519454956,0.34615384615384615,0.8269230769230769,0.21428571428571427,0.8571428571428571,0.0004
952,1.5687812566757202,1.5397262573242188,0.36538461538461536,0.8269230769230769,0.21428571428571427,0.8571428571428571,0.0004
953,1.5965181589126587,1.5546565055847168,0.4230769230769231,0.8269230769230769,0.21428571428571427,0.8571428571428571,0.0004
954,1.5665600299835205,1.5411052703857422,0.36538461538461536,0.8269230769230769,0.21428571428571427,0.8571428571428571,0.0004
