epoch,train_loss,val_loss,train_acc_action,train_acc_status,val_acc_action,val_acc_status,learning_rate
1,1.7972056865692139,1.7977724075317383,0.36538461538461536,0.3076923076923077,0.21428571428571427,0.6428571428571429,0.0004
2,1.7486645579338074,1.763312816619873,0.3269230769230769,0.6538461538461539,0.14285714285714285,0.6428571428571429,0.0004
3,1.7234300374984741,1.690360426902771,0.28846153846153844,0.7115384615384616,0.2857142857142857,0.6428571428571429,0.0004
4,1.6810371279716492,1.6694176197052002,0.34615384615384615,0.7307692307692307,0.5,0.7857142857142857,0.0004
5,1.6444685459136963,1.6369071006774902,0.46153846153846156,0.7307692307692307,0.14285714285714285,0.7142857142857143,0.0004
6,1.6483524441719055,1.5510122776031494,0.36538461538461536,0.7692307692307693,0.5714285714285714,0.8571428571428571,0.0004
7,1.5995618104934692,1.5954177379608154,0.4230769230769231,0.7884615384615384,0.35714285714285715,0.7857142857142857,0.0004
8,1.5049312710762024,1.611308217048645,0.5,0.8076923076923077,0.5714285714285714,0.7142857142857143,0.0004
9,1.540671706199646,1.529456377029419,0.4807692307692308,0.7307692307692307,0.42857142857142855,0.6428571428571429,0.0004
10,1.454283356666565,1.5210542678833008,0.5576923076923077,0.8076923076923077,0.42857142857142855,0.7857142857142857,0.0004
11,1.388816475868225,1.4812302589416504,0.5961538461538461,0.8461538461538461,0.42857142857142855,0.7857142857142857,0.0004
12,1.4678885340690613,1.5252604484558105,0.5384615384615384,0.75,0.42857142857142855,0.7857142857142857,0.0004
13,1.4773688316345215,1.3470135927200317,0.5384615384615384,0.7692307692307693,0.5714285714285714,0.7857142857142857,0.0004
14,1.3122808933258057,1.5363037586212158,0.5769230769230769,0.8269230769230769,0.42857142857142855,0.7142857142857143,0.0004
15,1.3706635236740112,1.4897632598876953,0.5384615384615384,0.8269230769230769,0.5,0.7857142857142857,0.0004
16,1.2973564863204956,1.1809149980545044,0.5769230769230769,0.8076923076923077,0.5714285714285714,0.7857142857142857,0.0004
17,1.3787636756896973,1.5359669923782349,0.5384615384615384,0.8076923076923077,0.5,0.7142857142857143,0.0004
18,1.3761578798294067,1.385572910308838,0.5384615384615384,0.7692307692307693,0.5,0.7142857142857143,0.0004
19,1.2321431636810303,1.3219714164733887,0.6153846153846154,0.8461538461538461,0.42857142857142855,0.7142857142857143,0.0004
20,1.2837223410606384,1.4753119945526123,0.5576923076923077,0.8076923076923077,0.42857142857142855,0.5714285714285714,0.0004
21,1.2986054420471191,1.4130314588546753,0.5769230769230769,0.7884615384615384,0.5,0.7857142857142857,0.0004
22,1.3773733377456665,1.4116573333740234,0.5384615384615384,0.8076923076923077,0.5,0.5714285714285714,0.0004
23,1.3790576457977295,1.3505840301513672,0.5576923076923077,0.75,0.5,0.7142857142857143,0.0004
24,1.3827942609786987,1.7945692539215088,0.5576923076923077,0.7884615384615384,0.35714285714285715,0.5714285714285714,0.0004
25,1.259851336479187,1.4578754901885986,0.5769230769230769,0.75,0.42857142857142855,0.6428571428571429,0.0004
26,1.206764578819275,1.3977209329605103,0.6153846153846154,0.8076923076923077,0.5,0.7142857142857143,0.0004
27,1.2649613618850708,1.3880282640457153,0.6730769230769231,0.8076923076923077,0.7142857142857143,0.7857142857142857,0.0004
28,1.1528401374816895,1.4835913181304932,0.75,0.8653846153846154,0.7142857142857143,0.7142857142857143,0.0004
29,1.3473074436187744,1.5936567783355713,0.6538461538461539,0.8461538461538461,0.5714285714285714,0.7142857142857143,0.0004
30,1.2206626534461975,1.2846943140029907,0.5769230769230769,0.8269230769230769,0.5714285714285714,0.7857142857142857,0.0004
31,1.1759920716285706,1.2576560974121094,0.7307692307692307,0.75,0.7142857142857143,0.7857142857142857,0.0004
32,1.1466003060340881,1.2099757194519043,0.75,0.8076923076923077,0.7142857142857143,0.8571428571428571,0.0004
33,1.3651976585388184,1.4809603691101074,0.5384615384615384,0.8269230769230769,0.8571428571428571,0.7142857142857143,0.0004
34,1.3192480206489563,1.3626984357833862,0.6153846153846154,0.8269230769230769,0.7142857142857143,0.8571428571428571,0.0004
35,1.2288346886634827,1.376668095588684,0.5769230769230769,0.8461538461538461,0.5714285714285714,0.8571428571428571,0.0004
36,1.217843770980835,1.328643798828125,0.6923076923076923,0.8269230769230769,0.5714285714285714,0.8571428571428571,0.0004
37,1.1544731855392456,1.337123155593872,0.6923076923076923,0.8461538461538461,0.6428571428571429,0.7857142857142857,0.0004
38,1.121606469154358,1.3200377225875854,0.6730769230769231,0.8269230769230769,0.7142857142857143,0.8571428571428571,0.0004
39,1.3086878657341003,1.3180510997772217,0.5769230769230769,0.8076923076923077,0.5714285714285714,0.8571428571428571,0.0004
40,1.1992672681808472,1.2918951511383057,0.6730769230769231,0.8076923076923077,0.8571428571428571,0.8571428571428571,0.0004
41,1.1269670128822327,1.496415138244629,0.6346153846153846,0.7884615384615384,0.42857142857142855,0.8571428571428571,0.0004
42,1.2722607851028442,1.3812310695648193,0.6538461538461539,0.8269230769230769,0.5714285714285714,0.8571428571428571,0.0004
43,1.3414620161056519,1.3967883586883545,0.4807692307692308,0.8269230769230769,0.35714285714285715,0.8571428571428571,0.0004
44,1.1357922554016113,1.4987154006958008,0.6730769230769231,0.8269230769230769,0.5714285714285714,0.8571428571428571,0.0004
45,1.1365023255348206,1.3702893257141113,0.5961538461538461,0.8269230769230769,0.5714285714285714,0.8571428571428571,0.0004
46,1.2488887906074524,1.1617625951766968,0.5576923076923077,0.8269230769230769,0.7142857142857143,0.8571428571428571,0.0004
47,1.264137625694275,1.2780109643936157,0.5961538461538461,0.8269230769230769,0.7142857142857143,0.8571428571428571,0.0004
48,1.0189422965049744,1.530137062072754,0.7884615384615384,0.8269230769230769,0.42857142857142855,0.8571428571428571,0.0004
49,1.247279703617096,1.4521477222442627,0.7115384615384616,0.8269230769230769,0.5,0.8571428571428571,0.0004
50,1.1645140051841736,0.9912803769111633,0.6730769230769231,0.8269230769230769,0.7857142857142857,0.8571428571428571,0.0004
51,1.377777338027954,1.38193941116333,0.5769230769230769,0.8269230769230769,0.42857142857142855,0.8571428571428571,0.0004
52,1.2057225108146667,1.053501844406128,0.6923076923076923,0.8269230769230769,0.7142857142857143,0.8571428571428571,0.0004
53,1.0672860145568848,1.4572737216949463,0.6730769230769231,0.8269230769230769,0.5,0.8571428571428571,0.0004
54,1.1711878180503845,1.4181305170059204,0.6730769230769231,0.8269230769230769,0.5714285714285714,0.8571428571428571,0.0004
55,1.1720861792564392,1.2994359731674194,0.6538461538461539,0.8269230769230769,0.5714285714285714,0.8571428571428571,0.0004
56,1.020141363143921,1.1240334510803223,0.7115384615384616,0.8269230769230769,0.6428571428571429,0.8571428571428571,0.0004
57,1.0823373198509216,1.4135023355484009,0.6730769230769231,0.8269230769230769,0.5714285714285714,0.8571428571428571,0.0004
58,1.2775028944015503,1.3311320543289185,0.6923076923076923,0.8269230769230769,0.7142857142857143,0.8571428571428571,0.0004
59,1.36380934715271,1.3112633228302002,0.6538461538461539,0.8269230769230769,0.5714285714285714,0.8571428571428571,0.0004
60,1.0604262948036194,1.0643640756607056,0.6538461538461539,0.8269230769230769,0.7857142857142857,0.8571428571428571,0.0004
61,1.2060319185256958,1.1275413036346436,0.5769230769230769,0.8269230769230769,0.7142857142857143,0.8571428571428571,0.0004
62,1.214648962020874,1.262608289718628,0.5384615384615384,0.8269230769230769,0.5714285714285714,0.8571428571428571,0.0004
63,1.1312766075134277,1.3638854026794434,0.5961538461538461,0.8269230769230769,0.5,0.8571428571428571,0.0004
64,1.1417274475097656,1.3236719369888306,0.6730769230769231,0.8461538461538461,0.6428571428571429,0.8571428571428571,0.0004
65,1.1065561175346375,1.1511521339416504,0.6538461538461539,0.8461538461538461,0.6428571428571429,0.7857142857142857,0.0004
66,1.1207002401351929,1.361405849456787,0.6153846153846154,0.8269230769230769,0.5,0.7857142857142857,0.0004
67,1.1910414099693298,1.1198112964630127,0.6346153846153846,0.8846153846153846,0.7142857142857143,0.7857142857142857,0.0004
68,1.175623893737793,1.4920635223388672,0.5769230769230769,0.9038461538461539,0.5,0.6428571428571429,0.0004
69,1.043235331773758,0.9898708462715149,0.6730769230769231,0.8653846153846154,0.6428571428571429,0.8571428571428571,0.0004
70,1.2291075587272644,1.3983458280563354,0.6153846153846154,0.8076923076923077,0.5714285714285714,0.6428571428571429,0.0004
71,1.259806215763092,0.9354305267333984,0.5961538461538461,0.8461538461538461,0.6428571428571429,0.7857142857142857,0.0004
72,1.0720223784446716,1.0804996490478516,0.6923076923076923,0.8653846153846154,0.6428571428571429,0.7857142857142857,0.0004
73,1.2473564743995667,1.2795089483261108,0.5961538461538461,0.8269230769230769,0.5714285714285714,0.7857142857142857,0.0004
74,1.1623136401176453,0.9282234907150269,0.6346153846153846,0.8269230769230769,0.7142857142857143,0.8571428571428571,0.0004
75,1.1423910856246948,1.5959049463272095,0.5769230769230769,0.8076923076923077,0.5714285714285714,0.7142857142857143,0.0004
76,1.0736216306686401,1.4046071767807007,0.6730769230769231,0.9038461538461539,0.5,0.8571428571428571,0.0004
77,1.1366475522518158,1.4941096305847168,0.6153846153846154,0.8653846153846154,0.5,0.6428571428571429,0.0004
78,1.2954737544059753,1.701183557510376,0.5961538461538461,0.8461538461538461,0.5,0.5,0.0004
79,1.03080815076828,1.2803878784179688,0.6346153846153846,0.9615384615384616,0.5,0.8571428571428571,0.0004
80,1.2729817032814026,1.3250646591186523,0.5961538461538461,0.8653846153846154,0.5,0.8571428571428571,0.0004
81,1.0871843099594116,1.1248888969421387,0.6153846153846154,0.9038461538461539,0.5714285714285714,0.8571428571428571,0.0004
82,1.0880728960037231,1.5772440433502197,0.6923076923076923,0.8461538461538461,0.42857142857142855,0.7857142857142857,0.0004
83,1.2306223511695862,1.3181089162826538,0.5961538461538461,0.8269230769230769,0.7142857142857143,0.8571428571428571,0.0004
84,0.9856933355331421,1.053520679473877,0.6346153846153846,0.8846153846153846,0.7142857142857143,0.7857142857142857,0.0004
85,1.21578049659729,1.739105224609375,0.6153846153846154,0.8076923076923077,0.5,0.6428571428571429,0.0004
86,1.2610506415367126,1.2382980585098267,0.5576923076923077,0.8076923076923077,0.7142857142857143,0.6428571428571429,0.0004
87,1.3474233746528625,1.197194218635559,0.6153846153846154,0.8076923076923077,0.6428571428571429,0.7142857142857143,0.0004
88,1.1757476925849915,1.1441704034805298,0.6153846153846154,0.8653846153846154,0.5714285714285714,0.7857142857142857,0.0004
89,1.3172736763954163,1.5233538150787354,0.6153846153846154,0.8269230769230769,0.5,0.7857142857142857,0.0004
90,1.110116720199585,1.2096540927886963,0.6346153846153846,0.8461538461538461,0.7857142857142857,0.7142857142857143,0.0004
91,1.1162477731704712,1.1075439453125,0.6153846153846154,0.8269230769230769,0.6428571428571429,0.8571428571428571,0.0004
92,0.9993523359298706,1.0890169143676758,0.7692307692307693,0.8461538461538461,0.7142857142857143,0.7857142857142857,0.0004
93,1.1741730570793152,1.1938421726226807,0.5576923076923077,0.8076923076923077,0.5,0.8571428571428571,0.0004
94,1.0633361339569092,1.0781749486923218,0.6538461538461539,0.8461538461538461,0.5714285714285714,0.8571428571428571,0.0004
95,1.0319553911685944,1.2521076202392578,0.6538461538461539,0.8461538461538461,0.6428571428571429,0.8571428571428571,0.0004
96,1.2417320609092712,1.0762839317321777,0.6153846153846154,0.8076923076923077,0.5714285714285714,0.9285714285714286,0.0004
97,1.0756239295005798,1.0907059907913208,0.6538461538461539,0.8461538461538461,0.6428571428571429,0.7857142857142857,0.0004
98,1.4272955060005188,1.5297086238861084,0.5576923076923077,0.8076923076923077,0.5714285714285714,0.6428571428571429,0.0004
99,1.2600704431533813,0.930776834487915,0.6346153846153846,0.7692307692307693,0.7142857142857143,0.8571428571428571,0.0004
100,1.1050173342227936,1.3733566999435425,0.6538461538461539,0.8846153846153846,0.5714285714285714,0.8571428571428571,0.0004
101,1.2949024438858032,1.3961210250854492,0.5576923076923077,0.8461538461538461,0.5714285714285714,0.7142857142857143,0.0004
102,1.0646147727966309,1.2978861331939697,0.6730769230769231,0.8653846153846154,0.6428571428571429,0.7142857142857143,0.0004
103,1.0965794324874878,1.309083342552185,0.6730769230769231,0.8461538461538461,0.5714285714285714,0.7857142857142857,0.0004
104,0.9869912266731262,1.0552798509597778,0.6538461538461539,0.9038461538461539,0.7142857142857143,0.6428571428571429,0.0004
105,1.1910996437072754,1.1753463745117188,0.5961538461538461,0.8269230769230769,0.7857142857142857,0.6428571428571429,0.0004
106,1.1403852701187134,1.505403995513916,0.5576923076923077,0.8269230769230769,0.5,0.7142857142857143,0.0004
107,1.2265520095825195,1.1715704202651978,0.6730769230769231,0.8076923076923077,0.5714285714285714,0.7857142857142857,0.0004
108,1.075571596622467,1.2419099807739258,0.7307692307692307,0.8846153846153846,0.6428571428571429,0.7857142857142857,0.0004
109,1.172856628894806,1.3844997882843018,0.6346153846153846,0.8461538461538461,0.5,0.8571428571428571,0.0004
110,1.1079767942428589,1.1914992332458496,0.6153846153846154,0.8461538461538461,0.42857142857142855,0.7857142857142857,0.0004
111,1.2200040221214294,1.1176178455352783,0.5576923076923077,0.8269230769230769,0.6428571428571429,0.7857142857142857,0.0004
112,1.0015172064304352,0.9304757118225098,0.6538461538461539,0.8461538461538461,0.6428571428571429,0.9285714285714286,0.0004
113,1.1126142740249634,1.0546308755874634,0.6730769230769231,0.8269230769230769,0.5,0.8571428571428571,0.0004
114,1.0512182712554932,1.0560507774353027,0.6346153846153846,0.8461538461538461,0.7142857142857143,0.8571428571428571,0.0004
115,0.9307388365268707,1.0498789548873901,0.7115384615384616,0.9615384615384616,0.7142857142857143,0.7142857142857143,0.0004
116,0.9125146865844727,1.1342017650604248,0.7115384615384616,0.9038461538461539,0.6428571428571429,0.7142857142857143,0.0004
117,1.0523195266723633,1.4542484283447266,0.6538461538461539,0.8846153846153846,0.6428571428571429,0.6428571428571429,0.0004
118,1.060705691576004,1.80009126663208,0.6730769230769231,0.8846153846153846,0.35714285714285715,0.6428571428571429,0.0004
119,1.1274786591529846,0.9187334775924683,0.6153846153846154,0.8846153846153846,0.7142857142857143,0.9285714285714286,0.0004
120,1.0429936051368713,1.1222928762435913,0.7307692307692307,0.8846153846153846,0.5714285714285714,0.7142857142857143,0.0004
121,1.3000104427337646,1.2344290018081665,0.5576923076923077,0.8076923076923077,0.6428571428571429,0.7142857142857143,0.0004
122,1.0659775733947754,0.9811512231826782,0.6538461538461539,0.9230769230769231,0.5714285714285714,0.9285714285714286,0.0004
123,1.004884123802185,1.6826257705688477,0.75,0.8653846153846154,0.5714285714285714,0.6428571428571429,0.0004
124,1.1075704097747803,1.549277901649475,0.7115384615384616,0.8269230769230769,0.42857142857142855,0.7142857142857143,0.0004
125,1.0903238654136658,1.0822486877441406,0.6153846153846154,0.8461538461538461,0.6428571428571429,0.9285714285714286,0.0004
126,1.1380954086780548,1.1322364807128906,0.7115384615384616,0.8461538461538461,0.5,0.8571428571428571,0.0004
127,1.0071998834609985,1.6488654613494873,0.6730769230769231,0.8846153846153846,0.5,0.5714285714285714,0.0004
128,1.1132234930992126,1.1832690238952637,0.6538461538461539,0.8076923076923077,0.7142857142857143,0.7142857142857143,0.0004
129,0.988884299993515,1.2799909114837646,0.7692307692307693,0.8461538461538461,0.5714285714285714,0.7142857142857143,0.0004
130,0.849886029958725,1.3005027770996094,0.75,0.9038461538461539,0.5714285714285714,0.7857142857142857,0.0004
131,0.9910264611244202,0.934139609336853,0.6538461538461539,0.9423076923076923,0.6428571428571429,0.9285714285714286,0.0004
132,1.1205312609672546,1.9605810642242432,0.5961538461538461,0.9230769230769231,0.35714285714285715,0.7142857142857143,0.0004
133,1.021047681570053,1.5577304363250732,0.6923076923076923,0.8461538461538461,0.5714285714285714,0.7857142857142857,0.0004
134,1.0570438206195831,1.7861964702606201,0.6923076923076923,0.9038461538461539,0.5,0.6428571428571429,0.0004
135,0.9839887320995331,1.6191937923431396,0.6538461538461539,0.9230769230769231,0.42857142857142855,0.7857142857142857,0.0004
136,0.9012065529823303,1.0925709009170532,0.6923076923076923,0.8846153846153846,0.7857142857142857,0.7142857142857143,0.0004
137,1.2006140351295471,1.291398286819458,0.5961538461538461,0.8461538461538461,0.6428571428571429,0.7857142857142857,0.0004
138,1.0983038544654846,0.7457246780395508,0.6923076923076923,0.9038461538461539,0.8571428571428571,0.7857142857142857,0.0004
139,1.0037589967250824,1.03770911693573,0.7692307692307693,0.8653846153846154,0.6428571428571429,0.8571428571428571,0.0004
140,1.2286474108695984,1.300792932510376,0.5769230769230769,0.8269230769230769,0.6428571428571429,0.7857142857142857,0.0004
141,1.0157668590545654,1.6877641677856445,0.6153846153846154,0.8461538461538461,0.5,0.7142857142857143,0.0004
142,1.096646010875702,1.1898884773254395,0.6730769230769231,0.9038461538461539,0.5,0.9285714285714286,0.0004
143,1.0258854031562805,1.4659161567687988,0.7115384615384616,0.8846153846153846,0.5,0.7857142857142857,0.0004
144,1.2451191544532776,1.007374882698059,0.5961538461538461,0.8846153846153846,0.5714285714285714,0.9285714285714286,0.0004
145,1.0199643969535828,0.9868308305740356,0.6923076923076923,0.8461538461538461,0.5714285714285714,0.9285714285714286,0.0004
146,1.1712164282798767,1.634739875793457,0.6153846153846154,0.8846153846153846,0.5714285714285714,0.6428571428571429,0.0004
147,0.9545292556285858,1.7506948709487915,0.7115384615384616,0.8846153846153846,0.5,0.6428571428571429,0.0004
148,0.94668048620224,1.2601406574249268,0.7115384615384616,0.9038461538461539,0.5714285714285714,0.7142857142857143,0.0004
149,1.028245896100998,2.0743424892425537,0.6153846153846154,0.8846153846153846,0.42857142857142855,0.5,0.0004
150,1.0345934629440308,1.433196783065796,0.75,0.7692307692307693,0.5714285714285714,0.7142857142857143,0.0004
151,1.0494271218776703,1.5160713195800781,0.5961538461538461,0.8846153846153846,0.42857142857142855,0.7857142857142857,0.0004
152,1.0001333951950073,0.8437276482582092,0.7115384615384616,0.8653846153846154,0.7857142857142857,0.8571428571428571,0.0004
153,1.0017324090003967,1.5616015195846558,0.6346153846153846,0.8846153846153846,0.5714285714285714,0.6428571428571429,0.0004
154,1.2415387630462646,1.684004545211792,0.6346153846153846,0.8076923076923077,0.6428571428571429,0.5714285714285714,0.0004
155,1.1970164775848389,1.6392054557800293,0.6538461538461539,0.7884615384615384,0.5,0.5714285714285714,0.0004
156,1.1593890190124512,1.620826244354248,0.6538461538461539,0.8653846153846154,0.5714285714285714,0.5714285714285714,0.0004
157,1.0464275479316711,1.3752567768096924,0.6153846153846154,0.8653846153846154,0.5714285714285714,0.6428571428571429,0.0004
158,1.0317204594612122,1.1924623250961304,0.6538461538461539,0.9423076923076923,0.5714285714285714,0.8571428571428571,0.0004
159,1.4876548051834106,1.5540540218353271,0.5192307692307693,0.75,0.42857142857142855,0.5714285714285714,0.0004
160,0.98293536901474,1.4365696907043457,0.6538461538461539,0.8846153846153846,0.5,0.7857142857142857,0.0004
161,1.0416967272758484,1.222677230834961,0.5961538461538461,0.8461538461538461,0.7857142857142857,0.7142857142857143,0.0004
162,0.9893893301486969,1.84798002243042,0.7115384615384616,0.8076923076923077,0.35714285714285715,0.6428571428571429,0.0004
163,1.1211086511611938,1.6755344867706299,0.6346153846153846,0.8461538461538461,0.5,0.7857142857142857,0.0004
164,1.1620218753814697,1.1504510641098022,0.6538461538461539,0.8461538461538461,0.6428571428571429,0.7857142857142857,0.0004
165,1.1772924661636353,1.2261453866958618,0.6538461538461539,0.7692307692307693,0.5714285714285714,0.7857142857142857,0.0004
166,1.0881903171539307,1.3410930633544922,0.5576923076923077,0.8846153846153846,0.6428571428571429,0.6428571428571429,0.0004
167,1.1752901673316956,1.7197123765945435,0.6346153846153846,0.8076923076923077,0.42857142857142855,0.5714285714285714,0.0004
168,1.0895662903785706,1.4211852550506592,0.7115384615384616,0.8653846153846154,0.42857142857142855,0.8571428571428571,0.0004
169,1.1494491696357727,1.0559014081954956,0.6153846153846154,0.8653846153846154,0.5714285714285714,0.8571428571428571,0.0004
170,1.1050284504890442,1.4093480110168457,0.5961538461538461,0.9230769230769231,0.5714285714285714,0.7142857142857143,0.0004
171,1.0762152671813965,1.4200385808944702,0.6153846153846154,0.9038461538461539,0.42857142857142855,0.7857142857142857,0.0004
172,1.2134078741073608,1.216496467590332,0.6346153846153846,0.7692307692307693,0.5714285714285714,0.6428571428571429,0.0004
173,1.16099214553833,1.4698493480682373,0.5961538461538461,0.8269230769230769,0.35714285714285715,0.7857142857142857,0.0004
174,1.0768800377845764,0.997294008731842,0.7307692307692307,0.8846153846153846,0.7142857142857143,0.6428571428571429,0.0004
175,1.0688294470310211,1.358093500137329,0.6923076923076923,0.8461538461538461,0.35714285714285715,0.8571428571428571,0.0004
176,1.2393640577793121,1.3274480104446411,0.6346153846153846,0.8461538461538461,0.5,0.7857142857142857,0.0004
177,1.1612882614135742,1.4609084129333496,0.6153846153846154,0.7692307692307693,0.5,0.6428571428571429,0.0004
178,1.065161943435669,0.9683735370635986,0.6538461538461539,0.8653846153846154,0.5714285714285714,0.8571428571428571,0.0004
179,1.187438189983368,1.5396225452423096,0.5961538461538461,0.8461538461538461,0.5,0.6428571428571429,0.0004
180,1.0615177154541016,1.2249952554702759,0.7115384615384616,0.8461538461538461,0.5714285714285714,0.8571428571428571,0.0004
181,0.8827908933162689,1.087778091430664,0.7307692307692307,0.9230769230769231,0.5,0.9285714285714286,0.0004
182,1.1708462834358215,0.9233311414718628,0.5961538461538461,0.8461538461538461,0.7142857142857143,0.7142857142857143,0.0004
183,1.1326751410961151,1.1866436004638672,0.6153846153846154,0.8461538461538461,0.7142857142857143,0.6428571428571429,0.0004
184,1.1053189635276794,1.4268805980682373,0.6923076923076923,0.8461538461538461,0.5714285714285714,0.7142857142857143,0.0004
185,1.0637993216514587,1.208388090133667,0.7692307692307693,0.6923076923076923,0.5714285714285714,0.7857142857142857,0.0004
186,1.089657485485077,1.6286392211914062,0.6153846153846154,0.8653846153846154,0.35714285714285715,0.7857142857142857,0.0004
187,1.1368253231048584,1.0537288188934326,0.6346153846153846,0.7884615384615384,0.6428571428571429,0.7857142857142857,0.0004
188,1.0889724493026733,1.149540901184082,0.7307692307692307,0.8076923076923077,0.5714285714285714,0.6428571428571429,0.0004
189,1.1319620311260223,1.0014212131500244,0.6730769230769231,0.8076923076923077,0.5714285714285714,0.9285714285714286,0.0004
190,1.1281288862228394,1.168954849243164,0.6538461538461539,0.8461538461538461,0.6428571428571429,0.6428571428571429,0.0004
191,1.1794706583023071,1.3523106575012207,0.7115384615384616,0.8269230769230769,0.5,0.8571428571428571,0.0004
192,1.1522683501243591,1.6928294897079468,0.6153846153846154,0.8076923076923077,0.35714285714285715,0.7142857142857143,0.0004
193,1.0009595453739166,1.0917835235595703,0.6153846153846154,0.8653846153846154,0.6428571428571429,0.7142857142857143,0.0004
194,0.9868651628494263,0.8642551898956299,0.6538461538461539,0.8653846153846154,0.7857142857142857,0.7142857142857143,0.0004
195,1.192051649093628,1.250992774963379,0.5769230769230769,0.8269230769230769,0.5714285714285714,0.7857142857142857,0.0004
196,1.1134950518608093,1.6366020441055298,0.6346153846153846,0.8076923076923077,0.42857142857142855,0.6428571428571429,0.0004
197,1.2551488876342773,1.4806742668151855,0.5192307692307693,0.8076923076923077,0.5,0.7142857142857143,0.0004
198,1.1921067237854004,1.6619398593902588,0.5576923076923077,0.8461538461538461,0.5,0.5,0.0004
199,1.0142850875854492,1.3814648389816284,0.7115384615384616,0.8461538461538461,0.5714285714285714,0.7857142857142857,0.0004
200,1.1683683395385742,0.8460613489151001,0.5961538461538461,0.8653846153846154,0.7142857142857143,0.8571428571428571,0.0004
201,1.1391489505767822,1.7183845043182373,0.5769230769230769,0.8846153846153846,0.42857142857142855,0.6428571428571429,0.0004
202,1.1977502703666687,1.3436452150344849,0.6346153846153846,0.8076923076923077,0.5,0.7857142857142857,0.0004
203,1.2057943940162659,0.8514102101325989,0.6923076923076923,0.8269230769230769,0.7142857142857143,0.9285714285714286,0.0004
204,1.0872041583061218,1.149014949798584,0.6538461538461539,0.8461538461538461,0.5714285714285714,0.8571428571428571,0.0004
205,1.0066899061203003,1.0124125480651855,0.6730769230769231,0.8461538461538461,0.5714285714285714,1.0,0.0004
206,1.1201257109642029,1.2144031524658203,0.6346153846153846,0.8461538461538461,0.5714285714285714,0.9285714285714286,0.0004
207,0.9914214909076691,1.319385051727295,0.6346153846153846,0.8076923076923077,0.5714285714285714,0.7857142857142857,0.0004
208,1.204419493675232,1.3903026580810547,0.6346153846153846,0.8269230769230769,0.5,0.8571428571428571,0.0004
209,1.0535410046577454,1.4666860103607178,0.6923076923076923,0.8269230769230769,0.35714285714285715,0.9285714285714286,0.0004
210,1.3461147546768188,1.7899852991104126,0.5769230769230769,0.8269230769230769,0.35714285714285715,0.7142857142857143,0.0004
211,1.3580304384231567,1.6901335716247559,0.6346153846153846,0.8269230769230769,0.42857142857142855,0.8571428571428571,0.0004
212,1.2445552349090576,0.9383052587509155,0.6730769230769231,0.8269230769230769,0.7857142857142857,0.8571428571428571,0.0004
213,1.1257168650627136,1.4444208145141602,0.5961538461538461,0.9038461538461539,0.5714285714285714,0.6428571428571429,0.0004
214,1.097123384475708,1.4142451286315918,0.75,0.8076923076923077,0.42857142857142855,0.8571428571428571,0.0004
215,1.1060433387756348,0.9533461928367615,0.6346153846153846,0.9230769230769231,0.6428571428571429,0.9285714285714286,0.0004
216,1.0457493662834167,1.226250171661377,0.6538461538461539,0.8653846153846154,0.5,0.9285714285714286,0.0004
217,0.9522804021835327,0.9406813383102417,0.6923076923076923,0.8846153846153846,0.7142857142857143,0.8571428571428571,0.0004
218,1.0403610169887543,1.607154369354248,0.6923076923076923,0.8461538461538461,0.35714285714285715,0.7857142857142857,0.0004
219,1.1478389501571655,0.8983098268508911,0.7115384615384616,0.8076923076923077,0.6428571428571429,1.0,0.0004
220,1.0986596941947937,1.5952119827270508,0.5576923076923077,0.9230769230769231,0.5,0.7142857142857143,0.0004
221,1.0383158028125763,1.2484626770019531,0.7307692307692307,0.7884615384615384,0.5714285714285714,0.8571428571428571,0.0004
222,1.0039183497428894,1.2518534660339355,0.7115384615384616,0.8461538461538461,0.5,0.9285714285714286,0.0004
223,0.9770789742469788,1.0690393447875977,0.7307692307692307,0.9038461538461539,0.6428571428571429,0.9285714285714286,0.0004
224,0.9154150485992432,1.6663289070129395,0.6923076923076923,0.8846153846153846,0.5,0.7857142857142857,0.0004
225,0.9450942873954773,1.275478720664978,0.7307692307692307,0.8846153846153846,0.5714285714285714,0.7857142857142857,0.0004
226,1.1120400130748749,1.0759849548339844,0.6346153846153846,0.8653846153846154,0.6428571428571429,0.7857142857142857,0.0004
227,1.003014326095581,1.513767957687378,0.6538461538461539,0.9230769230769231,0.42857142857142855,0.7857142857142857,0.0004
228,0.954976499080658,1.1524016857147217,0.7307692307692307,0.7884615384615384,0.6428571428571429,1.0,0.0004
229,1.08303502202034,1.0846266746520996,0.6538461538461539,0.8461538461538461,0.5,1.0,0.0004
230,1.0641276240348816,1.5515623092651367,0.7115384615384616,0.8461538461538461,0.5,0.8571428571428571,0.0004
231,1.2191791534423828,1.0884989500045776,0.6153846153846154,0.8461538461538461,0.5,1.0,0.0004
232,1.1344959139823914,1.4333488941192627,0.6538461538461539,0.8461538461538461,0.5714285714285714,0.9285714285714286,0.0004
233,1.0451397895812988,1.5565292835235596,0.75,0.8269230769230769,0.5714285714285714,0.8571428571428571,0.0004
234,0.9725293517112732,1.6951253414154053,0.6538461538461539,0.8846153846153846,0.42857142857142855,0.7857142857142857,0.0004
235,0.920884519815445,1.2044382095336914,0.7307692307692307,0.8846153846153846,0.5714285714285714,0.9285714285714286,0.0004
236,1.1340044140815735,1.224705457687378,0.5961538461538461,0.8461538461538461,0.5714285714285714,0.8571428571428571,0.0004
237,1.4490190148353577,0.8160466551780701,0.5769230769230769,0.7692307692307693,0.5714285714285714,1.0,0.0004
238,1.1620730757713318,1.050805926322937,0.6153846153846154,0.8269230769230769,0.5714285714285714,0.9285714285714286,0.0004
239,1.0362678170204163,1.4673848152160645,0.5769230769230769,0.8653846153846154,0.6428571428571429,0.7857142857142857,0.0004
240,1.3197383284568787,1.6603484153747559,0.5192307692307693,0.8269230769230769,0.5,0.8571428571428571,0.0004
241,1.0260704457759857,1.0789117813110352,0.7115384615384616,0.8076923076923077,0.6428571428571429,0.8571428571428571,0.0004
242,1.2622430920600891,1.2404065132141113,0.5769230769230769,0.8269230769230769,0.6428571428571429,0.7857142857142857,0.0004
243,1.0742590427398682,0.9980483651161194,0.6346153846153846,0.8653846153846154,0.7142857142857143,0.8571428571428571,0.0004
244,0.945603996515274,1.7111963033676147,0.6923076923076923,0.8653846153846154,0.5,0.7857142857142857,0.0004
245,1.0349061489105225,1.1031787395477295,0.6923076923076923,0.8653846153846154,0.6428571428571429,0.9285714285714286,0.0004
246,0.9540438652038574,0.93719482421875,0.6730769230769231,0.8653846153846154,0.7142857142857143,0.8571428571428571,0.0004
247,1.0546835660934448,0.9778311252593994,0.6730769230769231,0.8269230769230769,0.6428571428571429,0.7857142857142857,0.0004
248,1.068659484386444,1.0265612602233887,0.6538461538461539,0.8846153846153846,0.7142857142857143,0.8571428571428571,0.0004
249,1.0520559549331665,1.4415817260742188,0.6730769230769231,0.8653846153846154,0.5714285714285714,0.7857142857142857,0.0004
250,1.1865563988685608,1.4434857368469238,0.5576923076923077,0.8653846153846154,0.5714285714285714,0.6428571428571429,0.0004
251,0.9734890460968018,1.145237922668457,0.7307692307692307,0.8269230769230769,0.7142857142857143,0.8571428571428571,0.0004
252,1.0741539001464844,1.5478854179382324,0.6346153846153846,0.8846153846153846,0.5714285714285714,0.5714285714285714,0.0004
253,1.1028291583061218,1.1650283336639404,0.5961538461538461,0.8653846153846154,0.5714285714285714,0.8571428571428571,0.0004
254,1.0660300254821777,1.253703236579895,0.7115384615384616,0.8269230769230769,0.5714285714285714,0.8571428571428571,0.0004
255,1.0928016901016235,1.4782787561416626,0.6730769230769231,0.8846153846153846,0.5714285714285714,0.8571428571428571,0.0004
256,1.101538360118866,1.7581682205200195,0.6730769230769231,0.8269230769230769,0.5714285714285714,0.6428571428571429,0.0004
257,1.0321747064590454,0.9835978746414185,0.7307692307692307,0.8846153846153846,0.6428571428571429,0.8571428571428571,0.0004
258,1.3110591769218445,1.6693811416625977,0.5961538461538461,0.8269230769230769,0.35714285714285715,0.7142857142857143,0.0004
259,1.127514660358429,1.0846832990646362,0.5961538461538461,0.8846153846153846,0.6428571428571429,0.7857142857142857,0.0004
260,1.1056463122367859,1.4169480800628662,0.6346153846153846,0.8461538461538461,0.5,0.6428571428571429,0.0004
261,1.109496295452118,1.0580484867095947,0.6538461538461539,0.8653846153846154,0.7142857142857143,0.7857142857142857,0.0004
262,1.2247426509857178,1.0899254083633423,0.6538461538461539,0.7692307692307693,0.7857142857142857,0.7142857142857143,0.0004
263,1.0657709240913391,1.5436954498291016,0.6153846153846154,0.8653846153846154,0.42857142857142855,0.7857142857142857,0.0004
264,1.0083096325397491,1.1243422031402588,0.6538461538461539,0.8846153846153846,0.5714285714285714,0.8571428571428571,0.0004
265,1.1753677129745483,1.3142704963684082,0.6346153846153846,0.8461538461538461,0.5,0.7142857142857143,0.0004
266,1.0525620579719543,1.3198342323303223,0.6538461538461539,0.8461538461538461,0.5714285714285714,0.7857142857142857,0.0004
267,1.1741138696670532,1.463277816772461,0.6730769230769231,0.7884615384615384,0.5714285714285714,0.7142857142857143,0.0004
268,0.8225187063217163,1.1057933568954468,0.75,0.9038461538461539,0.5714285714285714,0.9285714285714286,0.0004
269,1.0137936472892761,1.2670375108718872,0.6153846153846154,0.8846153846153846,0.5,0.9285714285714286,0.0004
270,1.0538853406906128,1.0958187580108643,0.6923076923076923,0.8461538461538461,0.5714285714285714,0.8571428571428571,0.0004
271,1.357569694519043,1.273892879486084,0.5769230769230769,0.7884615384615384,0.6428571428571429,0.7857142857142857,0.0004
272,1.0331017971038818,0.9747384786605835,0.7115384615384616,0.8846153846153846,0.7142857142857143,0.7142857142857143,0.0004
273,0.9469934701919556,1.5361464023590088,0.7115384615384616,0.8653846153846154,0.6428571428571429,0.6428571428571429,0.0004
274,0.9829517900943756,1.329857349395752,0.6153846153846154,0.8269230769230769,0.5714285714285714,0.7857142857142857,0.0004
275,1.1499273777008057,1.193171501159668,0.6153846153846154,0.8461538461538461,0.6428571428571429,0.7857142857142857,0.0004
276,1.0760266482830048,0.9672170877456665,0.5961538461538461,0.8846153846153846,0.7142857142857143,0.7857142857142857,0.0004
277,1.1796751618385315,0.8084946870803833,0.6346153846153846,0.8461538461538461,0.9285714285714286,0.8571428571428571,0.0004
278,1.2856252789497375,0.8571876287460327,0.6153846153846154,0.8076923076923077,0.8571428571428571,0.8571428571428571,0.0004
279,1.2892882227897644,1.0733585357666016,0.5576923076923077,0.8269230769230769,0.6428571428571429,0.7857142857142857,0.0004
280,1.0156889259815216,1.2942163944244385,0.6153846153846154,0.8653846153846154,0.5,0.8571428571428571,0.0004
281,1.1604015231132507,1.303288459777832,0.6346153846153846,0.8461538461538461,0.6428571428571429,0.7142857142857143,0.0004
282,1.07770574092865,1.0807048082351685,0.6346153846153846,0.8653846153846154,0.42857142857142855,0.9285714285714286,0.0004
283,0.889861524105072,1.078113079071045,0.7307692307692307,0.9038461538461539,0.6428571428571429,0.7857142857142857,0.0004
284,1.0785867273807526,1.1076490879058838,0.6730769230769231,0.9038461538461539,0.6428571428571429,0.8571428571428571,0.0004
285,1.1142117977142334,1.0526156425476074,0.6730769230769231,0.8846153846153846,0.7142857142857143,0.7857142857142857,0.0004
286,1.1491541862487793,1.6098668575286865,0.6538461538461539,0.7692307692307693,0.5,0.7142857142857143,0.0004
287,0.9495127201080322,1.2420015335083008,0.6923076923076923,0.8653846153846154,0.5714285714285714,0.8571428571428571,0.0004
288,0.973784863948822,1.2859270572662354,0.7115384615384616,0.9038461538461539,0.6428571428571429,0.6428571428571429,0.0004
289,1.0980718433856964,1.4605765342712402,0.6730769230769231,0.7884615384615384,0.6428571428571429,0.7857142857142857,0.0004
290,1.0594810545444489,1.2639644145965576,0.6346153846153846,0.8846153846153846,0.6428571428571429,0.7857142857142857,0.0004
291,1.2018686532974243,1.052066683769226,0.6153846153846154,0.8461538461538461,0.7142857142857143,0.8571428571428571,0.0004
292,1.010995626449585,1.56776762008667,0.7692307692307693,0.8653846153846154,0.35714285714285715,0.7857142857142857,0.0004
293,1.0157266557216644,1.4381964206695557,0.7307692307692307,0.8653846153846154,0.5,0.8571428571428571,0.0004
294,1.0334571301937103,0.9874439239501953,0.7307692307692307,0.8846153846153846,0.7142857142857143,0.9285714285714286,0.0004
295,1.1367112696170807,1.2570469379425049,0.7307692307692307,0.8653846153846154,0.5,0.7857142857142857,0.0004
296,1.0174800157546997,1.607574701309204,0.7115384615384616,0.7884615384615384,0.42857142857142855,0.7142857142857143,0.0004
297,1.0262121260166168,1.2177479267120361,0.7692307692307693,0.8846153846153846,0.42857142857142855,0.8571428571428571,0.0004
298,0.9295549392700195,0.9210391044616699,0.75,0.8653846153846154,0.5714285714285714,1.0,0.0004
299,1.1728033423423767,1.029820442199707,0.6153846153846154,0.8269230769230769,0.7857142857142857,0.7857142857142857,0.0004
300,1.2208339273929596,1.2988094091415405,0.6730769230769231,0.8653846153846154,0.5,0.8571428571428571,0.0004
301,1.0969029664993286,1.1840225458145142,0.6538461538461539,0.8269230769230769,0.5714285714285714,0.8571428571428571,0.0004
302,0.7886780798435211,1.225852608680725,0.7307692307692307,0.8846153846153846,0.6428571428571429,0.8571428571428571,0.0004
303,1.3840094804763794,1.4690438508987427,0.5961538461538461,0.7884615384615384,0.5,0.7857142857142857,0.0004
304,1.0742008090019226,1.0491217374801636,0.7307692307692307,0.8076923076923077,0.5714285714285714,0.9285714285714286,0.0004
305,1.0814613103866577,0.9442403316497803,0.6923076923076923,0.8461538461538461,0.5714285714285714,0.9285714285714286,0.0004
306,0.9461111128330231,1.0487761497497559,0.7307692307692307,0.8846153846153846,0.7142857142857143,0.8571428571428571,0.0004
307,1.1342804431915283,1.4559388160705566,0.6153846153846154,0.8269230769230769,0.5,0.7142857142857143,0.0004
308,0.9465627670288086,1.8719689846038818,0.7115384615384616,0.8461538461538461,0.21428571428571427,0.8571428571428571,0.0004
309,1.0713669657707214,1.235689401626587,0.6538461538461539,0.9038461538461539,0.5714285714285714,0.7142857142857143,0.0004
310,1.0823942422866821,1.1072182655334473,0.6923076923076923,0.9230769230769231,0.5714285714285714,0.6428571428571429,0.0004
311,1.1011298894882202,0.860202968120575,0.6923076923076923,0.8846153846153846,0.7142857142857143,0.8571428571428571,0.0004
312,1.3516216278076172,1.066733479499817,0.5576923076923077,0.8461538461538461,0.7857142857142857,0.8571428571428571,0.0004
313,1.0663698315620422,1.4926342964172363,0.6538461538461539,0.8846153846153846,0.5714285714285714,0.7142857142857143,0.0004
314,0.9634190499782562,1.3345203399658203,0.7115384615384616,0.8653846153846154,0.5714285714285714,0.7857142857142857,0.0004
315,1.049129605293274,1.576545238494873,0.6538461538461539,0.8653846153846154,0.5714285714285714,0.6428571428571429,0.0004
316,1.067434847354889,1.3373421430587769,0.7115384615384616,0.8461538461538461,0.5714285714285714,0.7857142857142857,0.0004
317,1.057858943939209,1.350128173828125,0.6923076923076923,0.8269230769230769,0.5,0.8571428571428571,0.0004
318,1.1354418694972992,0.9454119205474854,0.6346153846153846,0.8653846153846154,0.6428571428571429,0.8571428571428571,0.0004
319,1.1487672328948975,1.382286548614502,0.6346153846153846,0.8461538461538461,0.6428571428571429,0.7142857142857143,0.0004
320,1.1363608837127686,1.323732614517212,0.5961538461538461,0.8269230769230769,0.5714285714285714,0.7142857142857143,0.0004
321,0.9883057475090027,1.106781005859375,0.6538461538461539,0.8653846153846154,0.7857142857142857,0.7142857142857143,0.0004
322,1.087624728679657,0.9685410261154175,0.6538461538461539,0.9038461538461539,0.7857142857142857,0.7857142857142857,0.0004
323,1.1811233758926392,1.172311544418335,0.6346153846153846,0.8653846153846154,0.7142857142857143,0.7142857142857143,0.0004
324,1.0980565547943115,1.5700650215148926,0.6730769230769231,0.8076923076923077,0.42857142857142855,0.7857142857142857,0.0004
325,0.9877215325832367,1.0144234895706177,0.7115384615384616,0.8846153846153846,0.7142857142857143,0.9285714285714286,0.0004
326,1.1983850598335266,1.2005952596664429,0.6346153846153846,0.7692307692307693,0.7142857142857143,0.7857142857142857,0.0004
327,0.9153243601322174,1.3996493816375732,0.7692307692307693,0.8076923076923077,0.35714285714285715,0.7142857142857143,0.0004
328,1.131605863571167,0.9635279178619385,0.6730769230769231,0.9038461538461539,0.7142857142857143,0.7857142857142857,0.0004
329,0.9999916553497314,0.6832016706466675,0.6538461538461539,0.8846153846153846,0.8571428571428571,0.9285714285714286,0.0004
330,1.1109912991523743,1.1811456680297852,0.6153846153846154,0.9038461538461539,0.5,0.8571428571428571,0.0004
331,1.0305203795433044,1.458453893661499,0.6346153846153846,0.8461538461538461,0.5714285714285714,0.7857142857142857,0.0004
332,1.2231196165084839,1.5185517072677612,0.5961538461538461,0.8269230769230769,0.35714285714285715,0.8571428571428571,0.0004
333,1.0461130738258362,1.309965968132019,0.6923076923076923,0.8269230769230769,0.5714285714285714,0.9285714285714286,0.0004
334,0.8959623575210571,1.2068541049957275,0.7115384615384616,0.9230769230769231,0.6428571428571429,0.8571428571428571,0.0004
335,1.035018801689148,1.270613670349121,0.7307692307692307,0.8076923076923077,0.5714285714285714,0.8571428571428571,0.0004
336,1.0757899284362793,1.0757558345794678,0.6730769230769231,0.8653846153846154,0.5714285714285714,0.7142857142857143,0.0004
337,1.2213736772537231,0.9483716487884521,0.5576923076923077,0.8653846153846154,0.5714285714285714,1.0,0.0004
338,1.0478485524654388,0.8805285692214966,0.6730769230769231,0.9230769230769231,0.7142857142857143,0.7857142857142857,0.0004
339,1.104994773864746,0.9069558382034302,0.6346153846153846,0.8269230769230769,0.7857142857142857,0.7857142857142857,0.0004
340,0.9403426051139832,1.3959548473358154,0.6923076923076923,0.8846153846153846,0.5,0.8571428571428571,0.0004
341,1.0835857391357422,1.0167195796966553,0.6346153846153846,0.8653846153846154,0.6428571428571429,0.8571428571428571,0.0004
342,1.0188669562339783,1.0875520706176758,0.6153846153846154,0.9038461538461539,0.7142857142857143,0.8571428571428571,0.0004
343,1.058146059513092,1.2116572856903076,0.6730769230769231,0.8269230769230769,0.5,0.9285714285714286,0.0004
344,1.1129240691661835,0.9030992984771729,0.7115384615384616,0.8269230769230769,0.7142857142857143,0.8571428571428571,0.0004
345,1.0668267607688904,1.7990245819091797,0.6730769230769231,0.8269230769230769,0.42857142857142855,0.6428571428571429,0.0004
346,1.059992790222168,1.4539130926132202,0.6346153846153846,0.8846153846153846,0.5,0.7857142857142857,0.0004
347,1.1597365140914917,0.9391371011734009,0.6153846153846154,0.8461538461538461,0.7857142857142857,0.8571428571428571,0.0004
348,0.9420824348926544,1.046013355255127,0.6923076923076923,0.9038461538461539,0.6428571428571429,0.8571428571428571,0.0004
349,1.0966505408287048,0.7353938817977905,0.6538461538461539,0.9038461538461539,0.8571428571428571,0.8571428571428571,0.0004
350,0.8922766447067261,1.1447187662124634,0.6923076923076923,0.8461538461538461,0.5714285714285714,0.9285714285714286,0.0004
351,1.1688909530639648,1.7934765815734863,0.5576923076923077,0.8461538461538461,0.2857142857142857,0.7142857142857143,0.0004
352,1.2540095448493958,0.7016302347183228,0.6153846153846154,0.8461538461538461,0.8571428571428571,1.0,0.0004
353,1.0503431856632233,1.4143807888031006,0.6923076923076923,0.9230769230769231,0.42857142857142855,0.8571428571428571,0.0004
354,0.9550296068191528,1.4224108457565308,0.7115384615384616,0.8846153846153846,0.5,0.8571428571428571,0.0004
355,0.984571248292923,1.3261289596557617,0.6923076923076923,0.8461538461538461,0.5714285714285714,0.7857142857142857,0.0004
356,1.1222286820411682,1.2550287246704102,0.6730769230769231,0.8461538461538461,0.6428571428571429,0.7857142857142857,0.0004
357,1.056004136800766,1.8910163640975952,0.5769230769230769,0.9038461538461539,0.5,0.7142857142857143,0.0004
358,0.9064547419548035,1.566938877105713,0.7692307692307693,0.8846153846153846,0.5714285714285714,0.7142857142857143,0.0004
359,0.781925767660141,0.7532323598861694,0.7884615384615384,0.8653846153846154,0.7142857142857143,0.8571428571428571,0.0004
360,0.9687280058860779,1.4621151685714722,0.6923076923076923,0.9615384615384616,0.5714285714285714,0.8571428571428571,0.0004
361,1.180576205253601,1.146657943725586,0.6730769230769231,0.8846153846153846,0.42857142857142855,1.0,0.0004
362,1.3911641240119934,1.6366028785705566,0.6923076923076923,0.7884615384615384,0.5714285714285714,0.6428571428571429,0.0004
363,1.2000177502632141,1.0173430442810059,0.6730769230769231,0.8269230769230769,0.7857142857142857,0.7857142857142857,0.0004
364,1.1496187150478363,1.571413516998291,0.5961538461538461,0.8846153846153846,0.42857142857142855,0.7857142857142857,0.0004
365,1.2751421332359314,1.3242995738983154,0.6346153846153846,0.8269230769230769,0.5,0.8571428571428571,0.0004
366,1.006488025188446,1.232113003730774,0.6153846153846154,0.9038461538461539,0.5,0.9285714285714286,0.0004
367,1.1859529316425323,1.5587832927703857,0.6538461538461539,0.8653846153846154,0.5714285714285714,0.7142857142857143,0.0004
368,1.3573629260063171,1.5240223407745361,0.5384615384615384,0.8461538461538461,0.5,0.7142857142857143,0.0004
369,1.2386130094528198,1.5116934776306152,0.6538461538461539,0.8269230769230769,0.5,0.7857142857142857,0.0004
370,1.3231374025344849,1.6548819541931152,0.5961538461538461,0.8461538461538461,0.5,0.6428571428571429,0.0004
371,1.0010261535644531,0.9093959927558899,0.6538461538461539,0.9230769230769231,0.7857142857142857,0.7857142857142857,0.0004
372,1.0715502500534058,1.5635507106781006,0.6538461538461539,0.8846153846153846,0.42857142857142855,0.7857142857142857,0.0004
373,0.9680562019348145,1.4251768589019775,0.7692307692307693,0.8269230769230769,0.5714285714285714,0.6428571428571429,0.0004
374,1.0752911567687988,1.2616007328033447,0.6153846153846154,0.8846153846153846,0.5714285714285714,0.7142857142857143,0.0004
375,1.1201545596122742,1.495448350906372,0.7307692307692307,0.8461538461538461,0.5,0.7142857142857143,0.0004
376,1.0722219347953796,1.1657148599624634,0.6730769230769231,0.8653846153846154,0.5714285714285714,0.8571428571428571,0.0004
377,1.2529208660125732,1.4075678586959839,0.6153846153846154,0.8076923076923077,0.6428571428571429,0.5714285714285714,0.0004
378,1.1815326809883118,1.0928248167037964,0.6346153846153846,0.8076923076923077,0.6428571428571429,0.8571428571428571,0.0004
379,1.0824880003929138,1.7988874912261963,0.7307692307692307,0.8653846153846154,0.42857142857142855,0.5714285714285714,0.0004
380,1.0935350060462952,1.2564527988433838,0.6923076923076923,0.9230769230769231,0.5,0.7857142857142857,0.0004
381,1.0629315972328186,1.4654062986373901,0.6538461538461539,0.8846153846153846,0.5,0.7142857142857143,0.0004
382,1.1990875005722046,1.3691761493682861,0.5769230769230769,0.8653846153846154,0.6428571428571429,0.7142857142857143,0.0004
383,0.9970010221004486,0.8095744848251343,0.6923076923076923,0.8461538461538461,0.7857142857142857,0.7857142857142857,0.0004
384,1.1682815551757812,1.3536781072616577,0.5769230769230769,0.8269230769230769,0.5714285714285714,0.7142857142857143,0.0004
385,1.0540608763694763,1.2859055995941162,0.6346153846153846,0.8846153846153846,0.5714285714285714,0.7142857142857143,0.0004
386,1.1167494058609009,1.324832797050476,0.6538461538461539,0.8269230769230769,0.6428571428571429,0.7857142857142857,0.0004
387,1.4082024097442627,0.9422284364700317,0.5961538461538461,0.7884615384615384,0.6428571428571429,0.9285714285714286,0.0004
388,1.1865928173065186,1.2691340446472168,0.6538461538461539,0.8653846153846154,0.5,0.8571428571428571,0.0004
389,1.1878758072853088,1.0566493272781372,0.6153846153846154,0.8076923076923077,0.5,0.9285714285714286,0.0004
390,1.0146913826465607,1.409658432006836,0.6538461538461539,0.8653846153846154,0.5,0.7857142857142857,0.0004
391,1.1732591390609741,1.2261861562728882,0.6730769230769231,0.8076923076923077,0.6428571428571429,0.8571428571428571,0.0004
392,1.012158989906311,1.16413152217865,0.6923076923076923,0.9423076923076923,0.6428571428571429,0.8571428571428571,0.0004
393,1.0528552532196045,1.05588698387146,0.6730769230769231,0.8846153846153846,0.5714285714285714,1.0,0.0004
394,1.0129258036613464,1.4312310218811035,0.6538461538461539,0.9230769230769231,0.5,0.7142857142857143,0.0004
395,1.1582011580467224,1.2342571020126343,0.6153846153846154,0.8846153846153846,0.42857142857142855,0.9285714285714286,0.0004
396,1.1387091279029846,1.1007168292999268,0.5384615384615384,0.8461538461538461,0.6428571428571429,0.7857142857142857,0.0004
397,1.1226198077201843,1.1575186252593994,0.6346153846153846,0.8653846153846154,0.7142857142857143,0.7142857142857143,0.0004
398,1.0061829090118408,1.3721928596496582,0.6346153846153846,0.9038461538461539,0.5714285714285714,0.7142857142857143,0.0004
399,0.9566804766654968,1.1258147954940796,0.7115384615384616,0.8653846153846154,0.5714285714285714,0.7857142857142857,0.0004
400,1.0389149188995361,1.353868007659912,0.6538461538461539,0.8846153846153846,0.5714285714285714,0.7142857142857143,0.0004
401,1.040753185749054,1.3325319290161133,0.6538461538461539,0.9038461538461539,0.5714285714285714,0.8571428571428571,0.0004
402,0.9517852663993835,1.6509532928466797,0.6923076923076923,0.8846153846153846,0.42857142857142855,0.7142857142857143,0.0004
403,1.2189813256263733,1.5763887166976929,0.5961538461538461,0.8461538461538461,0.42857142857142855,0.6428571428571429,0.0004
404,0.9586524069309235,1.5104374885559082,0.7692307692307693,0.8653846153846154,0.5,0.7857142857142857,0.0004
405,1.0588011741638184,1.3339653015136719,0.6346153846153846,0.8461538461538461,0.6428571428571429,0.7857142857142857,0.0004
406,0.9316340088844299,0.9491637349128723,0.7692307692307693,0.8653846153846154,0.6428571428571429,0.8571428571428571,0.0004
407,1.002622127532959,1.00386643409729,0.7692307692307693,0.9038461538461539,0.7142857142857143,0.6428571428571429,0.0004
408,0.971260130405426,1.0361268520355225,0.6923076923076923,0.9038461538461539,0.7142857142857143,0.7857142857142857,0.0004
409,1.1510053277015686,0.844260036945343,0.6730769230769231,0.7692307692307693,0.6428571428571429,1.0,0.0004
410,1.0738904178142548,0.8555483818054199,0.6346153846153846,0.8269230769230769,0.6428571428571429,1.0,0.0004
411,1.031373381614685,1.1392781734466553,0.6923076923076923,0.9038461538461539,0.6428571428571429,0.7857142857142857,0.0004
412,1.1521019339561462,1.2516636848449707,0.6538461538461539,0.8653846153846154,0.6428571428571429,0.7857142857142857,0.0004
413,1.2539863586425781,0.8297908306121826,0.6923076923076923,0.8269230769230769,0.7857142857142857,0.7857142857142857,0.0004
414,0.9646545648574829,0.9545080065727234,0.7115384615384616,0.8846153846153846,0.7142857142857143,0.8571428571428571,0.0004
415,1.0695571899414062,1.5501329898834229,0.6346153846153846,0.9038461538461539,0.42857142857142855,0.5714285714285714,0.0004
416,1.0314715504646301,1.1002142429351807,0.6730769230769231,0.9038461538461539,0.6428571428571429,0.7857142857142857,0.0004
417,0.8765572309494019,1.4439525604248047,0.6730769230769231,0.9038461538461539,0.42857142857142855,0.7142857142857143,0.0004
418,0.8723991811275482,1.2258508205413818,0.7692307692307693,0.8846153846153846,0.5714285714285714,0.7857142857142857,0.0004
419,1.0272995829582214,1.2605268955230713,0.6730769230769231,0.8846153846153846,0.6428571428571429,0.6428571428571429,0.0004
420,1.0372636318206787,1.2646186351776123,0.6923076923076923,0.9038461538461539,0.5,0.7857142857142857,0.0004
421,1.0499541461467743,0.9949179887771606,0.6346153846153846,0.9038461538461539,0.7142857142857143,0.7857142857142857,0.0004
422,1.1329706907272339,1.4122962951660156,0.6730769230769231,0.8653846153846154,0.42857142857142855,0.8571428571428571,0.0004
423,0.9457761943340302,1.223264217376709,0.6730769230769231,0.9423076923076923,0.5,0.8571428571428571,0.0004
424,0.9916149079799652,0.8921257257461548,0.7692307692307693,0.9230769230769231,0.6428571428571429,0.8571428571428571,0.0004
425,0.9619238376617432,1.0644359588623047,0.6923076923076923,0.8461538461538461,0.7142857142857143,0.7142857142857143,0.0004
426,1.2100717425346375,1.5034077167510986,0.7115384615384616,0.8269230769230769,0.5714285714285714,0.6428571428571429,0.0004
427,0.9432907104492188,0.9430886507034302,0.7115384615384616,0.8653846153846154,0.8571428571428571,0.7857142857142857,0.0004
428,1.0642627477645874,1.390019416809082,0.6346153846153846,0.8461538461538461,0.5714285714285714,0.8571428571428571,0.0004
429,1.093473643064499,1.3661530017852783,0.6346153846153846,0.8846153846153846,0.6428571428571429,0.7142857142857143,0.0004
430,1.034997671842575,0.7797679901123047,0.6730769230769231,0.8461538461538461,0.7857142857142857,0.8571428571428571,0.0004
431,1.0607280135154724,1.296210527420044,0.6923076923076923,0.8653846153846154,0.5,0.7857142857142857,0.0004
432,1.15367990732193,1.4403562545776367,0.6346153846153846,0.8269230769230769,0.5714285714285714,0.7142857142857143,0.0004
433,1.0367087423801422,1.2778446674346924,0.6346153846153846,0.9038461538461539,0.6428571428571429,0.7857142857142857,0.0004
434,0.9798822700977325,1.2173937559127808,0.7307692307692307,0.8653846153846154,0.35714285714285715,0.8571428571428571,0.0004
435,1.147142231464386,0.7735984921455383,0.6153846153846154,0.8076923076923077,0.7142857142857143,0.9285714285714286,0.0004
436,0.8269131183624268,1.3007851839065552,0.8076923076923077,0.9423076923076923,0.6428571428571429,0.7857142857142857,0.0004
437,1.0720666944980621,1.5573537349700928,0.7115384615384616,0.8846153846153846,0.5,0.7857142857142857,0.0004
438,0.9144158959388733,1.146684169769287,0.6730769230769231,0.9038461538461539,0.5714285714285714,0.7142857142857143,0.0004
439,1.2789674401283264,1.305567979812622,0.5192307692307693,0.8653846153846154,0.5,0.7857142857142857,0.0004
440,1.1606541275978088,1.2855768203735352,0.6153846153846154,0.8461538461538461,0.5,0.7142857142857143,0.0004
441,1.0497961044311523,1.8506536483764648,0.7307692307692307,0.8269230769230769,0.2857142857142857,0.6428571428571429,0.0004
442,0.8612869381904602,1.573547124862671,0.7307692307692307,0.9423076923076923,0.35714285714285715,0.7857142857142857,0.0004
443,1.071397840976715,0.823858916759491,0.6730769230769231,0.8461538461538461,0.7857142857142857,0.9285714285714286,0.0004
444,0.8770077228546143,2.115928888320923,0.75,0.9230769230769231,0.35714285714285715,0.5,0.0004
445,1.200034260749817,1.3694860935211182,0.7115384615384616,0.7692307692307693,0.5,0.8571428571428571,0.0004
446,1.198573648929596,1.3161871433258057,0.6730769230769231,0.8461538461538461,0.5714285714285714,0.7857142857142857,0.0004
447,0.8841417133808136,1.1723003387451172,0.7115384615384616,0.9038461538461539,0.7857142857142857,0.7142857142857143,0.0004
448,1.242353916168213,1.612055778503418,0.6153846153846154,0.8461538461538461,0.5,0.6428571428571429,0.0004
449,0.9098919332027435,1.2665166854858398,0.75,0.8653846153846154,0.6428571428571429,0.6428571428571429,0.0004
450,1.0778555274009705,1.304221749305725,0.6730769230769231,0.8461538461538461,0.5714285714285714,0.7142857142857143,0.0004
451,1.0320114493370056,1.1845051050186157,0.7115384615384616,0.8846153846153846,0.7857142857142857,0.7142857142857143,0.0004
452,1.1001555919647217,1.6920032501220703,0.7115384615384616,0.7884615384615384,0.5714285714285714,0.6428571428571429,0.0004
453,1.1289620399475098,1.160811185836792,0.6730769230769231,0.8076923076923077,0.6428571428571429,0.8571428571428571,0.0004
454,1.1411648392677307,1.5945360660552979,0.6346153846153846,0.8653846153846154,0.5714285714285714,0.5714285714285714,0.0004
455,1.177806794643402,1.232832431793213,0.6153846153846154,0.8269230769230769,0.6428571428571429,0.7857142857142857,0.0004
456,1.2356669902801514,1.3279540538787842,0.6153846153846154,0.7884615384615384,0.5,0.7142857142857143,0.0004
457,1.174818515777588,1.1967344284057617,0.6346153846153846,0.8076923076923077,0.5714285714285714,0.8571428571428571,0.0004
458,1.0134283304214478,0.860397219657898,0.6730769230769231,0.8846153846153846,0.7142857142857143,0.8571428571428571,0.0004
459,1.1271341443061829,1.0865826606750488,0.6730769230769231,0.8461538461538461,0.7142857142857143,0.7857142857142857,0.0004
460,1.049441933631897,1.072677731513977,0.5769230769230769,0.8653846153846154,0.6428571428571429,0.9285714285714286,0.0004
461,0.9644008278846741,1.123921275138855,0.75,0.8653846153846154,0.6428571428571429,0.6428571428571429,0.0004
462,0.9007497131824493,0.926885724067688,0.8269230769230769,0.8653846153846154,0.6428571428571429,0.8571428571428571,0.0004
463,1.18858802318573,1.3469102382659912,0.6923076923076923,0.8269230769230769,0.5714285714285714,0.7142857142857143,0.0004
464,1.1435405015945435,1.0339264869689941,0.6730769230769231,0.7884615384615384,0.7142857142857143,0.7142857142857143,0.0004
465,0.9705246686935425,1.2336292266845703,0.7307692307692307,0.8076923076923077,0.6428571428571429,0.7857142857142857,0.0004
466,0.8717687427997589,1.5546587705612183,0.7307692307692307,0.9230769230769231,0.5,0.5714285714285714,0.0004
467,1.104414939880371,1.1363849639892578,0.6538461538461539,0.8076923076923077,0.6428571428571429,0.8571428571428571,0.0004
468,1.2140775322914124,0.8156718015670776,0.6730769230769231,0.8076923076923077,0.7142857142857143,0.8571428571428571,0.0004
469,1.034054160118103,0.9876275062561035,0.6538461538461539,0.8269230769230769,0.7142857142857143,0.8571428571428571,0.0004
470,1.1172977685928345,0.7568202614784241,0.6730769230769231,0.8076923076923077,0.7142857142857143,0.9285714285714286,0.0004
471,0.9419710636138916,1.3059308528900146,0.6538461538461539,0.8461538461538461,0.5714285714285714,0.7142857142857143,0.0004
472,1.0147310495376587,0.939236044883728,0.7307692307692307,0.8846153846153846,0.7142857142857143,0.7857142857142857,0.0004
473,0.9690048694610596,1.0697566270828247,0.7307692307692307,0.8653846153846154,0.5714285714285714,0.9285714285714286,0.0004
474,0.9637597799301147,1.2087539434432983,0.7115384615384616,0.9038461538461539,0.6428571428571429,0.7142857142857143,0.0004
475,1.0123212933540344,1.3893616199493408,0.7115384615384616,0.8461538461538461,0.5714285714285714,0.7142857142857143,0.0004
476,0.9912081658840179,1.1098676919937134,0.6730769230769231,0.8846153846153846,0.5714285714285714,0.7857142857142857,0.0004
477,1.1798929572105408,1.4100085496902466,0.6346153846153846,0.7884615384615384,0.35714285714285715,0.8571428571428571,0.0004
478,0.9362198710441589,1.301976203918457,0.75,0.8846153846153846,0.42857142857142855,0.9285714285714286,0.0004
479,1.0861737132072449,1.2323495149612427,0.6153846153846154,0.8846153846153846,0.35714285714285715,0.9285714285714286,0.0004
480,1.1383367478847504,1.2037347555160522,0.6923076923076923,0.7884615384615384,0.42857142857142855,0.7857142857142857,0.0004
481,0.9471498429775238,1.3287701606750488,0.7307692307692307,0.9230769230769231,0.5,0.8571428571428571,0.0004
482,1.1059377789497375,0.907318651676178,0.6153846153846154,0.9038461538461539,0.6428571428571429,0.8571428571428571,0.0004
483,0.9841087460517883,0.8419673442840576,0.6346153846153846,0.9230769230769231,0.5714285714285714,1.0,0.0004
484,1.063811033964157,1.0301496982574463,0.6923076923076923,0.8461538461538461,0.6428571428571429,0.7857142857142857,0.0004
485,1.1001697778701782,1.0035377740859985,0.6538461538461539,0.8846153846153846,0.7142857142857143,0.8571428571428571,0.0004
486,0.94876828789711,1.1055134534835815,0.7307692307692307,0.9230769230769231,0.7142857142857143,0.8571428571428571,0.0004
487,1.0476873815059662,1.0384962558746338,0.6923076923076923,0.8269230769230769,0.6428571428571429,0.8571428571428571,0.0004
488,0.9412792325019836,1.0593626499176025,0.6923076923076923,0.8653846153846154,0.6428571428571429,0.9285714285714286,0.0004
489,1.150923252105713,1.2799072265625,0.5961538461538461,0.8846153846153846,0.5714285714285714,0.8571428571428571,0.0004
490,1.2183191776275635,0.9736063480377197,0.6923076923076923,0.8461538461538461,0.7142857142857143,0.9285714285714286,0.0004
491,1.0230749547481537,0.9272717237472534,0.6346153846153846,0.9038461538461539,0.5714285714285714,0.9285714285714286,0.0004
492,1.1733197569847107,0.8904796838760376,0.6730769230769231,0.8846153846153846,0.7142857142857143,0.7857142857142857,0.0004
493,1.02424955368042,1.525132179260254,0.6538461538461539,0.8461538461538461,0.5,0.7142857142857143,0.0004
494,0.9318149089813232,1.531203031539917,0.7307692307692307,0.8846153846153846,0.5,0.7142857142857143,0.0004
495,0.9949123859405518,1.3022586107254028,0.7307692307692307,0.8653846153846154,0.5714285714285714,0.7857142857142857,0.0004
496,1.141341745853424,1.4066455364227295,0.6346153846153846,0.8461538461538461,0.42857142857142855,0.7857142857142857,0.0004
497,1.097873568534851,1.1085991859436035,0.6346153846153846,0.8461538461538461,0.6428571428571429,0.7857142857142857,0.0004
498,0.9977841079235077,1.2670221328735352,0.6538461538461539,0.9038461538461539,0.7142857142857143,0.7142857142857143,0.0004
499,1.0279390811920166,1.5895622968673706,0.6923076923076923,0.8461538461538461,0.5,0.7142857142857143,0.0004
500,0.8478152751922607,0.9392480850219727,0.75,0.8846153846153846,0.7142857142857143,0.8571428571428571,0.0004
501,1.1499945223331451,0.9276537895202637,0.6730769230769231,0.8461538461538461,0.7142857142857143,0.9285714285714286,0.0004
502,1.2669245600700378,1.6000216007232666,0.6538461538461539,0.7884615384615384,0.7142857142857143,0.5714285714285714,0.0004
503,1.056481122970581,1.2049744129180908,0.6923076923076923,0.7884615384615384,0.6428571428571429,0.7857142857142857,0.0004
504,0.983382374048233,1.5808519124984741,0.6730769230769231,0.8653846153846154,0.5714285714285714,0.6428571428571429,0.0004
505,0.9232175648212433,1.5121228694915771,0.7884615384615384,0.9038461538461539,0.5714285714285714,0.6428571428571429,0.0004
506,0.8956579864025116,1.306323766708374,0.75,0.9230769230769231,0.7857142857142857,0.6428571428571429,0.0004
507,0.9473627805709839,0.9529403448104858,0.7884615384615384,0.8846153846153846,0.7857142857142857,0.8571428571428571,0.0004
508,0.9733058214187622,1.480468988418579,0.5961538461538461,0.9230769230769231,0.5714285714285714,0.7142857142857143,0.0004
509,1.1790838241577148,0.8575512170791626,0.7115384615384616,0.8461538461538461,0.7142857142857143,0.9285714285714286,0.0004
510,0.9726742208003998,1.6681230068206787,0.6346153846153846,0.9038461538461539,0.5,0.7142857142857143,0.0004
511,0.9532855153083801,1.275760293006897,0.7307692307692307,0.9230769230769231,0.5,0.7142857142857143,0.0004
512,0.971080482006073,1.34221351146698,0.6730769230769231,0.9038461538461539,0.5,0.7857142857142857,0.0004
513,0.9478810727596283,1.4455699920654297,0.75,0.8653846153846154,0.5714285714285714,0.6428571428571429,0.0004
514,0.9887950420379639,1.2407938241958618,0.7307692307692307,0.8846153846153846,0.5714285714285714,0.7857142857142857,0.0004
515,1.127794623374939,1.1975219249725342,0.6923076923076923,0.8461538461538461,0.5,0.8571428571428571,0.0004
516,1.2556352019309998,1.170484185218811,0.6346153846153846,0.8269230769230769,0.7857142857142857,0.7857142857142857,0.0004
517,1.0949567556381226,1.1817710399627686,0.6923076923076923,0.8269230769230769,0.7142857142857143,0.7857142857142857,0.0004
518,0.9093826115131378,1.4300501346588135,0.7884615384615384,0.9038461538461539,0.5,0.7857142857142857,0.0004
519,0.9475269317626953,1.5648236274719238,0.6923076923076923,0.8653846153846154,0.6428571428571429,0.7142857142857143,0.0004
520,1.0315518379211426,1.3571748733520508,0.6730769230769231,0.8653846153846154,0.5714285714285714,0.7142857142857143,0.0004
521,0.9961172938346863,1.34212064743042,0.75,0.8846153846153846,0.5,0.8571428571428571,0.0004
522,0.8476388454437256,0.8137423396110535,0.7884615384615384,0.8653846153846154,0.7857142857142857,0.8571428571428571,0.0004
523,1.2063515186309814,1.4090914726257324,0.6730769230769231,0.8269230769230769,0.6428571428571429,0.7142857142857143,0.0004
524,1.0658224821090698,1.3306093215942383,0.7307692307692307,0.8076923076923077,0.5714285714285714,0.7142857142857143,0.0004
525,0.7543267011642456,1.1960978507995605,0.7692307692307693,0.9230769230769231,0.7142857142857143,0.7142857142857143,0.0004
526,0.9921897649765015,1.1321673393249512,0.7307692307692307,0.8846153846153846,0.5714285714285714,0.7142857142857143,0.0004
527,0.996863842010498,0.8690718412399292,0.7115384615384616,0.8269230769230769,0.8571428571428571,0.7142857142857143,0.0004
528,1.0709424018859863,0.9074456095695496,0.6730769230769231,0.8653846153846154,0.5714285714285714,1.0,0.0004
529,1.174752414226532,1.4554016590118408,0.6153846153846154,0.8653846153846154,0.6428571428571429,0.6428571428571429,0.0004
530,1.0406227707862854,1.6021530628204346,0.6730769230769231,0.8461538461538461,0.5,0.6428571428571429,0.0004
531,0.9509567618370056,0.961698055267334,0.6923076923076923,0.9038461538461539,0.7857142857142857,0.8571428571428571,0.0004
532,0.9505503177642822,0.8048901557922363,0.7115384615384616,0.8846153846153846,0.7857142857142857,0.8571428571428571,0.0004
533,1.1096574664115906,1.6096389293670654,0.6538461538461539,0.8461538461538461,0.42857142857142855,0.7142857142857143,0.0004
534,0.9094464778900146,1.252017617225647,0.7307692307692307,0.8846153846153846,0.6428571428571429,0.7142857142857143,0.0004
535,0.9817951321601868,1.322688102722168,0.75,0.8076923076923077,0.7142857142857143,0.8571428571428571,0.0004
536,1.167553186416626,1.2372024059295654,0.6730769230769231,0.8846153846153846,0.6428571428571429,0.7857142857142857,0.0004
537,0.9974024891853333,1.1922354698181152,0.6153846153846154,0.9423076923076923,0.7142857142857143,0.7142857142857143,0.0004
538,0.9996374249458313,1.0498878955841064,0.6923076923076923,0.9038461538461539,0.6428571428571429,0.8571428571428571,0.0004
539,1.0940158367156982,1.299441933631897,0.7115384615384616,0.8269230769230769,0.5714285714285714,0.8571428571428571,0.0004
540,0.8985464572906494,1.1220991611480713,0.6730769230769231,0.8846153846153846,0.7142857142857143,0.7857142857142857,0.0004
541,1.1479021310806274,1.4086970090866089,0.6346153846153846,0.8461538461538461,0.5714285714285714,0.7142857142857143,0.0004
542,1.0546259582042694,1.1561496257781982,0.7692307692307693,0.8653846153846154,0.5714285714285714,0.7857142857142857,0.0004
543,1.0292204022407532,1.020758032798767,0.7115384615384616,0.9038461538461539,0.6428571428571429,0.7857142857142857,0.0004
544,0.9538887739181519,1.2832382917404175,0.7115384615384616,0.8461538461538461,0.6428571428571429,0.7857142857142857,0.0004
545,1.1291858553886414,1.3471827507019043,0.6346153846153846,0.8653846153846154,0.5,0.7857142857142857,0.0004
546,1.0770155787467957,1.485744595527649,0.75,0.8846153846153846,0.5714285714285714,0.6428571428571429,0.0004
547,1.0745600163936615,1.6480573415756226,0.6730769230769231,0.8653846153846154,0.5714285714285714,0.5,0.0004
548,1.2813414335250854,0.8451772928237915,0.5961538461538461,0.8269230769230769,0.7142857142857143,0.8571428571428571,0.0004
549,0.8064053058624268,1.5908823013305664,0.8076923076923077,0.9038461538461539,0.6428571428571429,0.5714285714285714,0.0004
550,0.9160198271274567,1.6821836233139038,0.7115384615384616,0.9230769230769231,0.5714285714285714,0.5714285714285714,0.0004
551,1.0517380237579346,1.2237844467163086,0.6730769230769231,0.8653846153846154,0.6428571428571429,0.7142857142857143,0.0004
552,1.0351642966270447,1.419938564300537,0.6923076923076923,0.8846153846153846,0.5,0.7142857142857143,0.0004
553,1.085419774055481,1.0138094425201416,0.6346153846153846,0.8269230769230769,0.7857142857142857,0.7142857142857143,0.0004
554,1.2989047765731812,1.2852416038513184,0.6346153846153846,0.8076923076923077,0.5,0.8571428571428571,0.0004
555,1.0729384422302246,1.2699778079986572,0.6730769230769231,0.8653846153846154,0.5714285714285714,0.7857142857142857,0.0004
556,0.8201216459274292,1.48189377784729,0.7115384615384616,0.9230769230769231,0.5714285714285714,0.7142857142857143,0.0004
557,1.0199443399906158,1.4670557975769043,0.6538461538461539,0.9038461538461539,0.5714285714285714,0.6428571428571429,0.0004
558,0.9378498494625092,1.4986798763275146,0.75,0.9038461538461539,0.5714285714285714,0.7142857142857143,0.0004
559,1.0435917377471924,0.8703915476799011,0.6538461538461539,0.8076923076923077,0.7857142857142857,0.7857142857142857,0.0004
560,1.0464399755001068,0.8177410960197449,0.7115384615384616,0.8653846153846154,0.7142857142857143,0.9285714285714286,0.0004
561,1.201309621334076,1.7086801528930664,0.7307692307692307,0.8269230769230769,0.5,0.7857142857142857,0.0004
562,1.0879995226860046,1.026570439338684,0.6346153846153846,0.9038461538461539,0.6428571428571429,0.8571428571428571,0.0004
563,1.0953301191329956,0.8265998959541321,0.5961538461538461,0.8076923076923077,0.8571428571428571,0.8571428571428571,0.0004
564,0.9097509980201721,1.1809608936309814,0.7307692307692307,0.8653846153846154,0.5714285714285714,0.7857142857142857,0.0004
565,0.895966649055481,1.2485953569412231,0.7115384615384616,0.9230769230769231,0.5714285714285714,0.7857142857142857,0.0004
566,1.2858237028121948,1.2339062690734863,0.5769230769230769,0.7692307692307693,0.5714285714285714,0.7142857142857143,0.0004
567,1.1347642540931702,1.2556405067443848,0.6538461538461539,0.8461538461538461,0.5,0.8571428571428571,0.0004
568,0.9674399495124817,1.2599774599075317,0.7307692307692307,0.9038461538461539,0.7142857142857143,0.7142857142857143,0.0004
569,1.0152289867401123,1.0151419639587402,0.6923076923076923,0.8846153846153846,0.7142857142857143,0.8571428571428571,0.0004
570,0.9941107928752899,1.3836079835891724,0.7115384615384616,0.8846153846153846,0.5714285714285714,0.7857142857142857,0.0004
571,1.1627793312072754,0.8910199403762817,0.6346153846153846,0.8653846153846154,0.7142857142857143,0.7857142857142857,0.0004
572,0.8809785544872284,1.2895756959915161,0.7115384615384616,0.9038461538461539,0.6428571428571429,0.7857142857142857,0.0004
573,1.2478389143943787,1.4198169708251953,0.6346153846153846,0.7884615384615384,0.5,0.8571428571428571,0.0004
574,1.015426903963089,1.741966962814331,0.6923076923076923,0.8653846153846154,0.42857142857142855,0.6428571428571429,0.0004
575,0.9709290564060211,1.368219256401062,0.7115384615384616,0.8846153846153846,0.6428571428571429,0.6428571428571429,0.0004
576,1.0743115544319153,1.1982741355895996,0.7307692307692307,0.8269230769230769,0.5714285714285714,0.8571428571428571,0.0004
577,1.2272712588310242,1.3102737665176392,0.6346153846153846,0.8461538461538461,0.5714285714285714,0.7142857142857143,0.0004
578,1.0712847709655762,1.3091976642608643,0.6730769230769231,0.8653846153846154,0.5714285714285714,0.7142857142857143,0.0004
579,1.1228435933589935,1.2881309986114502,0.6730769230769231,0.8461538461538461,0.5714285714285714,0.8571428571428571,0.0004
580,1.0904921293258667,1.0010625123977661,0.6730769230769231,0.8461538461538461,0.7142857142857143,0.7857142857142857,0.0004
581,1.078786313533783,1.7636909484863281,0.6730769230769231,0.8461538461538461,0.5,0.5714285714285714,0.0004
582,0.9760281443595886,1.382872223854065,0.6730769230769231,0.8846153846153846,0.5714285714285714,0.7857142857142857,0.0004
583,0.9396941661834717,0.9557263851165771,0.6730769230769231,0.9038461538461539,0.7142857142857143,0.7857142857142857,0.0004
584,1.0594967603683472,1.5710479021072388,0.7307692307692307,0.8846153846153846,0.5,0.7142857142857143,0.0004
585,0.9400065541267395,1.11618971824646,0.7115384615384616,0.8846153846153846,0.7142857142857143,0.7857142857142857,0.0004
586,1.0606661438941956,1.039506196975708,0.6346153846153846,0.8461538461538461,0.7142857142857143,0.8571428571428571,0.0004
587,1.183695912361145,0.9228967428207397,0.5961538461538461,0.8076923076923077,0.8571428571428571,0.6428571428571429,0.0004
588,0.8540612161159515,1.025571584701538,0.7115384615384616,0.9230769230769231,0.6428571428571429,0.9285714285714286,0.0004
589,1.1246002614498138,1.1696665287017822,0.75,0.8076923076923077,0.5714285714285714,0.8571428571428571,0.0004
590,0.8581192195415497,1.3755764961242676,0.75,0.9038461538461539,0.5714285714285714,0.7142857142857143,0.0004
591,0.9217249155044556,1.5525457859039307,0.6923076923076923,0.9230769230769231,0.42857142857142855,0.6428571428571429,0.0004
592,0.9335756301879883,1.2007794380187988,0.7115384615384616,0.8846153846153846,0.5714285714285714,0.8571428571428571,0.0004
593,0.963732123374939,1.325103759765625,0.7307692307692307,0.8653846153846154,0.6428571428571429,0.6428571428571429,0.0004
594,0.8244812488555908,1.5627679824829102,0.75,0.8846153846153846,0.5714285714285714,0.6428571428571429,0.0004
595,1.0526817440986633,1.086047649383545,0.6730769230769231,0.9230769230769231,0.7857142857142857,0.7142857142857143,0.0004
596,1.1796371936798096,1.7309868335723877,0.6346153846153846,0.8461538461538461,0.5,0.6428571428571429,0.0004
597,1.1062337756156921,0.9720637798309326,0.6538461538461539,0.9038461538461539,0.7142857142857143,0.7857142857142857,0.0004
598,1.0255794525146484,1.1852704286575317,0.75,0.8461538461538461,0.6428571428571429,0.8571428571428571,0.0004
599,1.0559465885162354,1.4470642805099487,0.6153846153846154,0.8461538461538461,0.6428571428571429,0.6428571428571429,0.0004
600,1.0523955821990967,1.174818754196167,0.6346153846153846,0.9038461538461539,0.7857142857142857,0.6428571428571429,0.0004
601,1.1132165789604187,1.2543509006500244,0.5961538461538461,0.8846153846153846,0.5,0.8571428571428571,0.0004
602,1.024127870798111,1.170531988143921,0.6538461538461539,0.8461538461538461,0.6428571428571429,0.8571428571428571,0.0004
603,1.2131682634353638,1.516472339630127,0.6346153846153846,0.8653846153846154,0.5714285714285714,0.6428571428571429,0.0004
604,1.0329586267471313,1.5159376859664917,0.6346153846153846,0.9230769230769231,0.42857142857142855,0.7142857142857143,0.0004
605,0.9651660919189453,1.491540789604187,0.7115384615384616,0.9038461538461539,0.42857142857142855,0.7857142857142857,0.0004
606,0.836983323097229,1.528489589691162,0.6923076923076923,0.9615384615384616,0.5714285714285714,0.7142857142857143,0.0004
607,1.0066822469234467,1.9188652038574219,0.7307692307692307,0.8461538461538461,0.42857142857142855,0.7142857142857143,0.0004
608,1.0945485830307007,1.1550441980361938,0.6923076923076923,0.75,0.6428571428571429,0.7857142857142857,0.0004
609,1.062720626592636,0.9502959251403809,0.6346153846153846,0.9230769230769231,0.6428571428571429,0.8571428571428571,0.0004
610,0.8874543607234955,1.1010847091674805,0.7115384615384616,0.8846153846153846,0.7142857142857143,0.7857142857142857,0.0004
611,1.0012294054031372,1.103946566581726,0.6923076923076923,0.9423076923076923,0.5714285714285714,0.9285714285714286,0.0004
612,0.9479939043521881,1.0017437934875488,0.75,0.9038461538461539,0.8571428571428571,0.7857142857142857,0.0004
613,0.9322837293148041,1.6319152116775513,0.6346153846153846,0.9038461538461539,0.7142857142857143,0.5714285714285714,0.0004
614,1.2562569379806519,1.5156607627868652,0.6538461538461539,0.8269230769230769,0.35714285714285715,0.7857142857142857,0.0004
615,0.9725777506828308,1.2505974769592285,0.6730769230769231,0.8653846153846154,0.6428571428571429,0.7142857142857143,0.0004
616,1.2388145327568054,1.4918015003204346,0.5961538461538461,0.8653846153846154,0.5,0.7857142857142857,0.0004
617,1.0458630323410034,1.129258394241333,0.6153846153846154,0.8653846153846154,0.6428571428571429,0.7142857142857143,0.0004
618,0.9195229411125183,1.2541704177856445,0.6730769230769231,0.9230769230769231,0.7142857142857143,0.5714285714285714,0.0004
619,1.0077873766422272,1.4669601917266846,0.6730769230769231,0.8461538461538461,0.5714285714285714,0.7142857142857143,0.0004
620,1.1340644359588623,0.7181807160377502,0.6923076923076923,0.8461538461538461,0.7857142857142857,0.8571428571428571,0.0004
621,1.0427652895450592,1.3761284351348877,0.6538461538461539,0.9423076923076923,0.5714285714285714,0.7142857142857143,0.0004
622,0.9542479813098907,1.193734884262085,0.7307692307692307,0.8653846153846154,0.7142857142857143,0.7142857142857143,0.0004
623,1.0198090076446533,1.3116101026535034,0.6730769230769231,0.9038461538461539,0.6428571428571429,0.7142857142857143,0.0004
624,0.8566354513168335,1.0458754301071167,0.75,0.9230769230769231,0.7857142857142857,0.7857142857142857,0.0004
625,0.8170143067836761,1.5116509199142456,0.75,0.9615384615384616,0.6428571428571429,0.5714285714285714,0.0004
626,1.0136065483093262,1.3246709108352661,0.6153846153846154,0.9038461538461539,0.5,0.8571428571428571,0.0004
627,1.09148508310318,1.3735911846160889,0.6538461538461539,0.8653846153846154,0.6428571428571429,0.7142857142857143,0.0004
628,1.1219082474708557,1.3121435642242432,0.5961538461538461,0.8461538461538461,0.7857142857142857,0.6428571428571429,0.0004
629,1.0575604438781738,1.2660690546035767,0.6538461538461539,0.8846153846153846,0.5714285714285714,0.8571428571428571,0.0004
630,1.0242851376533508,0.7687017917633057,0.75,0.8653846153846154,0.7142857142857143,0.9285714285714286,0.0004
631,0.8726016283035278,1.3676198720932007,0.6923076923076923,0.9038461538461539,0.6428571428571429,0.7857142857142857,0.0004
632,0.9650591015815735,1.07366144657135,0.7307692307692307,0.8269230769230769,0.6428571428571429,0.8571428571428571,0.0004
633,1.0242449641227722,0.9228382706642151,0.6538461538461539,0.8269230769230769,0.6428571428571429,0.9285714285714286,0.0004
634,1.1701712608337402,1.1784785985946655,0.6153846153846154,0.8269230769230769,0.5714285714285714,0.8571428571428571,0.0004
635,0.9721986055374146,1.6797490119934082,0.75,0.8269230769230769,0.5714285714285714,0.6428571428571429,0.0004
636,0.9167538583278656,1.6524838209152222,0.6538461538461539,0.8653846153846154,0.35714285714285715,0.8571428571428571,0.0004
637,1.0570281147956848,1.1005430221557617,0.6730769230769231,0.8653846153846154,0.5714285714285714,0.8571428571428571,0.0004
638,0.8454921245574951,1.0205357074737549,0.75,0.9230769230769231,0.7142857142857143,0.8571428571428571,0.0004
639,1.1361609101295471,1.442724585533142,0.6346153846153846,0.8653846153846154,0.6428571428571429,0.8571428571428571,0.0004
640,1.013198435306549,1.3843176364898682,0.6730769230769231,0.8269230769230769,0.5714285714285714,0.6428571428571429,0.0004
641,0.9102572202682495,1.369752049446106,0.6538461538461539,0.8653846153846154,0.5,0.7857142857142857,0.0004
642,0.9501014649868011,1.1486937999725342,0.7307692307692307,0.8653846153846154,0.6428571428571429,0.7857142857142857,0.0004
643,0.9096449911594391,1.1032683849334717,0.6730769230769231,0.9423076923076923,0.6428571428571429,0.8571428571428571,0.0004
644,0.9131194949150085,1.1978020668029785,0.7307692307692307,0.8269230769230769,0.5714285714285714,0.8571428571428571,0.0004
645,1.1437667608261108,1.4492433071136475,0.5961538461538461,0.9038461538461539,0.35714285714285715,0.8571428571428571,0.0004
646,0.8248552083969116,1.5914443731307983,0.7692307692307693,0.8846153846153846,0.42857142857142855,0.7142857142857143,0.0004
647,0.8720402717590332,0.9818898439407349,0.6923076923076923,0.8846153846153846,0.6428571428571429,0.8571428571428571,0.0004
648,1.0700985491275787,1.008957028388977,0.6538461538461539,0.8076923076923077,0.7142857142857143,0.7857142857142857,0.0004
649,1.0609900653362274,1.2870795726776123,0.6923076923076923,0.8846153846153846,0.5714285714285714,0.7857142857142857,0.0004
650,0.7103322744369507,1.1687978506088257,0.75,0.9423076923076923,0.7142857142857143,0.7857142857142857,0.0004
651,0.8534823656082153,1.413041114807129,0.7884615384615384,0.9230769230769231,0.5714285714285714,0.7142857142857143,0.0004
652,1.041113257408142,0.8452804684638977,0.7307692307692307,0.8269230769230769,0.7857142857142857,0.7142857142857143,0.0004
653,1.0864606499671936,1.186423659324646,0.6923076923076923,0.8846153846153846,0.6428571428571429,0.7142857142857143,0.0004
654,0.9505124092102051,1.1567972898483276,0.6346153846153846,0.9423076923076923,0.6428571428571429,0.7142857142857143,0.0004
655,0.9903031289577484,1.399065613746643,0.75,0.8846153846153846,0.5714285714285714,0.5,0.0004
656,1.1831095218658447,1.2557071447372437,0.6153846153846154,0.8076923076923077,0.6428571428571429,0.7142857142857143,0.0004
657,1.0786754190921783,1.2311897277832031,0.6538461538461539,0.8653846153846154,0.5714285714285714,0.8571428571428571,0.0004
658,0.9410331547260284,1.2084214687347412,0.75,0.8846153846153846,0.6428571428571429,0.8571428571428571,0.0004
659,0.9058476388454437,1.148855447769165,0.7692307692307693,0.8461538461538461,0.6428571428571429,0.7142857142857143,0.0004
660,0.9224859178066254,1.476546049118042,0.7307692307692307,0.8846153846153846,0.5714285714285714,0.7142857142857143,0.0004
661,1.049188256263733,1.4824062585830688,0.5961538461538461,0.8653846153846154,0.5,0.7142857142857143,0.0004
662,1.1591879725456238,1.414266586303711,0.6538461538461539,0.8076923076923077,0.5714285714285714,0.6428571428571429,0.0004
663,1.0007720291614532,0.7150968909263611,0.6923076923076923,0.8461538461538461,0.7857142857142857,0.8571428571428571,0.0004
664,1.0240663290023804,1.2177306413650513,0.7115384615384616,0.8461538461538461,0.6428571428571429,0.7142857142857143,0.0004
665,0.8820945024490356,1.061746597290039,0.7115384615384616,0.8846153846153846,0.7142857142857143,0.7857142857142857,0.0004
666,0.8830837607383728,1.0554028749465942,0.7307692307692307,0.9230769230769231,0.7142857142857143,0.7857142857142857,0.0004
667,0.7921717762947083,1.6761451959609985,0.7692307692307693,0.8461538461538461,0.5714285714285714,0.6428571428571429,0.0004
668,1.0623125433921814,1.737928867340088,0.6730769230769231,0.8846153846153846,0.5,0.7142857142857143,0.0004
669,0.8164286315441132,0.9368464946746826,0.75,0.9230769230769231,0.8571428571428571,0.7857142857142857,0.0004
670,0.8976521492004395,1.060003399848938,0.7115384615384616,0.9230769230769231,0.6428571428571429,0.7142857142857143,0.0004
671,0.9613873064517975,1.402975082397461,0.6153846153846154,0.8846153846153846,0.6428571428571429,0.5714285714285714,0.0004
672,0.9171902537345886,1.4988882541656494,0.7307692307692307,0.8653846153846154,0.5,0.7142857142857143,0.0004
673,1.1600061058998108,1.2590515613555908,0.6730769230769231,0.8461538461538461,0.5714285714285714,0.7857142857142857,0.0004
674,0.8901540637016296,1.0936795473098755,0.7115384615384616,0.9038461538461539,0.6428571428571429,0.7857142857142857,0.0004
675,0.929035872220993,1.6426810026168823,0.75,0.8461538461538461,0.6428571428571429,0.5714285714285714,0.0004
676,0.8904191553592682,1.061824083328247,0.6346153846153846,0.9230769230769231,0.5714285714285714,0.8571428571428571,0.0004
677,0.9859443306922913,0.6786310076713562,0.7307692307692307,0.8846153846153846,0.7857142857142857,0.9285714285714286,0.0004
678,1.0640197396278381,1.0796372890472412,0.7115384615384616,0.8653846153846154,0.7142857142857143,0.7857142857142857,0.0004
679,1.0034301280975342,1.4980263710021973,0.6923076923076923,0.8846153846153846,0.5,0.7857142857142857,0.0004
680,1.0085220336914062,1.128152847290039,0.6730769230769231,0.8653846153846154,0.7142857142857143,0.7857142857142857,0.0004
681,1.0683745741844177,1.47748863697052,0.7115384615384616,0.8461538461538461,0.6428571428571429,0.7142857142857143,0.0004
682,1.023908108472824,1.3823513984680176,0.6923076923076923,0.8653846153846154,0.5,0.7142857142857143,0.0004
683,1.1349859237670898,1.352635383605957,0.6730769230769231,0.8269230769230769,0.5,0.7857142857142857,0.0004
684,0.9818474352359772,1.6352614164352417,0.75,0.8461538461538461,0.5,0.7142857142857143,0.0004
685,0.9683631658554077,1.237231731414795,0.7115384615384616,0.8269230769230769,0.7142857142857143,0.7857142857142857,0.0004
686,1.0476497113704681,0.8931931257247925,0.6730769230769231,0.8076923076923077,0.8571428571428571,0.7857142857142857,0.0004
687,1.1086130142211914,1.0466423034667969,0.6730769230769231,0.8076923076923077,0.6428571428571429,0.7857142857142857,0.0004
688,1.005557358264923,1.0981734991073608,0.7115384615384616,0.8076923076923077,0.7142857142857143,0.9285714285714286,0.0004
689,0.9168676733970642,1.0699659585952759,0.6538461538461539,0.9038461538461539,0.7142857142857143,0.7857142857142857,0.0004
690,0.8086143434047699,0.9312169551849365,0.7884615384615384,0.8846153846153846,0.7857142857142857,0.7857142857142857,0.0004
691,1.144704908132553,1.1823464632034302,0.6730769230769231,0.8269230769230769,0.5714285714285714,0.9285714285714286,0.0004
692,1.1215266287326813,1.2201762199401855,0.7115384615384616,0.8653846153846154,0.5714285714285714,0.8571428571428571,0.0004
693,0.9977909326553345,0.9585614204406738,0.7115384615384616,0.9038461538461539,0.7857142857142857,0.8571428571428571,0.0004
694,1.0487104058265686,1.126532793045044,0.6923076923076923,0.8076923076923077,0.6428571428571429,0.7142857142857143,0.0004
695,0.8937025368213654,1.614558219909668,0.7307692307692307,0.9038461538461539,0.5714285714285714,0.6428571428571429,0.0004
696,0.9753368496894836,1.3662900924682617,0.6730769230769231,0.8653846153846154,0.5714285714285714,0.6428571428571429,0.0004
697,1.1573294699192047,1.1682841777801514,0.6346153846153846,0.8076923076923077,0.6428571428571429,0.7142857142857143,0.0004
698,0.9724434316158295,1.528502345085144,0.7115384615384616,0.8846153846153846,0.5714285714285714,0.7142857142857143,0.0004
699,0.9620331525802612,0.9363094568252563,0.7115384615384616,0.9038461538461539,0.7142857142857143,0.9285714285714286,0.0004
700,0.9306136965751648,1.5225013494491577,0.7307692307692307,0.9230769230769231,0.5,0.7857142857142857,0.0004
701,0.8923093676567078,1.268595576286316,0.75,0.9038461538461539,0.6428571428571429,0.7857142857142857,0.0004
702,1.0100377798080444,1.4719042778015137,0.6730769230769231,0.8461538461538461,0.6428571428571429,0.6428571428571429,0.0004
703,1.0801225304603577,1.3392410278320312,0.6923076923076923,0.9038461538461539,0.7142857142857143,0.6428571428571429,0.0004
704,1.1140446066856384,1.5435439348220825,0.6153846153846154,0.8653846153846154,0.42857142857142855,0.7142857142857143,0.0004
705,0.894611656665802,0.9781506657600403,0.7307692307692307,0.8846153846153846,0.5714285714285714,0.8571428571428571,0.0004
706,1.1415713429450989,1.1442101001739502,0.6730769230769231,0.8653846153846154,0.7142857142857143,0.7142857142857143,0.0004
707,1.0578392446041107,1.0134117603302002,0.6923076923076923,0.8461538461538461,0.7142857142857143,0.7142857142857143,0.0004
708,0.9221627414226532,1.111500859260559,0.6923076923076923,0.8846153846153846,0.5714285714285714,0.9285714285714286,0.0004
709,0.9959341883659363,1.2187024354934692,0.6730769230769231,0.8653846153846154,0.6428571428571429,0.7857142857142857,0.0004
710,0.8908751010894775,1.165536642074585,0.75,0.8076923076923077,0.6428571428571429,0.7857142857142857,0.0004
711,0.886867105960846,1.3965318202972412,0.75,0.9423076923076923,0.5714285714285714,0.7857142857142857,0.0004
712,1.0447405576705933,1.2611768245697021,0.7307692307692307,0.8269230769230769,0.5714285714285714,0.7142857142857143,0.0004
713,0.7822631597518921,1.376201868057251,0.7692307692307693,0.9230769230769231,0.42857142857142855,0.7857142857142857,0.0004
714,0.9852463006973267,1.0697929859161377,0.6538461538461539,0.8846153846153846,0.5,0.8571428571428571,0.0004
715,0.9086073040962219,1.110061764717102,0.7115384615384616,0.8846153846153846,0.5,0.8571428571428571,0.0004
716,0.9058307111263275,0.9055474996566772,0.7692307692307693,0.8461538461538461,0.7142857142857143,0.9285714285714286,0.0004
717,0.9272328019142151,1.5052419900894165,0.6923076923076923,0.9230769230769231,0.5,0.7857142857142857,0.0004
718,0.9002112150192261,1.488584041595459,0.7307692307692307,0.8653846153846154,0.42857142857142855,0.7857142857142857,0.0004
719,0.9611335694789886,0.747673511505127,0.6346153846153846,0.8846153846153846,0.7142857142857143,0.9285714285714286,0.0004
720,0.7671196460723877,1.8456335067749023,0.6730769230769231,0.9038461538461539,0.42857142857142855,0.6428571428571429,0.0004
721,1.006625384092331,1.4858300685882568,0.6923076923076923,0.8653846153846154,0.42857142857142855,0.7142857142857143,0.0004
722,0.9655276238918304,0.9074009656906128,0.75,0.9230769230769231,0.7142857142857143,0.7857142857142857,0.0004
723,1.0545077323913574,1.2014483213424683,0.6730769230769231,0.9230769230769231,0.5714285714285714,0.8571428571428571,0.0004
724,1.1341802179813385,1.2312078475952148,0.6346153846153846,0.8846153846153846,0.5714285714285714,0.7857142857142857,0.0004
725,0.8496407270431519,1.6531524658203125,0.7884615384615384,0.8461538461538461,0.5,0.7142857142857143,0.0004
726,1.0446724891662598,1.180342674255371,0.6923076923076923,0.8269230769230769,0.7142857142857143,0.7142857142857143,0.0004
727,1.1702284812927246,1.4610419273376465,0.7115384615384616,0.8461538461538461,0.6428571428571429,0.7142857142857143,0.0004
728,0.967395544052124,1.154759168624878,0.6730769230769231,0.8461538461538461,0.7142857142857143,0.7857142857142857,0.0004
729,1.107753962278366,1.420872449874878,0.6730769230769231,0.8269230769230769,0.7142857142857143,0.7142857142857143,0.0004
730,1.0120275020599365,1.4254223108291626,0.7307692307692307,0.8461538461538461,0.5714285714285714,0.8571428571428571,0.0004
731,0.9284532368183136,1.1891767978668213,0.6923076923076923,0.8846153846153846,0.6428571428571429,0.8571428571428571,0.0004
732,0.9240113794803619,1.4176156520843506,0.7115384615384616,0.8653846153846154,0.7142857142857143,0.6428571428571429,0.0004
733,0.9223299324512482,1.3334462642669678,0.7307692307692307,0.9038461538461539,0.42857142857142855,0.8571428571428571,0.0004
734,1.0970801711082458,0.9307611584663391,0.5961538461538461,0.8653846153846154,0.6428571428571429,0.9285714285714286,0.0004
735,0.8896970152854919,1.6631780862808228,0.7307692307692307,0.9230769230769231,0.42857142857142855,0.7857142857142857,0.0004
736,1.0595787167549133,1.311462640762329,0.6538461538461539,0.8653846153846154,0.6428571428571429,0.7142857142857143,0.0004
737,1.035213053226471,0.8743716478347778,0.6730769230769231,0.8461538461538461,0.7142857142857143,0.8571428571428571,0.0004
738,0.99239182472229,1.407738447189331,0.7307692307692307,0.8076923076923077,0.6428571428571429,0.7857142857142857,0.0004
739,0.760269969701767,1.0988843441009521,0.7307692307692307,0.9038461538461539,0.6428571428571429,0.8571428571428571,0.0004
740,1.2280033230781555,1.0846197605133057,0.6923076923076923,0.8461538461538461,0.5714285714285714,0.7857142857142857,0.0004
741,1.0136536955833435,0.9744070768356323,0.6538461538461539,0.8461538461538461,0.7142857142857143,1.0,0.0004
742,0.7834694087505341,1.21309494972229,0.7692307692307693,0.9230769230769231,0.7142857142857143,0.8571428571428571,0.0004
743,0.9123119413852692,1.2707866430282593,0.6923076923076923,0.8461538461538461,0.5714285714285714,0.7857142857142857,0.0004
744,0.9789470434188843,1.3731765747070312,0.6923076923076923,0.8846153846153846,0.7142857142857143,0.7142857142857143,0.0004
745,0.9655616283416748,1.371553659439087,0.6538461538461539,0.8461538461538461,0.6428571428571429,0.7142857142857143,0.0004
746,0.9171307981014252,0.8692715167999268,0.7307692307692307,0.8461538461538461,0.7857142857142857,0.8571428571428571,0.0004
747,1.0014599859714508,1.0314632654190063,0.6730769230769231,0.8846153846153846,0.7857142857142857,0.8571428571428571,0.0004
748,0.767120748758316,1.412440538406372,0.7115384615384616,0.9423076923076923,0.5714285714285714,0.8571428571428571,0.0004
749,0.8076552748680115,0.9521196484565735,0.75,0.9038461538461539,0.8571428571428571,0.6428571428571429,0.0004
750,0.9532025158405304,1.4944260120391846,0.7115384615384616,0.9423076923076923,0.5,0.8571428571428571,0.0004
751,0.8094044625759125,1.7243525981903076,0.75,0.9615384615384616,0.5,0.6428571428571429,0.0004
752,0.9465915858745575,1.4490574598312378,0.7884615384615384,0.8846153846153846,0.5714285714285714,0.7142857142857143,0.0004
753,0.9786358177661896,0.872599184513092,0.75,0.8269230769230769,0.5714285714285714,0.9285714285714286,0.0004
754,0.8483631610870361,1.7071232795715332,0.7692307692307693,0.8846153846153846,0.42857142857142855,0.6428571428571429,0.0004
755,1.0125322937965393,1.34621000289917,0.7115384615384616,0.8653846153846154,0.7142857142857143,0.7142857142857143,0.0004
756,0.8434525430202484,0.7566841840744019,0.7692307692307693,0.9038461538461539,0.7857142857142857,0.8571428571428571,0.0004
757,1.04287189245224,0.9387597441673279,0.6730769230769231,0.8846153846153846,0.7142857142857143,0.7857142857142857,0.0004
758,1.3144525289535522,1.3214905261993408,0.5961538461538461,0.7884615384615384,0.6428571428571429,0.7857142857142857,0.0004
759,0.9732747972011566,1.4252285957336426,0.6538461538461539,0.9230769230769231,0.6428571428571429,0.7142857142857143,0.0004
760,0.8199097812175751,1.6047050952911377,0.7115384615384616,0.9423076923076923,0.5714285714285714,0.6428571428571429,0.0004
761,0.8094457387924194,1.5937000513076782,0.8076923076923077,0.9038461538461539,0.5714285714285714,0.5714285714285714,0.0004
762,1.073194980621338,1.2997483015060425,0.7115384615384616,0.8846153846153846,0.6428571428571429,0.7857142857142857,0.0004
763,1.180675983428955,0.9238340854644775,0.6923076923076923,0.8461538461538461,0.7142857142857143,0.7857142857142857,0.0004
764,0.9997489750385284,1.318102478981018,0.7115384615384616,0.9038461538461539,0.6428571428571429,0.7857142857142857,0.0004
765,0.8348352015018463,0.9061411619186401,0.7115384615384616,0.9423076923076923,0.7142857142857143,0.8571428571428571,0.0004
766,1.2002103924751282,1.1894035339355469,0.6538461538461539,0.8076923076923077,0.5714285714285714,0.8571428571428571,0.0004
767,0.9743876457214355,0.9014966487884521,0.7307692307692307,0.9038461538461539,0.7142857142857143,0.9285714285714286,0.0004
768,1.0440934896469116,0.7220582962036133,0.7115384615384616,0.8653846153846154,0.7857142857142857,0.9285714285714286,0.0004
769,0.9790880680084229,1.2324788570404053,0.6730769230769231,0.8461538461538461,0.6428571428571429,0.7857142857142857,0.0004
770,1.093392014503479,1.2718188762664795,0.6153846153846154,0.8461538461538461,0.5714285714285714,0.7857142857142857,0.0004
771,1.0521163642406464,1.0286535024642944,0.5769230769230769,0.8846153846153846,0.6428571428571429,0.8571428571428571,0.0004
772,0.869610607624054,1.177864670753479,0.7115384615384616,0.8846153846153846,0.42857142857142855,0.9285714285714286,0.0004
773,0.8404366970062256,1.3188722133636475,0.7692307692307693,0.8653846153846154,0.5714285714285714,0.7857142857142857,0.0004
774,1.1839441061019897,1.0211817026138306,0.6730769230769231,0.7884615384615384,0.7857142857142857,0.7857142857142857,0.0004
775,1.0285484194755554,0.9000880122184753,0.6538461538461539,0.8461538461538461,0.7857142857142857,0.7857142857142857,0.0004
776,1.0257222652435303,1.3845500946044922,0.6346153846153846,0.8846153846153846,0.6428571428571429,0.6428571428571429,0.0004
777,0.9767583012580872,1.2980417013168335,0.8076923076923077,0.8653846153846154,0.5714285714285714,0.8571428571428571,0.0004
778,0.8497763574123383,1.2125678062438965,0.7884615384615384,0.9230769230769231,0.5714285714285714,0.7857142857142857,0.0004
779,0.9263379871845245,1.1555954217910767,0.7884615384615384,0.8269230769230769,0.7142857142857143,0.7857142857142857,0.0004
780,0.9407160878181458,0.9541075229644775,0.7115384615384616,0.8461538461538461,0.8571428571428571,0.7857142857142857,0.0004
781,0.9355466067790985,1.5101444721221924,0.7307692307692307,0.9038461538461539,0.5714285714285714,0.7857142857142857,0.0004
782,1.1636037230491638,1.1438931226730347,0.5769230769230769,0.8653846153846154,0.7857142857142857,0.7857142857142857,0.0004
783,0.9161626100540161,0.811374306678772,0.7115384615384616,0.8653846153846154,0.9285714285714286,0.7142857142857143,0.0004
784,1.032082736492157,1.1109545230865479,0.7307692307692307,0.8076923076923077,0.6428571428571429,0.8571428571428571,0.0004
785,1.052603304386139,1.2288475036621094,0.6923076923076923,0.8269230769230769,0.5714285714285714,0.8571428571428571,0.0004
786,1.1750944256782532,1.1836085319519043,0.6538461538461539,0.8076923076923077,0.42857142857142855,0.7857142857142857,0.0004
787,1.1136141419410706,1.0225169658660889,0.6346153846153846,0.8461538461538461,0.7857142857142857,0.7857142857142857,0.0004
788,0.9195890128612518,1.2385003566741943,0.6923076923076923,0.8846153846153846,0.5,0.7857142857142857,0.0004
789,1.297024130821228,1.3864952325820923,0.5769230769230769,0.8076923076923077,0.6428571428571429,0.5,0.0004
790,0.9626439809799194,1.257370114326477,0.75,0.8653846153846154,0.7142857142857143,0.7857142857142857,0.0004
791,0.946222335100174,1.1438196897506714,0.7884615384615384,0.8653846153846154,0.7857142857142857,0.7142857142857143,0.0004
792,0.8658627867698669,1.5435630083084106,0.7692307692307693,0.8653846153846154,0.5714285714285714,0.5714285714285714,0.0004
793,1.1314536929130554,0.9803905487060547,0.6346153846153846,0.8461538461538461,0.7857142857142857,0.8571428571428571,0.0004
794,1.0375704169273376,1.3168001174926758,0.6730769230769231,0.8269230769230769,0.7142857142857143,0.7857142857142857,0.0004
795,0.8148640990257263,1.3401777744293213,0.7307692307692307,0.9038461538461539,0.5,0.7142857142857143,0.0004
796,0.7920182347297668,0.7053366899490356,0.75,0.9230769230769231,0.7142857142857143,0.9285714285714286,0.0004
797,0.8092417120933533,1.1876018047332764,0.6730769230769231,0.9615384615384616,0.6428571428571429,0.8571428571428571,0.0004
798,0.8946555256843567,1.5706686973571777,0.7307692307692307,0.9230769230769231,0.5,0.7142857142857143,0.0004
799,0.973802238702774,1.3528835773468018,0.6923076923076923,0.8846153846153846,0.5714285714285714,0.7142857142857143,0.0004
800,1.0345619916915894,1.1713111400604248,0.7115384615384616,0.8846153846153846,0.6428571428571429,0.7857142857142857,0.0004
801,1.0500849187374115,0.9411482810974121,0.75,0.8269230769230769,0.7857142857142857,0.7142857142857143,0.0004
802,0.9266351759433746,1.0625617504119873,0.6923076923076923,0.8653846153846154,0.7142857142857143,0.7857142857142857,0.0004
803,0.9660475254058838,1.5154359340667725,0.75,0.9038461538461539,0.5,0.7142857142857143,0.0004
804,0.9038960039615631,1.210827112197876,0.7115384615384616,0.9230769230769231,0.7142857142857143,0.7857142857142857,0.0004
805,0.9184715151786804,0.9623581171035767,0.7307692307692307,0.9038461538461539,0.7142857142857143,0.7857142857142857,0.0004
806,0.933044970035553,1.1683802604675293,0.7307692307692307,0.8846153846153846,0.6428571428571429,0.7857142857142857,0.0004
807,0.9608610272407532,1.4356498718261719,0.7115384615384616,0.9038461538461539,0.5,0.7142857142857143,0.0004
808,1.1218356490135193,1.8144416809082031,0.6153846153846154,0.8269230769230769,0.42857142857142855,0.6428571428571429,0.0004
809,1.0716795027256012,1.4785034656524658,0.5769230769230769,0.8461538461538461,0.6428571428571429,0.7142857142857143,0.0004
810,0.9600502848625183,1.5897456407546997,0.75,0.8846153846153846,0.42857142857142855,0.8571428571428571,0.0004
811,1.1414355039596558,0.7697591781616211,0.6923076923076923,0.7884615384615384,0.7142857142857143,0.9285714285714286,0.0004
812,0.9941921830177307,1.2480318546295166,0.7115384615384616,0.8461538461538461,0.6428571428571429,0.7857142857142857,0.0004
813,1.0316739976406097,1.1078829765319824,0.75,0.8461538461538461,0.6428571428571429,0.7857142857142857,0.0004
814,0.9853943586349487,1.2438020706176758,0.7115384615384616,0.8269230769230769,0.7142857142857143,0.7857142857142857,0.0004
815,0.9406767189502716,1.300326943397522,0.6730769230769231,0.8653846153846154,0.7142857142857143,0.7142857142857143,0.0004
816,1.032560557126999,1.0494663715362549,0.6538461538461539,0.8653846153846154,0.5714285714285714,0.8571428571428571,0.0004
817,1.1085143685340881,1.4729540348052979,0.7307692307692307,0.8269230769230769,0.5,0.6428571428571429,0.0004
818,0.829679012298584,1.253832459449768,0.7307692307692307,0.8846153846153846,0.5,0.7857142857142857,0.0004
819,0.924203485250473,1.1040633916854858,0.7115384615384616,0.8846153846153846,0.5714285714285714,0.7857142857142857,0.0004
820,0.9129902124404907,1.0525290966033936,0.75,0.8653846153846154,0.6428571428571429,0.7857142857142857,0.0004
821,1.0001711249351501,0.9949544668197632,0.7307692307692307,0.8076923076923077,0.6428571428571429,0.9285714285714286,0.0004
822,1.0300401449203491,1.021525263786316,0.6923076923076923,0.8846153846153846,0.7857142857142857,0.7857142857142857,0.0004
823,0.7245822846889496,1.720304012298584,0.7307692307692307,0.9038461538461539,0.35714285714285715,0.7142857142857143,0.0004
824,0.9629504382610321,1.938718318939209,0.7307692307692307,0.8846153846153846,0.5,0.5,0.0004
825,1.0323503613471985,1.3693499565124512,0.7115384615384616,0.8461538461538461,0.5714285714285714,0.7142857142857143,0.0004
826,1.0924525260925293,1.3552311658859253,0.6730769230769231,0.8461538461538461,0.7142857142857143,0.7857142857142857,0.0004
827,0.833903431892395,1.2708795070648193,0.7692307692307693,0.8846153846153846,0.6428571428571429,0.7142857142857143,0.0004
828,0.9534627795219421,1.231020450592041,0.7692307692307693,0.8653846153846154,0.7142857142857143,0.7857142857142857,0.0004
829,0.9282877147197723,0.9047771692276001,0.7115384615384616,0.9230769230769231,0.7142857142857143,0.7857142857142857,0.0004
830,0.7675251364707947,1.1210641860961914,0.7307692307692307,0.9615384615384616,0.5714285714285714,0.8571428571428571,0.0004
831,0.9474469721317291,1.1218645572662354,0.75,0.8461538461538461,0.5714285714285714,0.8571428571428571,0.0004
832,1.0321854948997498,1.1861025094985962,0.6923076923076923,0.8846153846153846,0.5714285714285714,0.9285714285714286,0.0004
833,0.8727542459964752,0.6565102934837341,0.7884615384615384,0.8846153846153846,0.8571428571428571,0.9285714285714286,0.0004
834,0.8376251459121704,0.9561304450035095,0.7115384615384616,0.8846153846153846,0.7142857142857143,0.7857142857142857,0.0004
835,0.6978947520256042,1.1737942695617676,0.8076923076923077,0.9423076923076923,0.5,0.8571428571428571,0.0004
836,0.895292341709137,1.2112352848052979,0.7307692307692307,0.9230769230769231,0.7142857142857143,0.7142857142857143,0.0004
837,0.7861216068267822,0.7842023372650146,0.7115384615384616,0.9615384615384616,0.7142857142857143,0.9285714285714286,0.0004
838,1.027226984500885,1.1707384586334229,0.6346153846153846,0.9038461538461539,0.7857142857142857,0.7142857142857143,0.0004
839,1.0250029563903809,1.4774343967437744,0.5961538461538461,0.8846153846153846,0.5,0.7142857142857143,0.0004
840,1.1358653903007507,1.0985661745071411,0.6730769230769231,0.8269230769230769,0.7857142857142857,0.7857142857142857,0.0004
841,1.0685881972312927,1.3097121715545654,0.6923076923076923,0.8461538461538461,0.5714285714285714,0.7142857142857143,0.0004
842,0.8441675007343292,0.9246094226837158,0.6730769230769231,0.8846153846153846,0.7857142857142857,0.7857142857142857,0.0004
843,0.8144683539867401,1.4018781185150146,0.75,0.8846153846153846,0.6428571428571429,0.5714285714285714,0.0004
844,1.0155986547470093,1.8294321298599243,0.7115384615384616,0.8461538461538461,0.5,0.7142857142857143,0.0004
845,1.066223919391632,0.8815162181854248,0.7307692307692307,0.8269230769230769,0.7857142857142857,0.9285714285714286,0.0004
846,0.9619338512420654,1.0076093673706055,0.7692307692307693,0.8461538461538461,0.5714285714285714,0.9285714285714286,0.0004
847,1.0312210619449615,1.3017258644104004,0.6730769230769231,0.9423076923076923,0.7142857142857143,0.7857142857142857,0.0004
848,0.9339010417461395,1.1739846467971802,0.75,0.8846153846153846,0.6428571428571429,0.8571428571428571,0.0004
849,0.8225761651992798,1.200398564338684,0.7692307692307693,0.9230769230769231,0.6428571428571429,0.7857142857142857,0.0004
850,0.7861331701278687,1.0567739009857178,0.8076923076923077,0.9230769230769231,0.7142857142857143,0.7857142857142857,0.0004
851,1.0884015560150146,1.4514135122299194,0.6538461538461539,0.8076923076923077,0.42857142857142855,0.8571428571428571,0.0004
852,0.7225685715675354,1.484989047050476,0.8269230769230769,0.9038461538461539,0.6428571428571429,0.6428571428571429,0.0004
853,0.8817369639873505,1.1258889436721802,0.7115384615384616,0.8846153846153846,0.7142857142857143,0.7857142857142857,0.0004
854,1.2337371110916138,1.2814252376556396,0.6923076923076923,0.8269230769230769,0.7857142857142857,0.6428571428571429,0.0004
855,0.8478427231311798,1.2000722885131836,0.6923076923076923,0.9038461538461539,0.6428571428571429,0.7142857142857143,0.0004
856,0.6780839264392853,1.345035195350647,0.8461538461538461,0.8846153846153846,0.5714285714285714,0.7857142857142857,0.0004
857,0.7080721259117126,1.1607962846755981,0.7884615384615384,0.8653846153846154,0.6428571428571429,0.7857142857142857,0.0004
858,1.205647587776184,1.186011791229248,0.6153846153846154,0.8269230769230769,0.7857142857142857,0.7142857142857143,0.0004
859,0.924045205116272,1.0820095539093018,0.6730769230769231,0.9038461538461539,0.5714285714285714,0.8571428571428571,0.0004
860,0.8976496458053589,1.3641743659973145,0.6923076923076923,0.8653846153846154,0.5,0.6428571428571429,0.0004
861,0.9287061989307404,1.1591084003448486,0.6923076923076923,0.9038461538461539,0.7142857142857143,0.7142857142857143,0.0004
862,0.8354389667510986,1.4791290760040283,0.7884615384615384,0.9038461538461539,0.6428571428571429,0.6428571428571429,0.0004
863,1.0441997647285461,1.0570929050445557,0.6730769230769231,0.8846153846153846,0.6428571428571429,0.7142857142857143,0.0004
864,1.0879461765289307,1.3424887657165527,0.6730769230769231,0.8269230769230769,0.7142857142857143,0.7142857142857143,0.0004
865,1.1142253875732422,1.571686029434204,0.6153846153846154,0.8653846153846154,0.5714285714285714,0.7142857142857143,0.0004
866,0.8920041918754578,1.0344182252883911,0.75,0.8461538461538461,0.7142857142857143,0.7142857142857143,0.0004
867,1.041913092136383,1.4826455116271973,0.6923076923076923,0.8461538461538461,0.6428571428571429,0.6428571428571429,0.0004
868,1.144608974456787,0.8711553812026978,0.6153846153846154,0.9038461538461539,0.8571428571428571,0.7857142857142857,0.0004
869,0.8404346704483032,1.5687971115112305,0.7115384615384616,0.9230769230769231,0.5,0.7142857142857143,0.0004
870,1.033458948135376,1.2589097023010254,0.6538461538461539,0.8269230769230769,0.6428571428571429,0.7857142857142857,0.0004
871,0.8211866319179535,0.8135930299758911,0.7692307692307693,0.9038461538461539,0.6428571428571429,0.7857142857142857,0.0004
872,1.0621844232082367,1.2952786684036255,0.7115384615384616,0.8653846153846154,0.5714285714285714,0.8571428571428571,0.0004
873,1.1011358499526978,1.1668801307678223,0.6923076923076923,0.8653846153846154,0.5714285714285714,0.8571428571428571,0.0004
874,1.0779756903648376,1.0497105121612549,0.6346153846153846,0.8269230769230769,0.7142857142857143,0.8571428571428571,0.0004
875,0.8571200966835022,0.9109140634536743,0.7692307692307693,0.8653846153846154,0.7142857142857143,0.8571428571428571,0.0004
876,0.9192360043525696,1.0939754247665405,0.7307692307692307,0.9230769230769231,0.5714285714285714,0.7857142857142857,0.0004
877,0.9661165475845337,1.1659491062164307,0.7115384615384616,0.8846153846153846,0.6428571428571429,0.7142857142857143,0.0004
878,0.8796414136886597,0.8453558683395386,0.7307692307692307,0.9230769230769231,0.7857142857142857,0.8571428571428571,0.0004
879,0.8338414132595062,1.240729808807373,0.7307692307692307,0.9038461538461539,0.6428571428571429,0.7142857142857143,0.0004
880,0.9558867812156677,1.5002295970916748,0.6923076923076923,0.9038461538461539,0.5714285714285714,0.7142857142857143,0.0004
881,0.9115850329399109,1.11189866065979,0.8076923076923077,0.8269230769230769,0.7142857142857143,0.7857142857142857,0.0004
882,0.7155869007110596,1.1366312503814697,0.7884615384615384,0.9230769230769231,0.5714285714285714,0.7857142857142857,0.0004
883,1.0479170083999634,1.2151970863342285,0.6538461538461539,0.8846153846153846,0.7142857142857143,0.7142857142857143,0.0004
884,0.8178947269916534,1.3799312114715576,0.7307692307692307,0.9038461538461539,0.6428571428571429,0.7142857142857143,0.0004
885,0.982128918170929,1.2428457736968994,0.7307692307692307,0.8076923076923077,0.6428571428571429,0.7857142857142857,0.0004
886,1.0097074210643768,1.1492854356765747,0.6923076923076923,0.8653846153846154,0.6428571428571429,0.7857142857142857,0.0004
887,1.0696496367454529,0.8153700828552246,0.6730769230769231,0.8076923076923077,0.7857142857142857,0.8571428571428571,0.0004
888,0.7266160249710083,1.3828572034835815,0.75,0.8461538461538461,0.7142857142857143,0.7857142857142857,0.0004
889,1.052819013595581,1.0507686138153076,0.7307692307692307,0.8846153846153846,0.7142857142857143,0.7142857142857143,0.0004
890,0.8838958740234375,1.1091678142547607,0.6538461538461539,0.8846153846153846,0.5714285714285714,0.7857142857142857,0.0004
891,0.7783905863761902,1.2908166646957397,0.7307692307692307,0.9230769230769231,0.5,0.8571428571428571,0.0004
892,0.9273109436035156,1.1130225658416748,0.75,0.8653846153846154,0.6428571428571429,0.7857142857142857,0.0004
893,0.7878610491752625,1.4146943092346191,0.7692307692307693,0.9230769230769231,0.5,0.6428571428571429,0.0004
894,1.2318506836891174,1.0884151458740234,0.5384615384615384,0.8269230769230769,0.7142857142857143,0.7857142857142857,0.0004
895,0.8337504267692566,0.9287809729576111,0.6730769230769231,0.9038461538461539,0.7142857142857143,0.8571428571428571,0.0004
896,0.9770388603210449,1.582813024520874,0.6923076923076923,0.8653846153846154,0.5,0.6428571428571429,0.0004
897,0.8783569633960724,1.7032145261764526,0.6923076923076923,0.8846153846153846,0.5714285714285714,0.6428571428571429,0.0004
898,0.9644715785980225,1.5368552207946777,0.7115384615384616,0.8846153846153846,0.5714285714285714,0.7142857142857143,0.0004
899,0.90614053606987,1.2501442432403564,0.7307692307692307,0.9038461538461539,0.6428571428571429,0.7857142857142857,0.0004
900,1.136372148990631,1.3876261711120605,0.5769230769230769,0.8461538461538461,0.6428571428571429,0.7857142857142857,0.0004
901,0.8008443117141724,1.2036188840866089,0.7692307692307693,0.8846153846153846,0.6428571428571429,0.7857142857142857,0.0004
902,0.7422620356082916,1.3582165241241455,0.7307692307692307,0.9038461538461539,0.7857142857142857,0.6428571428571429,0.0004
903,0.8206244707107544,1.1186113357543945,0.7115384615384616,0.9230769230769231,0.6428571428571429,0.8571428571428571,0.0004
904,0.7742760181427002,1.523505687713623,0.6923076923076923,0.8846153846153846,0.5714285714285714,0.7142857142857143,0.0004
905,0.9090445041656494,1.0919697284698486,0.75,0.9038461538461539,0.6428571428571429,0.7857142857142857,0.0004
906,0.8700066208839417,1.4225306510925293,0.7115384615384616,0.9038461538461539,0.7142857142857143,0.6428571428571429,0.0004
907,0.8164845407009125,0.9829559326171875,0.7307692307692307,0.9038461538461539,0.6428571428571429,0.8571428571428571,0.0004
908,0.8983621299266815,0.883796215057373,0.75,0.8846153846153846,0.6428571428571429,1.0,0.0004
909,0.6857316792011261,0.962266743183136,0.7692307692307693,0.9423076923076923,0.7142857142857143,0.7857142857142857,0.0004
910,0.9656746089458466,1.326669454574585,0.6538461538461539,0.9038461538461539,0.5714285714285714,0.8571428571428571,0.0004
911,0.8557135462760925,1.1864373683929443,0.6346153846153846,0.8846153846153846,0.7142857142857143,0.7142857142857143,0.0004
912,0.7999784052371979,1.1394751071929932,0.7307692307692307,0.9038461538461539,0.7857142857142857,0.8571428571428571,0.0004
913,0.8838716149330139,0.8512370586395264,0.7115384615384616,0.8846153846153846,0.8571428571428571,0.8571428571428571,0.0004
914,1.0821384191513062,1.0935509204864502,0.6538461538461539,0.8269230769230769,0.7857142857142857,0.7857142857142857,0.0004
915,0.8786860704421997,1.4003071784973145,0.6538461538461539,0.9038461538461539,0.6428571428571429,0.7857142857142857,0.0004
916,0.9684282541275024,0.8029412627220154,0.75,0.8269230769230769,0.7142857142857143,0.7857142857142857,0.0004
917,1.1067649722099304,1.0025756359100342,0.6346153846153846,0.8653846153846154,0.6428571428571429,0.7857142857142857,0.0004
918,0.9703664779663086,1.2743499279022217,0.5961538461538461,0.9230769230769231,0.6428571428571429,0.7142857142857143,0.0004
919,0.7735416293144226,1.5710279941558838,0.7884615384615384,0.9230769230769231,0.42857142857142855,0.7142857142857143,0.0004
920,1.0921198725700378,0.9433203339576721,0.7115384615384616,0.9038461538461539,0.6428571428571429,0.8571428571428571,0.0004
921,1.1144484281539917,1.296333909034729,0.75,0.8269230769230769,0.5,0.7857142857142857,0.0004
922,0.9671931862831116,1.7279460430145264,0.7307692307692307,0.9038461538461539,0.5,0.5714285714285714,0.0004
923,1.0767996907234192,0.9883493185043335,0.6923076923076923,0.8653846153846154,0.7857142857142857,0.7857142857142857,0.0004
924,1.084491103887558,0.9653428792953491,0.6730769230769231,0.8653846153846154,0.7857142857142857,0.7142857142857143,0.0004
925,0.9567162394523621,1.4377634525299072,0.7307692307692307,0.9230769230769231,0.6428571428571429,0.6428571428571429,0.0004
926,1.1573697328567505,1.245123028755188,0.6153846153846154,0.7692307692307693,0.6428571428571429,0.6428571428571429,0.0004
927,0.9807718396186829,1.382469654083252,0.7307692307692307,0.9038461538461539,0.42857142857142855,0.8571428571428571,0.0004
928,1.0123656392097473,0.9056539535522461,0.6346153846153846,0.9038461538461539,0.7142857142857143,0.8571428571428571,0.0004
929,1.052976816892624,1.4059911966323853,0.6730769230769231,0.9038461538461539,0.7142857142857143,0.7142857142857143,0.0004
930,1.1254698932170868,1.3971048593521118,0.6730769230769231,0.8653846153846154,0.5,0.7857142857142857,0.0004
931,0.8567436337471008,0.828790545463562,0.7307692307692307,0.8269230769230769,0.7857142857142857,1.0,0.0004
932,0.9501023292541504,1.1100962162017822,0.6923076923076923,0.8846153846153846,0.7857142857142857,0.7142857142857143,0.0004
933,0.892814964056015,0.9159356951713562,0.7307692307692307,0.9230769230769231,0.7142857142857143,0.7857142857142857,0.0004
934,1.0661521553993225,1.2911031246185303,0.5961538461538461,0.8461538461538461,0.5714285714285714,0.7857142857142857,0.0004
935,0.9650765657424927,0.7426749467849731,0.7307692307692307,0.8269230769230769,0.8571428571428571,0.8571428571428571,0.0004
936,0.9282880425453186,0.7073869109153748,0.7692307692307693,0.8653846153846154,0.8571428571428571,0.8571428571428571,0.0004
937,0.9580151736736298,1.3880665302276611,0.6923076923076923,0.8846153846153846,0.5714285714285714,0.7142857142857143,0.0004
938,0.8876181840896606,1.2787952423095703,0.75,0.8653846153846154,0.5714285714285714,0.8571428571428571,0.0004
939,1.0938069224357605,1.3119206428527832,0.6153846153846154,0.8653846153846154,0.6428571428571429,0.7857142857142857,0.0004
940,0.8257436752319336,0.6820989847183228,0.75,0.8846153846153846,0.8571428571428571,0.9285714285714286,0.0004
941,1.093571960926056,1.513170599937439,0.6153846153846154,0.8846153846153846,0.5714285714285714,0.6428571428571429,0.0004
942,1.067535400390625,1.2059743404388428,0.6538461538461539,0.8461538461538461,0.6428571428571429,0.7142857142857143,0.0004
943,0.9130491614341736,1.3070144653320312,0.7884615384615384,0.8846153846153846,0.5714285714285714,0.7142857142857143,0.0004
944,1.0309282541275024,0.9719972610473633,0.6923076923076923,0.8846153846153846,0.6428571428571429,0.8571428571428571,0.0004
945,0.7432418465614319,1.152401328086853,0.8076923076923077,0.9038461538461539,0.5714285714285714,0.7857142857142857,0.0004
946,0.9631356596946716,1.2326412200927734,0.6923076923076923,0.9038461538461539,0.7142857142857143,0.6428571428571429,0.0004
947,0.8824376463890076,1.367085576057434,0.75,0.8461538461538461,0.5714285714285714,0.6428571428571429,0.0004
948,1.0510866045951843,0.6580302715301514,0.6923076923076923,0.8653846153846154,0.7857142857142857,0.8571428571428571,0.0004
949,0.9923104047775269,0.8902708292007446,0.6923076923076923,0.8846153846153846,0.6428571428571429,0.9285714285714286,0.0004
950,0.801471620798111,1.0702803134918213,0.6730769230769231,0.9230769230769231,0.7142857142857143,0.7857142857142857,0.0004
951,0.7671908736228943,1.5620899200439453,0.7115384615384616,0.9615384615384616,0.5714285714285714,0.7142857142857143,0.0004
952,0.9621834754943848,1.1062500476837158,0.6923076923076923,0.8653846153846154,0.5714285714285714,0.8571428571428571,0.0004
953,0.9685820937156677,1.4470006227493286,0.7115384615384616,0.8653846153846154,0.5,0.6428571428571429,0.0004
954,0.8140172064304352,1.0461301803588867,0.75,0.9038461538461539,0.7142857142857143,0.8571428571428571,0.0004
955,1.1184591054916382,1.0164799690246582,0.6923076923076923,0.8076923076923077,0.8571428571428571,0.8571428571428571,0.0004
956,1.0617053508758545,1.5138663053512573,0.6346153846153846,0.8653846153846154,0.6428571428571429,0.5714285714285714,0.0004
957,0.7985800802707672,1.045067548751831,0.8076923076923077,0.8846153846153846,0.7142857142857143,0.7857142857142857,0.0004
958,0.992368757724762,1.3338574171066284,0.7115384615384616,0.8653846153846154,0.6428571428571429,0.7857142857142857,0.0004
959,0.9695440530776978,1.164233922958374,0.6730769230769231,0.8461538461538461,0.7142857142857143,0.7857142857142857,0.0004
960,0.9550029635429382,0.7045819759368896,0.7115384615384616,0.8846153846153846,0.7857142857142857,0.8571428571428571,0.0004
961,1.1202695965766907,1.4050507545471191,0.5961538461538461,0.8076923076923077,0.6428571428571429,0.7857142857142857,0.0004
962,0.9178276658058167,1.1844228506088257,0.7115384615384616,0.8653846153846154,0.6428571428571429,0.8571428571428571,0.0004
963,0.8512760400772095,1.1592631340026855,0.7692307692307693,0.9038461538461539,0.6428571428571429,0.7142857142857143,0.0004
964,0.7917133569717407,1.1997830867767334,0.8076923076923077,0.9038461538461539,0.7142857142857143,0.7142857142857143,0.0004
965,0.8050054907798767,0.8213052749633789,0.7307692307692307,0.9038461538461539,0.7857142857142857,0.8571428571428571,0.0004
966,0.9641448259353638,1.3510288000106812,0.7115384615384616,0.8269230769230769,0.42857142857142855,0.7142857142857143,0.0004
967,1.0187301337718964,1.6062896251678467,0.6346153846153846,0.8269230769230769,0.5,0.6428571428571429,0.0004
968,1.1331142783164978,1.596658706665039,0.6730769230769231,0.8461538461538461,0.5714285714285714,0.6428571428571429,0.0004
969,1.0314103960990906,1.0868629217147827,0.6346153846153846,0.8461538461538461,0.5,0.9285714285714286,0.0004
970,0.9335277378559113,1.0540192127227783,0.7307692307692307,0.8269230769230769,0.5714285714285714,0.8571428571428571,0.0004
971,0.8599310517311096,1.4182379245758057,0.7307692307692307,0.8461538461538461,0.6428571428571429,0.6428571428571429,0.0004
972,0.8283166587352753,1.2480459213256836,0.7307692307692307,0.8461538461538461,0.7142857142857143,0.7142857142857143,0.0004
973,1.0263022184371948,1.1086546182632446,0.6923076923076923,0.8461538461538461,0.7857142857142857,0.7857142857142857,0.0004
974,1.127866804599762,0.6309472918510437,0.5769230769230769,0.8076923076923077,0.8571428571428571,1.0,0.0004
975,1.114136517047882,1.1254013776779175,0.6346153846153846,0.8269230769230769,0.7142857142857143,0.7857142857142857,0.0004
976,1.034711241722107,1.177760362625122,0.6730769230769231,0.8653846153846154,0.6428571428571429,0.7857142857142857,0.0004
977,0.869247704744339,1.0396745204925537,0.6923076923076923,0.9230769230769231,0.7142857142857143,0.8571428571428571,0.0004
978,0.7538862228393555,1.2284650802612305,0.7692307692307693,0.9038461538461539,0.7142857142857143,0.7142857142857143,0.0004
979,1.0165233612060547,0.9092557430267334,0.6923076923076923,0.8461538461538461,0.7857142857142857,0.7857142857142857,0.0004
980,0.8678477704524994,0.7118576765060425,0.6538461538461539,0.9038461538461539,0.8571428571428571,0.8571428571428571,0.0004
981,0.8633425235748291,0.7334294319152832,0.7115384615384616,0.8269230769230769,0.8571428571428571,0.8571428571428571,0.0004
982,1.0107657611370087,0.880257248878479,0.7307692307692307,0.8846153846153846,0.7857142857142857,0.7857142857142857,0.0004
983,1.0742883086204529,1.4787214994430542,0.6153846153846154,0.8846153846153846,0.5,0.7142857142857143,0.0004
984,0.8384312093257904,1.143415927886963,0.8076923076923077,0.9038461538461539,0.6428571428571429,0.7857142857142857,0.0004
985,0.8141672909259796,1.4434062242507935,0.7307692307692307,0.9038461538461539,0.5,0.7857142857142857,0.0004
986,0.860107034444809,1.5449435710906982,0.7307692307692307,0.9038461538461539,0.5714285714285714,0.7142857142857143,0.0004
987,0.8793899714946747,1.4528512954711914,0.8076923076923077,0.9230769230769231,0.5,0.7142857142857143,0.0004
988,0.8323031663894653,0.9418058395385742,0.7307692307692307,0.8846153846153846,0.7142857142857143,0.8571428571428571,0.0004
989,0.8245673775672913,0.8977640867233276,0.7692307692307693,0.9615384615384616,0.7857142857142857,0.8571428571428571,0.0004
990,0.8289180397987366,0.7372128963470459,0.7115384615384616,0.9423076923076923,0.7857142857142857,0.8571428571428571,0.0004
991,0.9606126546859741,1.2261420488357544,0.7307692307692307,0.8846153846153846,0.5714285714285714,0.7142857142857143,0.0004
992,0.8807099163532257,1.4096020460128784,0.7115384615384616,0.9038461538461539,0.42857142857142855,0.7857142857142857,0.0004
