epoch,train_loss,val_loss,train_acc_action,train_acc_status,val_acc_action,val_acc_status,learning_rate
1,1.6822611093521118,1.5871728658676147,0.2692307692307692,0.7692307692307693,0.35714285714285715,0.8571428571428571,0.0004
2,1.55594140291214,1.589707374572754,0.46153846153846156,0.8269230769230769,0.21428571428571427,0.8571428571428571,0.0004
3,1.6067570447921753,1.5805375576019287,0.36538461538461536,0.8269230769230769,0.21428571428571427,0.8571428571428571,0.0004
4,1.5350863933563232,1.5214942693710327,0.36538461538461536,0.8269230769230769,0.21428571428571427,0.8571428571428571,0.0004
5,1.600184679031372,1.5082521438598633,0.38461538461538464,0.8269230769230769,0.42857142857142855,0.8571428571428571,0.0004
6,1.6029348969459534,1.5071921348571777,0.25,0.8269230769230769,0.42857142857142855,0.8571428571428571,0.0004
7,1.5689208507537842,1.5204367637634277,0.4230769230769231,0.8269230769230769,0.21428571428571427,0.8571428571428571,0.0004
8,1.5770410299301147,1.535949945449829,0.36538461538461536,0.8269230769230769,0.21428571428571427,0.8571428571428571,0.0004
9,1.5933005809783936,1.5438241958618164,0.3269230769230769,0.8269230769230769,0.21428571428571427,0.8571428571428571,0.0004
10,1.5506817698478699,1.5408746004104614,0.36538461538461536,0.8269230769230769,0.21428571428571427,0.8571428571428571,0.0004
11,1.5479640364646912,1.5369722843170166,0.34615384615384615,0.8269230769230769,0.35714285714285715,0.8571428571428571,0.0004
12,1.5574061870574951,1.5438544750213623,0.34615384615384615,0.8269230769230769,0.21428571428571427,0.8571428571428571,0.0004
13,1.5552892684936523,1.5480103492736816,0.21153846153846154,0.8269230769230769,0.21428571428571427,0.8571428571428571,0.0004
14,1.5728671550750732,1.5520148277282715,0.38461538461538464,0.8269230769230769,0.21428571428571427,0.8571428571428571,0.0004
15,1.5426358580589294,1.5498902797698975,0.36538461538461536,0.8269230769230769,0.21428571428571427,0.8571428571428571,0.0004
16,1.5833443403244019,1.543323278427124,0.36538461538461536,0.8269230769230769,0.21428571428571427,0.8571428571428571,0.0004
17,1.5317981243133545,1.5353649854660034,0.36538461538461536,0.8269230769230769,0.21428571428571427,0.8571428571428571,0.0004
18,1.60256826877594,1.5281635522842407,0.36538461538461536,0.8269230769230769,0.21428571428571427,0.8571428571428571,0.0004
19,1.6033992171287537,1.5205105543136597,0.34615384615384615,0.8269230769230769,0.35714285714285715,0.8571428571428571,0.0004
20,1.6101565957069397,1.516326665878296,0.3269230769230769,0.8269230769230769,0.35714285714285715,0.8571428571428571,0.0004
21,1.6138371229171753,1.5146911144256592,0.3269230769230769,0.8269230769230769,0.35714285714285715,0.8571428571428571,0.0004
22,1.5293669700622559,1.5107845067977905,0.3269230769230769,0.8269230769230769,0.35714285714285715,0.8571428571428571,0.0004
23,1.5684475302696228,1.51072359085083,0.34615384615384615,0.8269230769230769,0.35714285714285715,0.8571428571428571,0.0004
24,1.553563117980957,1.5143393278121948,0.3269230769230769,0.8269230769230769,0.21428571428571427,0.8571428571428571,0.0004
25,1.5317245721817017,1.5257000923156738,0.46153846153846156,0.8269230769230769,0.21428571428571427,0.8571428571428571,0.0004
26,1.544190526008606,1.5434815883636475,0.40384615384615385,0.8269230769230769,0.21428571428571427,0.8571428571428571,0.0004
27,1.570563793182373,1.5511256456375122,0.36538461538461536,0.8269230769230769,0.21428571428571427,0.8571428571428571,0.0004
28,1.5725693702697754,1.5548298358917236,0.36538461538461536,0.8269230769230769,0.21428571428571427,0.8571428571428571,0.0004
29,1.5588058233261108,1.5505701303482056,0.36538461538461536,0.8269230769230769,0.21428571428571427,0.8571428571428571,0.0004
30,1.6108375191688538,1.5503997802734375,0.36538461538461536,0.8269230769230769,0.21428571428571427,0.8571428571428571,0.0004
31,1.6031564474105835,1.5469059944152832,0.38461538461538464,0.8269230769230769,0.21428571428571427,0.8571428571428571,0.0004
32,1.5530207753181458,1.5415488481521606,0.3269230769230769,0.8269230769230769,0.21428571428571427,0.8571428571428571,0.0004
33,1.5879822969436646,1.5334935188293457,0.36538461538461536,0.8269230769230769,0.35714285714285715,0.8571428571428571,0.0004
34,1.5783271193504333,1.5269715785980225,0.34615384615384615,0.8269230769230769,0.35714285714285715,0.8571428571428571,0.0004
35,1.5252313613891602,1.5215144157409668,0.3269230769230769,0.8269230769230769,0.35714285714285715,0.8571428571428571,0.0004
36,1.5369403958320618,1.5192844867706299,0.38461538461538464,0.8269230769230769,0.35714285714285715,0.8571428571428571,0.0004
37,1.5973065495491028,1.522439956665039,0.34615384615384615,0.8269230769230769,0.35714285714285715,0.8571428571428571,0.0004
38,1.5707588195800781,1.5252487659454346,0.3269230769230769,0.8269230769230769,0.21428571428571427,0.8571428571428571,0.0004
39,1.5467358231544495,1.5287781953811646,0.34615384615384615,0.8269230769230769,0.21428571428571427,0.8571428571428571,0.0004
40,1.5450174808502197,1.5323783159255981,0.3076923076923077,0.8269230769230769,0.21428571428571427,0.8571428571428571,0.0004
41,1.5597763061523438,1.5365831851959229,0.3269230769230769,0.8269230769230769,0.21428571428571427,0.8571428571428571,0.0004
42,1.5824092626571655,1.541825771331787,0.38461538461538464,0.8269230769230769,0.21428571428571427,0.8571428571428571,0.0004
43,1.5660874843597412,1.547056794166565,0.36538461538461536,0.8269230769230769,0.21428571428571427,0.8571428571428571,0.0004
44,1.5245288610458374,1.5529733896255493,0.36538461538461536,0.8269230769230769,0.21428571428571427,0.8571428571428571,0.0004
45,1.581628680229187,1.5542778968811035,0.36538461538461536,0.8269230769230769,0.21428571428571427,0.8571428571428571,0.0004
46,1.5701161623001099,1.5511794090270996,0.36538461538461536,0.8269230769230769,0.21428571428571427,0.8571428571428571,0.0004
47,1.565047264099121,1.5497524738311768,0.36538461538461536,0.8269230769230769,0.21428571428571427,0.8571428571428571,0.0004
48,1.5690152645111084,1.5471371412277222,0.36538461538461536,0.8269230769230769,0.21428571428571427,0.8571428571428571,0.0004
49,1.5766718983650208,1.5419503450393677,0.34615384615384615,0.8269230769230769,0.21428571428571427,0.8571428571428571,0.0004
50,1.559492588043213,1.5404363870620728,0.36538461538461536,0.8269230769230769,0.21428571428571427,0.8571428571428571,0.0004
51,1.5553693771362305,1.5353598594665527,0.38461538461538464,0.8269230769230769,0.21428571428571427,0.8571428571428571,0.0004
52,1.5373995304107666,1.528683066368103,0.28846153846153844,0.8269230769230769,0.21428571428571427,0.8571428571428571,0.0004
53,1.5750467777252197,1.5237343311309814,0.4423076923076923,0.8269230769230769,0.21428571428571427,0.8571428571428571,0.0004
54,1.537993848323822,1.5197705030441284,0.2692307692307692,0.8269230769230769,0.21428571428571427,0.8571428571428571,0.0004
55,1.569191336631775,1.5171505212783813,0.34615384615384615,0.8269230769230769,0.21428571428571427,0.8571428571428571,0.0004
56,1.55971097946167,1.5186774730682373,0.23076923076923078,0.8269230769230769,0.21428571428571427,0.8571428571428571,0.0004
57,1.5560030937194824,1.5209591388702393,0.4230769230769231,0.8269230769230769,0.21428571428571427,0.8571428571428571,0.0004
58,1.5867735743522644,1.5245692729949951,0.3269230769230769,0.8269230769230769,0.21428571428571427,0.8571428571428571,0.0004
59,1.5528424382209778,1.5267027616500854,0.36538461538461536,0.8269230769230769,0.21428571428571427,0.8571428571428571,0.0004
60,1.5760807394981384,1.5299525260925293,0.36538461538461536,0.8269230769230769,0.21428571428571427,0.8571428571428571,0.0004
61,1.5521929264068604,1.5364656448364258,0.40384615384615385,0.8269230769230769,0.21428571428571427,0.8571428571428571,0.0004
62,1.5258330702781677,1.5418078899383545,0.36538461538461536,0.8269230769230769,0.21428571428571427,0.8571428571428571,0.0004
63,1.5735681056976318,1.5462217330932617,0.36538461538461536,0.8269230769230769,0.21428571428571427,0.8571428571428571,0.0004
64,1.5529685020446777,1.5492035150527954,0.36538461538461536,0.8269230769230769,0.21428571428571427,0.8571428571428571,0.0004
65,1.5821044445037842,1.5474238395690918,0.36538461538461536,0.8269230769230769,0.21428571428571427,0.8571428571428571,0.0004
66,1.5498590469360352,1.5453003644943237,0.36538461538461536,0.8269230769230769,0.21428571428571427,0.8571428571428571,0.0004
67,1.5723227262496948,1.5394375324249268,0.36538461538461536,0.8269230769230769,0.21428571428571427,0.8571428571428571,0.0004
68,1.5386296510696411,1.5334763526916504,0.34615384615384615,0.8269230769230769,0.21428571428571427,0.8571428571428571,0.0004
69,1.5659250020980835,1.5283234119415283,0.36538461538461536,0.8269230769230769,0.21428571428571427,0.8571428571428571,0.0004
70,1.5614673495292664,1.5240907669067383,0.34615384615384615,0.8269230769230769,0.21428571428571427,0.8571428571428571,0.0004
71,1.5379088521003723,1.5229356288909912,0.28846153846153844,0.8269230769230769,0.21428571428571427,0.8571428571428571,0.0004
72,1.5783133506774902,1.525914192199707,0.3076923076923077,0.8269230769230769,0.21428571428571427,0.8571428571428571,0.0004
73,1.5679643154144287,1.5293782949447632,0.36538461538461536,0.8269230769230769,0.21428571428571427,0.8571428571428571,0.0004
74,1.555512249469757,1.5301883220672607,0.40384615384615385,0.8269230769230769,0.21428571428571427,0.8571428571428571,0.0004
75,1.6013414859771729,1.5336734056472778,0.34615384615384615,0.8269230769230769,0.21428571428571427,0.8571428571428571,0.0004
76,1.5618784427642822,1.5345816612243652,0.34615384615384615,0.8269230769230769,0.21428571428571427,0.8571428571428571,0.0004
77,1.5666711926460266,1.5375851392745972,0.36538461538461536,0.8269230769230769,0.21428571428571427,0.8571428571428571,0.0004
78,1.5548148155212402,1.5382452011108398,0.34615384615384615,0.8269230769230769,0.21428571428571427,0.8571428571428571,0.0004
79,1.5887618660926819,1.5388481616973877,0.36538461538461536,0.8269230769230769,0.21428571428571427,0.8571428571428571,0.0004
80,1.5460851192474365,1.5377291440963745,0.38461538461538464,0.8269230769230769,0.21428571428571427,0.8571428571428571,0.0004
81,1.5527201294898987,1.5360480546951294,0.3076923076923077,0.8269230769230769,0.21428571428571427,0.8571428571428571,0.0004
82,1.587916910648346,1.5349786281585693,0.46153846153846156,0.8269230769230769,0.21428571428571427,0.8571428571428571,0.0004
83,1.530259370803833,1.5305696725845337,0.4230769230769231,0.8269230769230769,0.21428571428571427,0.8571428571428571,0.0004
84,1.5739198923110962,1.5277445316314697,0.36538461538461536,0.8269230769230769,0.21428571428571427,0.8571428571428571,0.0004
85,1.5859361290931702,1.5257478952407837,0.34615384615384615,0.8269230769230769,0.21428571428571427,0.8571428571428571,0.0004
86,1.5518206357955933,1.5249278545379639,0.36538461538461536,0.8269230769230769,0.21428571428571427,0.8571428571428571,0.0004
87,1.5376712679862976,1.5233433246612549,0.38461538461538464,0.8269230769230769,0.21428571428571427,0.8571428571428571,0.0004
88,1.551290214061737,1.5240942239761353,0.34615384615384615,0.8269230769230769,0.21428571428571427,0.8571428571428571,0.0004
89,1.5830334424972534,1.5263923406600952,0.3269230769230769,0.8269230769230769,0.21428571428571427,0.8571428571428571,0.0004
90,1.5700682401657104,1.5286202430725098,0.38461538461538464,0.8269230769230769,0.21428571428571427,0.8571428571428571,0.0004
91,1.578472375869751,1.5309686660766602,0.4230769230769231,0.8269230769230769,0.21428571428571427,0.8571428571428571,0.0004
92,1.5608407855033875,1.5340951681137085,0.36538461538461536,0.8269230769230769,0.21428571428571427,0.8571428571428571,0.0004
93,1.509553849697113,1.5327616930007935,0.38461538461538464,0.8269230769230769,0.21428571428571427,0.8571428571428571,0.0004
94,1.5460016131401062,1.5332551002502441,0.36538461538461536,0.8269230769230769,0.21428571428571427,0.8571428571428571,0.0004
95,1.5302983522415161,1.5336333513259888,0.38461538461538464,0.8269230769230769,0.21428571428571427,0.8571428571428571,0.0004
96,1.5870961546897888,1.5370829105377197,0.36538461538461536,0.8269230769230769,0.21428571428571427,0.8571428571428571,0.0004
97,1.5561347007751465,1.5364338159561157,0.36538461538461536,0.8269230769230769,0.21428571428571427,0.8571428571428571,0.0004
98,1.5497731566429138,1.5345566272735596,0.36538461538461536,0.8269230769230769,0.21428571428571427,0.8571428571428571,0.0004
99,1.5511966943740845,1.5329262018203735,0.34615384615384615,0.8269230769230769,0.21428571428571427,0.8571428571428571,0.0004
100,1.6161851286888123,1.5313420295715332,0.38461538461538464,0.8269230769230769,0.21428571428571427,0.8571428571428571,0.0004
101,1.5610459446907043,1.5289536714553833,0.3076923076923077,0.8269230769230769,0.21428571428571427,0.8571428571428571,0.0004
102,1.5525134801864624,1.5283534526824951,0.36538461538461536,0.8269230769230769,0.21428571428571427,0.8571428571428571,0.0004
103,1.5767511129379272,1.5276658535003662,0.3269230769230769,0.8269230769230769,0.21428571428571427,0.8571428571428571,0.0004
104,1.5513573288917542,1.5266342163085938,0.36538461538461536,0.8269230769230769,0.21428571428571427,0.8571428571428571,0.0004
105,1.5576490759849548,1.5285840034484863,0.3269230769230769,0.8269230769230769,0.21428571428571427,0.8571428571428571,0.0004
106,1.5330132842063904,1.5331342220306396,0.36538461538461536,0.8269230769230769,0.21428571428571427,0.8571428571428571,0.0004
107,1.5889129042625427,1.536170482635498,0.36538461538461536,0.8269230769230769,0.21428571428571427,0.8571428571428571,0.0004
108,1.561525046825409,1.5348143577575684,0.36538461538461536,0.8269230769230769,0.21428571428571427,0.8571428571428571,0.0004
109,1.5456947684288025,1.5347942113876343,0.36538461538461536,0.8269230769230769,0.21428571428571427,0.8571428571428571,0.0004
110,1.5877941846847534,1.534886121749878,0.36538461538461536,0.8269230769230769,0.21428571428571427,0.8571428571428571,0.0004
111,1.5468372106552124,1.5342049598693848,0.34615384615384615,0.8269230769230769,0.21428571428571427,0.8571428571428571,0.0004
112,1.5672836303710938,1.534846544265747,0.38461538461538464,0.8269230769230769,0.21428571428571427,0.8571428571428571,0.0004
113,1.5589951872825623,1.5358917713165283,0.36538461538461536,0.8269230769230769,0.21428571428571427,0.8571428571428571,0.0004
114,1.5190063118934631,1.5383903980255127,0.40384615384615385,0.8269230769230769,0.2857142857142857,0.8571428571428571,0.0004
115,1.569235622882843,1.5414505004882812,0.28846153846153844,0.8269230769230769,0.21428571428571427,0.8571428571428571,0.0004
116,1.5557833313941956,1.54301118850708,0.34615384615384615,0.8269230769230769,0.21428571428571427,0.8571428571428571,0.0004
117,1.564239740371704,1.5425840616226196,0.3269230769230769,0.8269230769230769,0.21428571428571427,0.8571428571428571,0.0004
118,1.5431495904922485,1.5438649654388428,0.34615384615384615,0.8269230769230769,0.21428571428571427,0.8571428571428571,0.0004
119,1.549748718738556,1.5467212200164795,0.38461538461538464,0.8269230769230769,0.21428571428571427,0.8571428571428571,0.0004
120,1.6063622832298279,1.5480060577392578,0.36538461538461536,0.8269230769230769,0.21428571428571427,0.8571428571428571,0.0004
121,1.5840197205543518,1.5444111824035645,0.36538461538461536,0.8269230769230769,0.21428571428571427,0.8571428571428571,0.0004
122,1.5749549269676208,1.5392391681671143,0.36538461538461536,0.8269230769230769,0.21428571428571427,0.8571428571428571,0.0004
123,1.535317838191986,1.5323665142059326,0.36538461538461536,0.8269230769230769,0.21428571428571427,0.8571428571428571,0.0004
124,1.560378611087799,1.5300002098083496,0.36538461538461536,0.8269230769230769,0.21428571428571427,0.8571428571428571,0.0004
125,1.5618565082550049,1.5308592319488525,0.3269230769230769,0.8269230769230769,0.21428571428571427,0.8571428571428571,0.0004
126,1.554114580154419,1.5304388999938965,0.36538461538461536,0.8269230769230769,0.21428571428571427,0.8571428571428571,0.0004
127,1.5508411526679993,1.5318278074264526,0.3269230769230769,0.8269230769230769,0.21428571428571427,0.8571428571428571,0.0004
128,1.5630329847335815,1.5354530811309814,0.36538461538461536,0.8269230769230769,0.21428571428571427,0.8571428571428571,0.0004
129,1.5580230951309204,1.538813591003418,0.38461538461538464,0.8269230769230769,0.21428571428571427,0.8571428571428571,0.0004
130,1.5851295590400696,1.5456913709640503,0.2692307692307692,0.8269230769230769,0.21428571428571427,0.8571428571428571,0.0004
131,1.5385299324989319,1.5528264045715332,0.4230769230769231,0.8269230769230769,0.21428571428571427,0.8571428571428571,0.0004
132,1.5842097997665405,1.5576122999191284,0.36538461538461536,0.8269230769230769,0.21428571428571427,0.8571428571428571,0.0004
133,1.5498571991920471,1.5560452938079834,0.36538461538461536,0.8269230769230769,0.21428571428571427,0.8571428571428571,0.0004
134,1.5544868111610413,1.5518054962158203,0.36538461538461536,0.8269230769230769,0.21428571428571427,0.8571428571428571,0.0004
135,1.5281451344490051,1.5486178398132324,0.36538461538461536,0.8269230769230769,0.21428571428571427,0.8571428571428571,0.0004
136,1.5496856570243835,1.5406420230865479,0.36538461538461536,0.8269230769230769,0.21428571428571427,0.8571428571428571,0.0004
137,1.549719512462616,1.5338706970214844,0.36538461538461536,0.8269230769230769,0.21428571428571427,0.8571428571428571,0.0004
138,1.5035721063613892,1.5298562049865723,0.36538461538461536,0.8269230769230769,0.21428571428571427,0.8571428571428571,0.0004
139,1.566727876663208,1.5308151245117188,0.34615384615384615,0.8269230769230769,0.21428571428571427,0.8571428571428571,0.0004
140,1.5761476159095764,1.5316094160079956,0.36538461538461536,0.8269230769230769,0.21428571428571427,0.8571428571428571,0.0004
141,1.5674834251403809,1.5322142839431763,0.36538461538461536,0.8269230769230769,0.21428571428571427,0.8571428571428571,0.0004
142,1.5772300362586975,1.5329121351242065,0.36538461538461536,0.8269230769230769,0.21428571428571427,0.8571428571428571,0.0004
143,1.5552295446395874,1.5311167240142822,0.36538461538461536,0.8269230769230769,0.21428571428571427,0.8571428571428571,0.0004
144,1.597267985343933,1.5317144393920898,0.36538461538461536,0.8269230769230769,0.21428571428571427,0.8571428571428571,0.0004
145,1.5657473802566528,1.528653860092163,0.36538461538461536,0.8269230769230769,0.21428571428571427,0.8571428571428571,0.0004
146,1.5593260526657104,1.5276954174041748,0.40384615384615385,0.8269230769230769,0.21428571428571427,0.8571428571428571,0.0004
147,1.5584322810173035,1.5259778499603271,0.28846153846153844,0.8269230769230769,0.21428571428571427,0.8571428571428571,0.0004
148,1.5585466027259827,1.5258301496505737,0.3269230769230769,0.8269230769230769,0.35714285714285715,0.8571428571428571,0.0004
149,1.5319695472717285,1.526259422302246,0.36538461538461536,0.8269230769230769,0.35714285714285715,0.8571428571428571,0.0004
150,1.5765718221664429,1.531895399093628,0.34615384615384615,0.8269230769230769,0.21428571428571427,0.8571428571428571,0.0004
151,1.5703970789909363,1.535271406173706,0.28846153846153844,0.8269230769230769,0.21428571428571427,0.8571428571428571,0.0004
152,1.584768533706665,1.5359995365142822,0.34615384615384615,0.8269230769230769,0.21428571428571427,0.8571428571428571,0.0004
153,1.593328595161438,1.5407001972198486,0.38461538461538464,0.8269230769230769,0.21428571428571427,0.8571428571428571,0.0004
154,1.5723929405212402,1.543978214263916,0.36538461538461536,0.8269230769230769,0.21428571428571427,0.8571428571428571,0.0004
155,1.5634267330169678,1.547330617904663,0.36538461538461536,0.8269230769230769,0.21428571428571427,0.8571428571428571,0.0004
156,1.5625517964363098,1.546593189239502,0.36538461538461536,0.8269230769230769,0.21428571428571427,0.8571428571428571,0.0004
157,1.5678501725196838,1.5443623065948486,0.36538461538461536,0.8269230769230769,0.21428571428571427,0.8571428571428571,0.0004
158,1.5433476567268372,1.5413811206817627,0.36538461538461536,0.8269230769230769,0.21428571428571427,0.8571428571428571,0.0004
159,1.5358858704566956,1.5356106758117676,0.34615384615384615,0.8269230769230769,0.21428571428571427,0.8571428571428571,0.0004
160,1.551161766052246,1.529909372329712,0.38461538461538464,0.8269230769230769,0.21428571428571427,0.8571428571428571,0.0004
161,1.5469676852226257,1.5265653133392334,0.40384615384615385,0.8269230769230769,0.21428571428571427,0.8571428571428571,0.0004
162,1.5671111941337585,1.5261391401290894,0.3269230769230769,0.8269230769230769,0.21428571428571427,0.8571428571428571,0.0004
163,1.542805790901184,1.524935245513916,0.34615384615384615,0.8269230769230769,0.21428571428571427,0.8571428571428571,0.0004
164,1.5363568663597107,1.5273668766021729,0.36538461538461536,0.8269230769230769,0.21428571428571427,0.8571428571428571,0.0004
165,1.5484370589256287,1.533090353012085,0.36538461538461536,0.8269230769230769,0.21428571428571427,0.8571428571428571,0.0004
166,1.5762286186218262,1.5334964990615845,0.38461538461538464,0.8269230769230769,0.21428571428571427,0.8571428571428571,0.0004
167,1.5278898477554321,1.540628433227539,0.36538461538461536,0.8269230769230769,0.21428571428571427,0.8571428571428571,0.0004
168,1.546013593673706,1.5387382507324219,0.36538461538461536,0.8269230769230769,0.21428571428571427,0.8571428571428571,0.0004
169,1.572860836982727,1.5364433526992798,0.36538461538461536,0.8269230769230769,0.21428571428571427,0.8571428571428571,0.0004
170,1.5609652400016785,1.5380021333694458,0.36538461538461536,0.8269230769230769,0.21428571428571427,0.8571428571428571,0.0004
171,1.5842130780220032,1.5336010456085205,0.36538461538461536,0.8269230769230769,0.21428571428571427,0.8571428571428571,0.0004
172,1.5529693961143494,1.5266913175582886,0.34615384615384615,0.8269230769230769,0.21428571428571427,0.8571428571428571,0.0004
173,1.5593243837356567,1.5249249935150146,0.34615384615384615,0.8269230769230769,0.21428571428571427,0.8571428571428571,0.0004
174,1.5799195766448975,1.5293750762939453,0.3269230769230769,0.8269230769230769,0.21428571428571427,0.8571428571428571,0.0004
175,1.5854917764663696,1.5273609161376953,0.28846153846153844,0.8269230769230769,0.21428571428571427,0.8571428571428571,0.0004
176,1.5639851093292236,1.5238251686096191,0.40384615384615385,0.8269230769230769,0.21428571428571427,0.8571428571428571,0.0004
177,1.5353480577468872,1.5228215456008911,0.3076923076923077,0.8269230769230769,0.2857142857142857,0.8571428571428571,0.0004
178,1.5694255232810974,1.5190974473953247,0.28846153846153844,0.8269230769230769,0.14285714285714285,0.8571428571428571,0.0004
179,1.5241633653640747,1.5193134546279907,0.2692307692307692,0.8269230769230769,0.21428571428571427,0.8571428571428571,0.0004
180,1.5213410258293152,1.5216853618621826,0.4230769230769231,0.8269230769230769,0.21428571428571427,0.8571428571428571,0.0004
181,1.5333612561225891,1.5261597633361816,0.3076923076923077,0.8269230769230769,0.21428571428571427,0.8571428571428571,0.0004
182,1.5632295608520508,1.5368154048919678,0.34615384615384615,0.8269230769230769,0.21428571428571427,0.8571428571428571,0.0004
183,1.5473445653915405,1.5422776937484741,0.36538461538461536,0.8269230769230769,0.21428571428571427,0.8571428571428571,0.0004
184,1.57552969455719,1.5470956563949585,0.36538461538461536,0.8269230769230769,0.21428571428571427,0.8571428571428571,0.0004
185,1.5818125009536743,1.5235594511032104,0.36538461538461536,0.8269230769230769,0.21428571428571427,0.8571428571428571,0.0004
186,1.5459548830986023,1.5049492120742798,0.4423076923076923,0.8269230769230769,0.35714285714285715,0.8571428571428571,0.0004
187,1.5347754955291748,1.4854530096054077,0.38461538461538464,0.8269230769230769,0.35714285714285715,0.8571428571428571,0.0004
188,1.4960010051727295,1.4878504276275635,0.4423076923076923,0.8269230769230769,0.21428571428571427,0.8571428571428571,0.0004
189,1.5365890264511108,1.4763104915618896,0.4230769230769231,0.8269230769230769,0.42857142857142855,0.8571428571428571,0.0004
190,1.5381914973258972,1.5516245365142822,0.3269230769230769,0.8269230769230769,0.21428571428571427,0.8571428571428571,0.0004
191,1.5342149138450623,1.541206955909729,0.36538461538461536,0.8269230769230769,0.21428571428571427,0.8571428571428571,0.0004
192,1.4736505150794983,1.4667611122131348,0.4230769230769231,0.8269230769230769,0.5,0.8571428571428571,0.0004
193,1.4928094148635864,1.5011091232299805,0.5192307692307693,0.8269230769230769,0.5,0.8571428571428571,0.0004
194,1.5568379759788513,1.5018575191497803,0.40384615384615385,0.8269230769230769,0.5,0.8571428571428571,0.0004
195,1.5436110496520996,1.4093595743179321,0.34615384615384615,0.8269230769230769,0.5,0.8571428571428571,0.0004
196,1.4547019600868225,1.4068794250488281,0.4423076923076923,0.8269230769230769,0.5714285714285714,0.8571428571428571,0.0004
197,1.4362374544143677,1.464473843574524,0.4423076923076923,0.8269230769230769,0.5714285714285714,0.8571428571428571,0.0004
198,1.444656789302826,1.467281460762024,0.4423076923076923,0.8269230769230769,0.5714285714285714,0.8571428571428571,0.0004
199,1.4377129077911377,1.4344565868377686,0.5576923076923077,0.8269230769230769,0.5714285714285714,0.8571428571428571,0.0004
200,1.527042031288147,1.372995138168335,0.4423076923076923,0.8269230769230769,0.7142857142857143,0.8571428571428571,0.0004
201,1.5916745066642761,1.3670998811721802,0.46153846153846156,0.8269230769230769,0.5,0.8571428571428571,0.0004
202,1.4944108128547668,1.4956711530685425,0.4423076923076923,0.8269230769230769,0.5,0.8571428571428571,0.0004
203,1.4252673387527466,1.5840438604354858,0.4423076923076923,0.8269230769230769,0.2857142857142857,0.8571428571428571,0.0004
204,1.5469948649406433,1.4000968933105469,0.40384615384615385,0.8269230769230769,0.5,0.8571428571428571,0.0004
205,1.489635169506073,1.4696534872055054,0.46153846153846156,0.8269230769230769,0.5,0.8571428571428571,0.0004
206,1.5648505687713623,1.4627026319503784,0.36538461538461536,0.8269230769230769,0.42857142857142855,0.8571428571428571,0.0004
207,1.5851267576217651,1.4386794567108154,0.40384615384615385,0.8269230769230769,0.42857142857142855,0.8571428571428571,0.0004
208,1.4854294657707214,1.4690206050872803,0.4230769230769231,0.8269230769230769,0.42857142857142855,0.8571428571428571,0.0004
209,1.4661977887153625,1.5159515142440796,0.4807692307692308,0.8269230769230769,0.2857142857142857,0.8571428571428571,0.0004
210,1.5776102542877197,1.4797120094299316,0.36538461538461536,0.8269230769230769,0.2857142857142857,0.8571428571428571,0.0004
211,1.4830424189567566,1.4430445432662964,0.4807692307692308,0.8269230769230769,0.5,0.8571428571428571,0.0004
212,1.5085651874542236,1.459532380104065,0.5384615384615384,0.8269230769230769,0.42857142857142855,0.8571428571428571,0.0004
213,1.5562600493431091,1.4677979946136475,0.40384615384615385,0.8269230769230769,0.42857142857142855,0.8571428571428571,0.0004
214,1.5206756591796875,1.4607332944869995,0.40384615384615385,0.8269230769230769,0.5714285714285714,0.8571428571428571,0.0004
215,1.5689066648483276,1.4630359411239624,0.4423076923076923,0.8269230769230769,0.42857142857142855,0.8571428571428571,0.0004
216,1.4930216670036316,1.4512617588043213,0.36538461538461536,0.8269230769230769,0.5,0.8571428571428571,0.0004
217,1.506845235824585,1.4383729696273804,0.3076923076923077,0.8269230769230769,0.5,0.8571428571428571,0.0004
218,1.5104619860649109,1.50515615940094,0.4423076923076923,0.8269230769230769,0.5,0.8571428571428571,0.0004
219,1.528068482875824,1.5194863080978394,0.3269230769230769,0.8269230769230769,0.21428571428571427,0.8571428571428571,0.0004
220,1.5102007985115051,1.5364270210266113,0.38461538461538464,0.8269230769230769,0.21428571428571427,0.8571428571428571,0.0004
221,1.5031869411468506,1.553704023361206,0.36538461538461536,0.8269230769230769,0.21428571428571427,0.8571428571428571,0.0004
222,1.5030848979949951,1.5928469896316528,0.36538461538461536,0.8269230769230769,0.21428571428571427,0.8571428571428571,0.0004
223,1.4846898317337036,1.6328078508377075,0.36538461538461536,0.8269230769230769,0.21428571428571427,0.8571428571428571,0.0004
224,1.4282399415969849,1.469571828842163,0.38461538461538464,0.8269230769230769,0.14285714285714285,0.8571428571428571,0.0004
225,1.4569268822669983,1.4206585884094238,0.4423076923076923,0.8269230769230769,0.35714285714285715,0.8571428571428571,0.0004
226,1.447663426399231,1.4710476398468018,0.46153846153846156,0.8269230769230769,0.35714285714285715,0.8571428571428571,0.0004
227,1.4342108368873596,1.5205086469650269,0.36538461538461536,0.8269230769230769,0.5714285714285714,0.8571428571428571,0.0004
228,1.461686611175537,1.4464349746704102,0.4230769230769231,0.8269230769230769,0.5,0.8571428571428571,0.0004
229,1.5286909937858582,1.388243317604065,0.38461538461538464,0.8269230769230769,0.6428571428571429,0.8571428571428571,0.0004
230,1.4670189023017883,1.430128812789917,0.5,0.8269230769230769,0.5714285714285714,0.8571428571428571,0.0004
231,1.4020684361457825,1.358837366104126,0.5769230769230769,0.8269230769230769,0.6428571428571429,0.8571428571428571,0.0004
232,1.518072485923767,1.3896100521087646,0.4423076923076923,0.8269230769230769,0.5714285714285714,0.8571428571428571,0.0004
233,1.3970326781272888,1.398110032081604,0.5,0.8269230769230769,0.5,0.8571428571428571,0.0004
234,1.5099839568138123,1.476304054260254,0.4230769230769231,0.8269230769230769,0.42857142857142855,0.8571428571428571,0.0004
235,1.5700925588607788,1.371396541595459,0.40384615384615385,0.8269230769230769,0.5714285714285714,0.8571428571428571,0.0004
236,1.549609363079071,1.4617871046066284,0.40384615384615385,0.8269230769230769,0.5,0.8571428571428571,0.0004
237,1.5325936079025269,1.3899353742599487,0.36538461538461536,0.8269230769230769,0.5,0.8571428571428571,0.0004
238,1.4910417795181274,1.47456955909729,0.38461538461538464,0.8269230769230769,0.42857142857142855,0.8571428571428571,0.0004
239,1.5018417835235596,1.4787671566009521,0.38461538461538464,0.8269230769230769,0.42857142857142855,0.8571428571428571,0.0004
240,1.5036967992782593,1.527169108390808,0.40384615384615385,0.8269230769230769,0.5,0.8571428571428571,0.0004
241,1.461618721485138,1.4898103475570679,0.4230769230769231,0.8269230769230769,0.42857142857142855,0.8571428571428571,0.0004
242,1.4662132859230042,1.4234428405761719,0.4230769230769231,0.8269230769230769,0.5714285714285714,0.8571428571428571,0.0004
243,1.4504854083061218,1.4935561418533325,0.4423076923076923,0.8269230769230769,0.2857142857142857,0.8571428571428571,0.0004
244,1.516730010509491,1.4708236455917358,0.4423076923076923,0.8269230769230769,0.35714285714285715,0.8571428571428571,0.0004
245,1.4984791278839111,1.449154019355774,0.38461538461538464,0.8269230769230769,0.5,0.8571428571428571,0.0004
246,1.5075324773788452,1.440133810043335,0.5384615384615384,0.8269230769230769,0.5,0.8571428571428571,0.0004
247,1.4513333439826965,1.4782330989837646,0.4230769230769231,0.8269230769230769,0.5714285714285714,0.8571428571428571,0.0004
248,1.4706127643585205,1.4898767471313477,0.38461538461538464,0.8269230769230769,0.5714285714285714,0.8571428571428571,0.0004
249,1.459416151046753,1.418503999710083,0.38461538461538464,0.8269230769230769,0.5,0.8571428571428571,0.0004
250,1.535447359085083,1.4845879077911377,0.36538461538461536,0.8269230769230769,0.42857142857142855,0.8571428571428571,0.0004
251,1.5244595408439636,1.5178251266479492,0.40384615384615385,0.8269230769230769,0.5714285714285714,0.8571428571428571,0.0004
252,1.5680242776870728,1.427642583847046,0.4423076923076923,0.8269230769230769,0.6428571428571429,0.8571428571428571,0.0004
253,1.4644199013710022,1.5419886112213135,0.4230769230769231,0.8269230769230769,0.6428571428571429,0.8571428571428571,0.0004
254,1.502187192440033,1.4673447608947754,0.4230769230769231,0.8269230769230769,0.5,0.8571428571428571,0.0004
255,1.4743422865867615,1.4616713523864746,0.4230769230769231,0.8269230769230769,0.5714285714285714,0.8571428571428571,0.0004
256,1.4890527725219727,1.4172821044921875,0.5384615384615384,0.8269230769230769,0.5,0.8571428571428571,0.0004
257,1.4443236589431763,1.4070234298706055,0.4230769230769231,0.8269230769230769,0.5,0.8571428571428571,0.0004
258,1.4567242860794067,1.6531341075897217,0.5,0.8269230769230769,0.35714285714285715,0.8571428571428571,0.0004
259,1.392465054988861,1.5974600315093994,0.5,0.8269230769230769,0.42857142857142855,0.8571428571428571,0.0004
260,1.4532021880149841,1.523909568786621,0.46153846153846156,0.8269230769230769,0.5,0.8571428571428571,0.0004
261,1.3974702954292297,1.7273788452148438,0.4807692307692308,0.8269230769230769,0.2857142857142857,0.8571428571428571,0.0004
262,1.4229821562767029,1.39823317527771,0.46153846153846156,0.8269230769230769,0.6428571428571429,0.8571428571428571,0.0004
263,1.4412903785705566,1.4308583736419678,0.4807692307692308,0.8269230769230769,0.5714285714285714,0.8571428571428571,0.0004
264,1.4529362916946411,1.5299673080444336,0.46153846153846156,0.8269230769230769,0.42857142857142855,0.8571428571428571,0.0004
265,1.4537740349769592,1.5118017196655273,0.4230769230769231,0.8269230769230769,0.42857142857142855,0.8571428571428571,0.0004
266,1.494945228099823,1.464830756187439,0.4230769230769231,0.8269230769230769,0.42857142857142855,0.8571428571428571,0.0004
267,1.498748540878296,1.3919016122817993,0.4230769230769231,0.8269230769230769,0.5,0.8571428571428571,0.0004
268,1.4300373196601868,1.4691462516784668,0.4230769230769231,0.8269230769230769,0.42857142857142855,0.8571428571428571,0.0004
269,1.539920151233673,1.4861642122268677,0.34615384615384615,0.8269230769230769,0.5,0.8571428571428571,0.0004
270,1.5687100291252136,1.4794306755065918,0.3269230769230769,0.8269230769230769,0.5,0.8571428571428571,0.0004
271,1.467671513557434,1.4636118412017822,0.4423076923076923,0.8269230769230769,0.5714285714285714,0.8571428571428571,0.0004
272,1.50701242685318,1.5084701776504517,0.4423076923076923,0.8269230769230769,0.35714285714285715,0.8571428571428571,0.0004
273,1.4483124017715454,1.5343327522277832,0.4807692307692308,0.8269230769230769,0.35714285714285715,0.8571428571428571,0.0004
274,1.3799160718917847,1.6372170448303223,0.5,0.8269230769230769,0.35714285714285715,0.8571428571428571,0.0004
275,1.5290477275848389,1.5544402599334717,0.3269230769230769,0.8269230769230769,0.35714285714285715,0.8571428571428571,0.0004
276,1.4719291925430298,1.5068362951278687,0.4807692307692308,0.8269230769230769,0.42857142857142855,0.8571428571428571,0.0004
277,1.4017900824546814,1.6364495754241943,0.5576923076923077,0.8269230769230769,0.35714285714285715,0.8571428571428571,0.0004
278,1.481370449066162,1.5431997776031494,0.3269230769230769,0.8269230769230769,0.42857142857142855,0.8571428571428571,0.0004
279,1.4358600974082947,1.5578126907348633,0.4423076923076923,0.8269230769230769,0.5,0.8571428571428571,0.0004
280,1.3811941146850586,1.3926503658294678,0.5576923076923077,0.8269230769230769,0.7142857142857143,0.8571428571428571,0.0004
281,1.4560310244560242,1.4595435857772827,0.4807692307692308,0.8269230769230769,0.5,0.8571428571428571,0.0004
282,1.4501659870147705,1.4605884552001953,0.5384615384615384,0.8269230769230769,0.35714285714285715,0.8571428571428571,0.0004
283,1.4828212261199951,1.358847975730896,0.4230769230769231,0.8269230769230769,0.5,0.8571428571428571,0.0004
284,1.3406071662902832,1.5356578826904297,0.5192307692307693,0.8269230769230769,0.35714285714285715,0.8571428571428571,0.0004
285,1.3663530945777893,1.5072572231292725,0.46153846153846156,0.8269230769230769,0.5,0.8571428571428571,0.0004
286,1.4246482253074646,1.5086108446121216,0.4807692307692308,0.8269230769230769,0.35714285714285715,0.8571428571428571,0.0004
287,1.4262649416923523,1.5614171028137207,0.4807692307692308,0.8269230769230769,0.35714285714285715,0.8571428571428571,0.0004
288,1.4485079050064087,1.4472241401672363,0.4423076923076923,0.8269230769230769,0.42857142857142855,0.8571428571428571,0.0004
289,1.4761651754379272,1.4301936626434326,0.4230769230769231,0.8269230769230769,0.35714285714285715,0.8571428571428571,0.0004
290,1.350303590297699,1.253205418586731,0.5576923076923077,0.8269230769230769,0.6428571428571429,0.8571428571428571,0.0004
291,1.4641666412353516,1.41762113571167,0.4807692307692308,0.8269230769230769,0.42857142857142855,0.8571428571428571,0.0004
292,1.423066258430481,1.5636167526245117,0.4230769230769231,0.8269230769230769,0.35714285714285715,0.8571428571428571,0.0004
293,1.3176060318946838,1.6201364994049072,0.5961538461538461,0.8269230769230769,0.35714285714285715,0.8571428571428571,0.0004
294,1.3818366527557373,1.5792070627212524,0.5,0.8269230769230769,0.35714285714285715,0.8571428571428571,0.0004
295,1.2450791597366333,1.6117714643478394,0.6153846153846154,0.8269230769230769,0.35714285714285715,0.8571428571428571,0.0004
296,1.3595393300056458,1.4643677473068237,0.5192307692307693,0.8269230769230769,0.42857142857142855,0.8571428571428571,0.0004
297,1.2826615571975708,1.32979154586792,0.5192307692307693,0.8269230769230769,0.6428571428571429,0.8571428571428571,0.0004
298,1.354361891746521,1.5433664321899414,0.5384615384615384,0.8269230769230769,0.5,0.8571428571428571,0.0004
299,1.2070568203926086,1.5606783628463745,0.6346153846153846,0.8269230769230769,0.35714285714285715,0.8571428571428571,0.0004
300,1.4228976964950562,1.5454069375991821,0.5192307692307693,0.8269230769230769,0.2857142857142857,0.8571428571428571,0.0004
301,1.342961311340332,1.5580260753631592,0.5576923076923077,0.8269230769230769,0.42857142857142855,0.8571428571428571,0.0004
302,1.2107272148132324,1.5682666301727295,0.6346153846153846,0.8269230769230769,0.35714285714285715,0.8571428571428571,0.0004
303,1.2958300709724426,1.3499451875686646,0.5769230769230769,0.8269230769230769,0.5,0.8571428571428571,0.0004
304,1.320044457912445,1.4563865661621094,0.5576923076923077,0.8269230769230769,0.35714285714285715,0.8571428571428571,0.0004
305,1.3647022247314453,1.4055112600326538,0.5384615384615384,0.8269230769230769,0.5,0.8571428571428571,0.0004
306,1.3471166491508484,1.634413719177246,0.5769230769230769,0.8269230769230769,0.2857142857142857,0.8571428571428571,0.0004
307,1.3548390865325928,1.4999727010726929,0.5192307692307693,0.8269230769230769,0.5,0.8571428571428571,0.0004
308,1.5663959980010986,1.4838311672210693,0.4423076923076923,0.8269230769230769,0.5,0.8571428571428571,0.0004
309,1.3220168352127075,1.5534735918045044,0.5384615384615384,0.8269230769230769,0.35714285714285715,0.8571428571428571,0.0004
310,1.4302154183387756,1.5258784294128418,0.5384615384615384,0.8269230769230769,0.42857142857142855,0.8571428571428571,0.0004
311,1.4040152430534363,1.6302554607391357,0.5769230769230769,0.8269230769230769,0.35714285714285715,0.8571428571428571,0.0004
312,1.187168300151825,1.516119122505188,0.6923076923076923,0.8269230769230769,0.42857142857142855,0.8571428571428571,0.0004
313,1.3525825142860413,1.5725884437561035,0.5769230769230769,0.8269230769230769,0.42857142857142855,0.8571428571428571,0.0004
314,1.3182116150856018,1.690159797668457,0.6153846153846154,0.8269230769230769,0.2857142857142857,0.8571428571428571,0.0004
315,1.2784070372581482,1.5009280443191528,0.5192307692307693,0.8269230769230769,0.5,0.8571428571428571,0.0004
316,1.313011646270752,1.6441123485565186,0.6346153846153846,0.8269230769230769,0.2857142857142857,0.8571428571428571,0.0004
317,1.2047041058540344,1.7467329502105713,0.5769230769230769,0.8269230769230769,0.2857142857142857,0.8571428571428571,0.0004
318,1.4490979313850403,1.5059999227523804,0.5384615384615384,0.8269230769230769,0.5,0.8571428571428571,0.0004
319,1.2007657289505005,1.5325868129730225,0.6346153846153846,0.8269230769230769,0.5,0.8571428571428571,0.0004
320,1.4428892731666565,1.5082130432128906,0.5576923076923077,0.8269230769230769,0.5,0.8571428571428571,0.0004
321,1.2668870687484741,1.7210118770599365,0.6153846153846154,0.8269230769230769,0.35714285714285715,0.8571428571428571,0.0004
322,1.2613888382911682,1.6784746646881104,0.5384615384615384,0.8269230769230769,0.35714285714285715,0.8571428571428571,0.0004
323,1.1931657791137695,1.4575762748718262,0.6538461538461539,0.8269230769230769,0.42857142857142855,0.8571428571428571,0.0004
324,1.4882586598396301,1.5117489099502563,0.5384615384615384,0.8269230769230769,0.42857142857142855,0.8571428571428571,0.0004
325,1.2888493537902832,1.883529782295227,0.5192307692307693,0.8269230769230769,0.2857142857142857,0.8571428571428571,0.0004
326,1.2898762226104736,1.8313031196594238,0.5384615384615384,0.8269230769230769,0.21428571428571427,0.8571428571428571,0.0004
327,1.2296554446220398,1.3675882816314697,0.5961538461538461,0.8269230769230769,0.5,0.8571428571428571,0.0004
328,1.3829549551010132,1.6575922966003418,0.5192307692307693,0.8269230769230769,0.35714285714285715,0.8571428571428571,0.0004
329,1.1877304911613464,1.5233190059661865,0.6538461538461539,0.8269230769230769,0.5,0.8571428571428571,0.0004
330,1.285846471786499,1.5855482816696167,0.6346153846153846,0.8269230769230769,0.5,0.8571428571428571,0.0004
331,1.2584701776504517,1.4187378883361816,0.6153846153846154,0.8269230769230769,0.5714285714285714,0.8571428571428571,0.0004
332,1.3784545063972473,1.674760103225708,0.5192307692307693,0.8269230769230769,0.35714285714285715,0.8571428571428571,0.0004
333,1.2938714027404785,1.4678549766540527,0.5961538461538461,0.8269230769230769,0.5,0.8571428571428571,0.0004
334,1.3067100048065186,1.7310843467712402,0.5576923076923077,0.8269230769230769,0.42857142857142855,0.8571428571428571,0.0004
335,1.357302963733673,1.809501051902771,0.5961538461538461,0.8269230769230769,0.35714285714285715,0.8571428571428571,0.0004
336,1.2183367013931274,1.7923815250396729,0.5769230769230769,0.8269230769230769,0.35714285714285715,0.8571428571428571,0.0004
337,1.3298064470291138,1.8411951065063477,0.6346153846153846,0.8269230769230769,0.21428571428571427,0.8571428571428571,0.0004
338,1.1832174062728882,1.7846388816833496,0.6346153846153846,0.8269230769230769,0.35714285714285715,0.8571428571428571,0.0004
339,1.2192870378494263,1.6551220417022705,0.6538461538461539,0.8269230769230769,0.35714285714285715,0.8571428571428571,0.0004
340,1.2707568407058716,1.5809381008148193,0.5961538461538461,0.8269230769230769,0.5,0.8571428571428571,0.0004
341,1.3706163167953491,1.9418004751205444,0.5576923076923077,0.8269230769230769,0.2857142857142857,0.8571428571428571,0.0004
342,1.2053627967834473,1.7115089893341064,0.6730769230769231,0.8269230769230769,0.35714285714285715,0.8571428571428571,0.0004
343,1.326137363910675,1.547297477722168,0.5576923076923077,0.8269230769230769,0.42857142857142855,0.8571428571428571,0.0004
344,1.250306487083435,1.7160217761993408,0.6346153846153846,0.8269230769230769,0.2857142857142857,0.8571428571428571,0.0004
345,1.195687174797058,1.6712101697921753,0.6730769230769231,0.8269230769230769,0.35714285714285715,0.8571428571428571,0.0004
346,1.2661452293395996,1.5098493099212646,0.5769230769230769,0.8269230769230769,0.35714285714285715,0.8571428571428571,0.0004
347,1.2997933626174927,1.4023935794830322,0.5,0.8269230769230769,0.5714285714285714,0.8571428571428571,0.0004
348,1.2754008769989014,1.538805365562439,0.5576923076923077,0.8269230769230769,0.42857142857142855,0.8571428571428571,0.0004
349,1.2838339805603027,1.644547462463379,0.5576923076923077,0.8269230769230769,0.35714285714285715,0.8571428571428571,0.0004
350,1.3205949068069458,1.7858624458312988,0.5576923076923077,0.8269230769230769,0.2857142857142857,0.8571428571428571,0.0004
351,1.2854065895080566,1.7212066650390625,0.5384615384615384,0.8269230769230769,0.35714285714285715,0.8571428571428571,0.0004
352,1.2623088955879211,1.7628817558288574,0.6153846153846154,0.8269230769230769,0.35714285714285715,0.8571428571428571,0.0004
353,1.3708043694496155,1.7528221607208252,0.5769230769230769,0.8269230769230769,0.42857142857142855,0.8571428571428571,0.0004
354,1.2926291227340698,1.7899134159088135,0.5384615384615384,0.8269230769230769,0.35714285714285715,0.8571428571428571,0.0004
355,1.3530640006065369,1.7577204704284668,0.5,0.8269230769230769,0.42857142857142855,0.8571428571428571,0.0004
356,1.288901150226593,1.8574583530426025,0.5769230769230769,0.8269230769230769,0.35714285714285715,0.8571428571428571,0.0004
357,1.214414894580841,1.8766847848892212,0.6346153846153846,0.8269230769230769,0.2857142857142857,0.8571428571428571,0.0004
358,1.6001836657524109,1.7188363075256348,0.4423076923076923,0.8269230769230769,0.2857142857142857,0.8571428571428571,0.0004
359,1.2587395906448364,1.707801103591919,0.5961538461538461,0.8269230769230769,0.35714285714285715,0.8571428571428571,0.0004
360,1.2588261365890503,1.621738076210022,0.5769230769230769,0.8269230769230769,0.42857142857142855,0.8571428571428571,0.0004
361,1.310981810092926,1.6633070707321167,0.6153846153846154,0.8269230769230769,0.35714285714285715,0.8571428571428571,0.0004
362,1.1046011447906494,1.7554702758789062,0.6346153846153846,0.8269230769230769,0.2857142857142857,0.8571428571428571,0.0004
363,1.1659454703330994,1.5816599130630493,0.5961538461538461,0.8269230769230769,0.35714285714285715,0.8571428571428571,0.0004
364,1.2422947883605957,1.6549404859542847,0.6153846153846154,0.8269230769230769,0.2857142857142857,0.8571428571428571,0.0004
365,1.1814682483673096,1.676140546798706,0.5961538461538461,0.8269230769230769,0.35714285714285715,0.8571428571428571,0.0004
366,1.1486561298370361,1.8021440505981445,0.5961538461538461,0.8269230769230769,0.21428571428571427,0.8571428571428571,0.0004
367,1.2718628644943237,1.6808624267578125,0.5576923076923077,0.8269230769230769,0.2857142857142857,0.8571428571428571,0.0004
368,1.3317854404449463,1.4696869850158691,0.5769230769230769,0.8269230769230769,0.5,0.8571428571428571,0.0004
369,1.1751902103424072,1.4270594120025635,0.6153846153846154,0.8269230769230769,0.5,0.8571428571428571,0.0004
370,1.085969090461731,1.5074563026428223,0.6153846153846154,0.8269230769230769,0.42857142857142855,0.8571428571428571,0.0004
371,1.1641615629196167,1.6461501121520996,0.6923076923076923,0.8269230769230769,0.35714285714285715,0.8571428571428571,0.0004
372,1.0850856304168701,1.7647980451583862,0.6730769230769231,0.8269230769230769,0.2857142857142857,0.8571428571428571,0.0004
373,1.191977858543396,1.7048964500427246,0.6346153846153846,0.8269230769230769,0.42857142857142855,0.8571428571428571,0.0004
374,1.2820287346839905,1.7729153633117676,0.5769230769230769,0.8269230769230769,0.35714285714285715,0.8571428571428571,0.0004
375,1.133711814880371,1.9016854763031006,0.6730769230769231,0.8269230769230769,0.35714285714285715,0.8571428571428571,0.0004
376,1.2306292653083801,1.726591944694519,0.5769230769230769,0.8269230769230769,0.35714285714285715,0.8571428571428571,0.0004
377,1.1538211405277252,1.6560088396072388,0.5961538461538461,0.8269230769230769,0.42857142857142855,0.8571428571428571,0.0004
378,1.1378845274448395,1.7362873554229736,0.6923076923076923,0.8269230769230769,0.35714285714285715,0.8571428571428571,0.0004
379,1.4645248055458069,1.818089246749878,0.4807692307692308,0.8269230769230769,0.2857142857142857,0.8571428571428571,0.0004
380,1.343953251838684,1.8075387477874756,0.5769230769230769,0.8269230769230769,0.35714285714285715,0.8571428571428571,0.0004
381,1.186344027519226,1.5945847034454346,0.5961538461538461,0.8269230769230769,0.42857142857142855,0.8571428571428571,0.0004
382,0.9695339798927307,1.8917887210845947,0.6730769230769231,0.8269230769230769,0.35714285714285715,0.8571428571428571,0.0004
383,1.1559539437294006,1.7742919921875,0.6346153846153846,0.8269230769230769,0.35714285714285715,0.8571428571428571,0.0004
384,1.2969295382499695,1.83445143699646,0.6730769230769231,0.8269230769230769,0.35714285714285715,0.8571428571428571,0.0004
385,1.2652543783187866,1.7756069898605347,0.6538461538461539,0.8269230769230769,0.35714285714285715,0.8571428571428571,0.0004
386,1.2133117318153381,1.842918872833252,0.6538461538461539,0.8269230769230769,0.35714285714285715,0.8571428571428571,0.0004
387,1.2809773087501526,1.8091102838516235,0.6538461538461539,0.8269230769230769,0.35714285714285715,0.8571428571428571,0.0004
388,1.07333642244339,1.808513879776001,0.6923076923076923,0.8269230769230769,0.2857142857142857,0.8571428571428571,0.0004
389,1.1590310335159302,1.82135009765625,0.6153846153846154,0.8269230769230769,0.2857142857142857,0.8571428571428571,0.0004
390,1.342354953289032,1.7242826223373413,0.5576923076923077,0.8269230769230769,0.35714285714285715,0.8571428571428571,0.0004
391,1.3355621099472046,1.7812485694885254,0.6153846153846154,0.8269230769230769,0.2857142857142857,0.8571428571428571,0.0004
392,1.257020354270935,1.8171206712722778,0.6153846153846154,0.8269230769230769,0.2857142857142857,0.8571428571428571,0.0004
393,1.2130072116851807,1.7411680221557617,0.6153846153846154,0.8269230769230769,0.2857142857142857,0.8571428571428571,0.0004
394,1.2854465246200562,1.8203482627868652,0.6153846153846154,0.8269230769230769,0.2857142857142857,0.8571428571428571,0.0004
395,0.9893693923950195,1.7698942422866821,0.7307692307692307,0.8269230769230769,0.35714285714285715,0.8571428571428571,0.0004
396,1.2042165398597717,1.509796380996704,0.6346153846153846,0.8269230769230769,0.35714285714285715,0.8571428571428571,0.0004
397,1.1486339569091797,1.559484601020813,0.6538461538461539,0.8269230769230769,0.35714285714285715,0.8571428571428571,0.0004
398,1.1965911388397217,1.6634513139724731,0.5961538461538461,0.8269230769230769,0.35714285714285715,0.8571428571428571,0.0004
399,1.282650887966156,1.6027915477752686,0.5576923076923077,0.8269230769230769,0.35714285714285715,0.8571428571428571,0.0004
400,1.1450189352035522,1.5976295471191406,0.6153846153846154,0.8269230769230769,0.42857142857142855,0.8571428571428571,0.0004
401,1.1769704818725586,1.5752513408660889,0.6923076923076923,0.8269230769230769,0.42857142857142855,0.8571428571428571,0.0004
402,1.108218252658844,1.6732133626937866,0.7307692307692307,0.8269230769230769,0.35714285714285715,0.8571428571428571,0.0004
403,1.2674933075904846,1.7737263441085815,0.5961538461538461,0.8269230769230769,0.35714285714285715,0.8571428571428571,0.0004
404,1.0829628109931946,1.9361722469329834,0.6730769230769231,0.8269230769230769,0.2857142857142857,0.8571428571428571,0.0004
405,1.2288100719451904,1.7420293092727661,0.6346153846153846,0.8269230769230769,0.35714285714285715,0.8571428571428571,0.0004
406,1.181183397769928,1.76865553855896,0.6346153846153846,0.8269230769230769,0.2857142857142857,0.8571428571428571,0.0004
407,1.0692013502120972,1.7998802661895752,0.6730769230769231,0.8269230769230769,0.42857142857142855,0.8571428571428571,0.0004
408,1.2034871578216553,1.82991361618042,0.6346153846153846,0.8269230769230769,0.42857142857142855,0.8571428571428571,0.0004
409,1.2146563529968262,1.8515828847885132,0.5961538461538461,0.8269230769230769,0.2857142857142857,0.8571428571428571,0.0004
410,1.1489412784576416,1.7872288227081299,0.6346153846153846,0.8269230769230769,0.35714285714285715,0.8571428571428571,0.0004
411,1.0168889462947845,1.8121503591537476,0.6730769230769231,0.8269230769230769,0.35714285714285715,0.8571428571428571,0.0004
412,1.2149720788002014,1.959747076034546,0.6153846153846154,0.8269230769230769,0.2857142857142857,0.8571428571428571,0.0004
413,1.1444505453109741,1.8533647060394287,0.6538461538461539,0.8269230769230769,0.42857142857142855,0.8571428571428571,0.0004
414,1.2940797805786133,1.9135229587554932,0.5961538461538461,0.8269230769230769,0.2857142857142857,0.8571428571428571,0.0004
415,1.0528770089149475,1.8435087203979492,0.7115384615384616,0.8269230769230769,0.35714285714285715,0.8571428571428571,0.0004
416,1.091834008693695,1.7933006286621094,0.6730769230769231,0.8269230769230769,0.42857142857142855,0.8571428571428571,0.0004
417,1.3172515630722046,1.8983765840530396,0.5192307692307693,0.8269230769230769,0.35714285714285715,0.8571428571428571,0.0004
418,1.0708521008491516,1.882596492767334,0.75,0.8269230769230769,0.35714285714285715,0.8571428571428571,0.0004
419,1.0393098592758179,1.791022777557373,0.7115384615384616,0.8269230769230769,0.35714285714285715,0.8571428571428571,0.0004
420,1.0468313097953796,1.6226125955581665,0.7115384615384616,0.8269230769230769,0.35714285714285715,0.8571428571428571,0.0004
421,1.2028602957725525,1.6457862854003906,0.6346153846153846,0.8269230769230769,0.2857142857142857,0.8571428571428571,0.0004
422,1.1570603251457214,1.6804734468460083,0.6346153846153846,0.8269230769230769,0.35714285714285715,0.8571428571428571,0.0004
423,1.2234524488449097,1.736854910850525,0.5961538461538461,0.8269230769230769,0.35714285714285715,0.8571428571428571,0.0004
424,1.1493699550628662,1.6182208061218262,0.6923076923076923,0.8269230769230769,0.35714285714285715,0.8571428571428571,0.0004
425,1.136480450630188,1.5422024726867676,0.6538461538461539,0.8269230769230769,0.2857142857142857,0.8571428571428571,0.0004
426,1.1050748229026794,1.399310827255249,0.6923076923076923,0.8269230769230769,0.42857142857142855,0.8571428571428571,0.0004
427,1.1767911911010742,1.4789849519729614,0.7307692307692307,0.8269230769230769,0.42857142857142855,0.7857142857142857,0.0004
428,1.1399278044700623,1.920175313949585,0.6730769230769231,0.8269230769230769,0.2857142857142857,0.8571428571428571,0.0004
429,1.1318376660346985,2.0584192276000977,0.6346153846153846,0.8653846153846154,0.35714285714285715,0.7142857142857143,0.0004
430,1.150248944759369,1.932446837425232,0.75,0.8461538461538461,0.35714285714285715,0.7857142857142857,0.0004
431,1.163364291191101,1.9836971759796143,0.6538461538461539,0.8653846153846154,0.35714285714285715,0.8571428571428571,0.0004
432,1.0950000584125519,1.841102123260498,0.6730769230769231,0.8461538461538461,0.42857142857142855,0.6428571428571429,0.0004
433,1.2639769315719604,1.9426190853118896,0.6923076923076923,0.9038461538461539,0.35714285714285715,0.7142857142857143,0.0004
434,1.0917737483978271,2.1022720336914062,0.6346153846153846,0.8461538461538461,0.2857142857142857,0.7857142857142857,0.0004
435,1.0846441984176636,1.9515162706375122,0.6538461538461539,0.8269230769230769,0.35714285714285715,0.7857142857142857,0.0004
436,1.161666452884674,1.841252326965332,0.6730769230769231,0.8269230769230769,0.42857142857142855,0.6428571428571429,0.0004
437,1.1132655143737793,1.8670464754104614,0.6538461538461539,0.7884615384615384,0.42857142857142855,0.7142857142857143,0.0004
438,1.2623480558395386,1.8238592147827148,0.6346153846153846,0.8461538461538461,0.35714285714285715,0.7142857142857143,0.0004
439,1.055828481912613,1.9342091083526611,0.6923076923076923,0.8653846153846154,0.42857142857142855,0.7142857142857143,0.0004
440,1.0755154490470886,1.8659117221832275,0.6346153846153846,0.8269230769230769,0.42857142857142855,0.5714285714285714,0.0004
441,1.2583959698677063,1.8973795175552368,0.6346153846153846,0.8076923076923077,0.42857142857142855,0.6428571428571429,0.0004
442,1.3077713251113892,1.9400875568389893,0.5961538461538461,0.8461538461538461,0.42857142857142855,0.6428571428571429,0.0004
443,1.0356498658657074,1.7363171577453613,0.6730769230769231,0.8461538461538461,0.35714285714285715,0.8571428571428571,0.0004
444,1.2835545539855957,1.6645015478134155,0.6538461538461539,0.8269230769230769,0.42857142857142855,0.8571428571428571,0.0004
445,1.3470780849456787,1.7933788299560547,0.5576923076923077,0.8269230769230769,0.35714285714285715,0.8571428571428571,0.0004
446,1.21489417552948,1.5440946817398071,0.6923076923076923,0.8269230769230769,0.42857142857142855,0.8571428571428571,0.0004
447,1.245129644870758,1.4713984727859497,0.6153846153846154,0.8269230769230769,0.42857142857142855,0.8571428571428571,0.0004
448,1.1599500179290771,1.9490294456481934,0.6730769230769231,0.8269230769230769,0.2857142857142857,0.8571428571428571,0.0004
449,1.1337796449661255,1.7544944286346436,0.6538461538461539,0.8269230769230769,0.42857142857142855,0.8571428571428571,0.0004
450,1.1787618398666382,1.7494748830795288,0.6538461538461539,0.8269230769230769,0.42857142857142855,0.9285714285714286,0.0004
451,1.1133101880550385,1.9238851070404053,0.6923076923076923,0.8269230769230769,0.35714285714285715,0.8571428571428571,0.0004
452,1.1852970719337463,1.570629358291626,0.6730769230769231,0.8269230769230769,0.5714285714285714,0.6428571428571429,0.0004
453,1.3154461979866028,1.688659906387329,0.5576923076923077,0.8076923076923077,0.42857142857142855,0.8571428571428571,0.0004
454,1.219562292098999,1.889183759689331,0.6730769230769231,0.8269230769230769,0.35714285714285715,0.5714285714285714,0.0004
455,1.1286638379096985,1.8282051086425781,0.6346153846153846,0.8076923076923077,0.42857142857142855,0.6428571428571429,0.0004
456,1.1610617637634277,1.6616548299789429,0.6538461538461539,0.8461538461538461,0.42857142857142855,0.7857142857142857,0.0004
457,1.303672432899475,1.8081424236297607,0.6538461538461539,0.8269230769230769,0.42857142857142855,0.8571428571428571,0.0004
458,1.2386038899421692,1.7961347103118896,0.6538461538461539,0.8269230769230769,0.42857142857142855,0.8571428571428571,0.0004
459,1.0473595261573792,1.6869378089904785,0.7307692307692307,0.8269230769230769,0.35714285714285715,0.8571428571428571,0.0004
460,1.1323300004005432,1.6463947296142578,0.7307692307692307,0.8269230769230769,0.35714285714285715,0.8571428571428571,0.0004
461,1.0396021008491516,1.6907612085342407,0.6538461538461539,0.8269230769230769,0.35714285714285715,0.8571428571428571,0.0004
462,1.0832399129867554,1.5650897026062012,0.6923076923076923,0.8269230769230769,0.42857142857142855,0.8571428571428571,0.0004
463,1.1722591519355774,1.4748008251190186,0.6346153846153846,0.8269230769230769,0.5,0.8571428571428571,0.0004
464,1.2068241834640503,1.8954771757125854,0.5769230769230769,0.8461538461538461,0.35714285714285715,0.7142857142857143,0.0004
465,1.2485997676849365,1.5158226490020752,0.6923076923076923,0.8269230769230769,0.5,0.8571428571428571,0.0004
466,1.0612612068653107,1.7364468574523926,0.6538461538461539,0.8461538461538461,0.35714285714285715,0.6428571428571429,0.0004
467,1.1164409518241882,1.6651420593261719,0.6346153846153846,0.8461538461538461,0.42857142857142855,0.7857142857142857,0.0004
468,1.1123100519180298,1.8965247869491577,0.5961538461538461,0.8461538461538461,0.35714285714285715,0.6428571428571429,0.0004
469,1.049822747707367,1.7619866132736206,0.7884615384615384,0.8653846153846154,0.42857142857142855,0.7857142857142857,0.0004
470,1.2070547938346863,1.585863709449768,0.6923076923076923,0.8461538461538461,0.5,0.5,0.0004
471,1.1033780574798584,1.7881239652633667,0.7115384615384616,0.8076923076923077,0.35714285714285715,0.6428571428571429,0.0004
472,1.1734456419944763,2.0376334190368652,0.6730769230769231,0.8269230769230769,0.35714285714285715,0.42857142857142855,0.0004
473,1.0513614118099213,2.3814358711242676,0.7692307692307693,0.8461538461538461,0.35714285714285715,0.07142857142857142,0.0004
474,1.169589638710022,2.1935677528381348,0.6538461538461539,0.7692307692307693,0.35714285714285715,0.35714285714285715,0.0004
475,0.9851106703281403,2.1964988708496094,0.7307692307692307,0.9038461538461539,0.35714285714285715,0.6428571428571429,0.0004
476,1.3927212953567505,2.086381435394287,0.6153846153846154,0.8269230769230769,0.35714285714285715,0.8571428571428571,0.0004
477,1.1784744262695312,2.137293815612793,0.6923076923076923,0.7884615384615384,0.35714285714285715,0.6428571428571429,0.0004
478,1.0521164238452911,2.146019458770752,0.6538461538461539,0.8269230769230769,0.35714285714285715,0.5714285714285714,0.0004
479,1.0045632123947144,2.0297021865844727,0.75,0.8846153846153846,0.35714285714285715,0.6428571428571429,0.0004
480,1.2302520871162415,2.0068159103393555,0.5961538461538461,0.8461538461538461,0.35714285714285715,0.7857142857142857,0.0004
481,1.0100451409816742,2.079829692840576,0.6923076923076923,0.8269230769230769,0.35714285714285715,0.7142857142857143,0.0004
482,1.1565133929252625,1.8809170722961426,0.6730769230769231,0.7884615384615384,0.35714285714285715,0.7142857142857143,0.0004
483,1.3161929845809937,1.6348470449447632,0.6538461538461539,0.8653846153846154,0.35714285714285715,0.9285714285714286,0.0004
484,1.1905291080474854,1.917048692703247,0.6346153846153846,0.8269230769230769,0.35714285714285715,0.7857142857142857,0.0004
485,1.163745939731598,1.9007066488265991,0.6346153846153846,0.8076923076923077,0.35714285714285715,0.8571428571428571,0.0004
486,1.1938807368278503,2.1023380756378174,0.6153846153846154,0.8653846153846154,0.2857142857142857,0.42857142857142855,0.0004
487,1.258766233921051,1.9050486087799072,0.6153846153846154,0.7692307692307693,0.35714285714285715,0.6428571428571429,0.0004
488,1.0787095427513123,1.973602533340454,0.5576923076923077,0.9038461538461539,0.2857142857142857,0.8571428571428571,0.0004
489,1.004343867301941,1.791828989982605,0.6923076923076923,0.8846153846153846,0.35714285714285715,0.7857142857142857,0.0004
490,1.206766963005066,1.7733327150344849,0.5961538461538461,0.8653846153846154,0.35714285714285715,0.8571428571428571,0.0004
491,1.2234214544296265,1.6892350912094116,0.6153846153846154,0.8076923076923077,0.42857142857142855,0.6428571428571429,0.0004
492,1.0117667317390442,2.1136176586151123,0.6730769230769231,0.8653846153846154,0.35714285714285715,0.5714285714285714,0.0004
493,1.277306854724884,1.9343743324279785,0.5769230769230769,0.8076923076923077,0.35714285714285715,0.5714285714285714,0.0004
494,1.1975728273391724,1.8462859392166138,0.6538461538461539,0.8076923076923077,0.42857142857142855,0.6428571428571429,0.0004
495,1.1680879592895508,1.8941360712051392,0.6538461538461539,0.8653846153846154,0.2857142857142857,0.7857142857142857,0.0004
496,1.1319870352745056,1.6209073066711426,0.6730769230769231,0.8461538461538461,0.35714285714285715,0.8571428571428571,0.0004
497,1.134265959262848,1.8315508365631104,0.6153846153846154,0.8461538461538461,0.35714285714285715,0.7142857142857143,0.0004
498,1.1928452253341675,1.8264796733856201,0.5961538461538461,0.8461538461538461,0.35714285714285715,0.7142857142857143,0.0004
499,1.121753752231598,1.7507139444351196,0.6730769230769231,0.8846153846153846,0.2857142857142857,0.9285714285714286,0.0004
500,1.03162881731987,1.988793969154358,0.75,0.8269230769230769,0.2857142857142857,0.5,0.0004
501,1.1042802929878235,1.9024039506912231,0.6538461538461539,0.8653846153846154,0.35714285714285715,0.42857142857142855,0.0004
502,1.1441481709480286,2.0331802368164062,0.6538461538461539,0.8846153846153846,0.35714285714285715,0.5,0.0004
503,1.2333980798721313,1.9059247970581055,0.5961538461538461,0.7884615384615384,0.42857142857142855,0.8571428571428571,0.0004
504,1.038707047700882,1.9115898609161377,0.6923076923076923,0.8653846153846154,0.35714285714285715,0.6428571428571429,0.0004
505,1.160775363445282,1.7979861497879028,0.6730769230769231,0.8269230769230769,0.35714285714285715,0.7857142857142857,0.0004
506,1.2015997767448425,1.5937470197677612,0.5769230769230769,0.8653846153846154,0.2857142857142857,0.7857142857142857,0.0004
507,1.0822273790836334,1.7282423973083496,0.6730769230769231,0.8269230769230769,0.2857142857142857,0.7857142857142857,0.0004
508,1.0892084836959839,1.7449902296066284,0.6730769230769231,0.8653846153846154,0.2857142857142857,0.6428571428571429,0.0004
509,1.012656331062317,1.9088542461395264,0.6730769230769231,0.8269230769230769,0.2857142857142857,0.7857142857142857,0.0004
510,1.3155100345611572,1.6323559284210205,0.6538461538461539,0.8269230769230769,0.35714285714285715,0.7857142857142857,0.0004
511,1.1589033007621765,1.8227052688598633,0.6538461538461539,0.8269230769230769,0.42857142857142855,0.5,0.0004
512,1.091351330280304,1.863814115524292,0.6538461538461539,0.8461538461538461,0.35714285714285715,0.7142857142857143,0.0004
513,1.090100347995758,1.7413444519042969,0.6730769230769231,0.8846153846153846,0.2857142857142857,0.8571428571428571,0.0004
514,1.1143121719360352,1.4366103410720825,0.6730769230769231,0.8269230769230769,0.35714285714285715,0.8571428571428571,0.0004
515,1.0916312634944916,1.6963839530944824,0.6923076923076923,0.8461538461538461,0.35714285714285715,0.7857142857142857,0.0004
516,1.087893545627594,1.6589369773864746,0.6538461538461539,0.8653846153846154,0.42857142857142855,0.9285714285714286,0.0004
517,1.157153844833374,2.0218594074249268,0.6346153846153846,0.8461538461538461,0.35714285714285715,0.7857142857142857,0.0004
518,0.9417839348316193,2.1701109409332275,0.7115384615384616,0.8461538461538461,0.35714285714285715,0.21428571428571427,0.0004
519,0.9666497707366943,2.2276787757873535,0.7115384615384616,0.9038461538461539,0.2857142857142857,0.2857142857142857,0.0004
520,1.1558396518230438,1.9731988906860352,0.6538461538461539,0.75,0.42857142857142855,0.35714285714285715,0.0004
521,1.2409682869911194,2.1832752227783203,0.5576923076923077,0.7884615384615384,0.2857142857142857,0.2857142857142857,0.0004
522,1.3259592056274414,2.084707736968994,0.6346153846153846,0.7884615384615384,0.35714285714285715,0.35714285714285715,0.0004
523,1.2456798553466797,2.161496639251709,0.6538461538461539,0.75,0.35714285714285715,0.35714285714285715,0.0004
524,1.0303997993469238,2.1363677978515625,0.7115384615384616,0.8269230769230769,0.35714285714285715,0.5714285714285714,0.0004
525,1.0953111052513123,2.125288248062134,0.6730769230769231,0.8461538461538461,0.2857142857142857,0.5714285714285714,0.0004
526,1.1444697976112366,2.0193190574645996,0.6538461538461539,0.8269230769230769,0.35714285714285715,0.8571428571428571,0.0004
527,1.4099681973457336,1.8645546436309814,0.5,0.8269230769230769,0.35714285714285715,0.7857142857142857,0.0004
528,0.8485281467437744,1.9106817245483398,0.7692307692307693,0.8461538461538461,0.35714285714285715,0.6428571428571429,0.0004
529,1.094482183456421,2.07808780670166,0.7307692307692307,0.8269230769230769,0.35714285714285715,0.7142857142857143,0.0004
530,1.314363420009613,1.9731354713439941,0.5384615384615384,0.8461538461538461,0.35714285714285715,0.7142857142857143,0.0004
531,1.095222294330597,1.8692286014556885,0.6538461538461539,0.8269230769230769,0.35714285714285715,0.7142857142857143,0.0004
532,1.1307058930397034,1.8569445610046387,0.75,0.8461538461538461,0.35714285714285715,0.7857142857142857,0.0004
533,1.0335044264793396,1.7018637657165527,0.7307692307692307,0.8461538461538461,0.42857142857142855,0.9285714285714286,0.0004
534,1.2208383083343506,1.8929359912872314,0.6538461538461539,0.8076923076923077,0.35714285714285715,0.7142857142857143,0.0004
535,1.0829259157180786,1.9292163848876953,0.7115384615384616,0.8269230769230769,0.35714285714285715,0.7857142857142857,0.0004
536,0.9772624373435974,1.9097118377685547,0.7307692307692307,0.8461538461538461,0.35714285714285715,0.7142857142857143,0.0004
537,0.8517649471759796,1.8739511966705322,0.75,0.8461538461538461,0.35714285714285715,0.8571428571428571,0.0004
538,1.0242722034454346,1.9955462217330933,0.7307692307692307,0.8269230769230769,0.35714285714285715,0.7142857142857143,0.0004
539,0.9549367427825928,1.943946123123169,0.7115384615384616,0.8846153846153846,0.35714285714285715,0.7142857142857143,0.0004
540,1.1037893295288086,1.9764090776443481,0.7115384615384616,0.8846153846153846,0.35714285714285715,0.5714285714285714,0.0004
541,0.9699554443359375,2.0396668910980225,0.6923076923076923,0.8461538461538461,0.35714285714285715,0.5714285714285714,0.0004
542,1.1674006283283234,2.1166603565216064,0.6346153846153846,0.8653846153846154,0.35714285714285715,0.21428571428571427,0.0004
543,0.9161219596862793,2.11928653717041,0.7115384615384616,0.8846153846153846,0.35714285714285715,0.42857142857142855,0.0004
544,1.1741754412651062,2.1116788387298584,0.6346153846153846,0.8076923076923077,0.35714285714285715,0.35714285714285715,0.0004
545,1.1949924528598785,1.6293041706085205,0.6346153846153846,0.9038461538461539,0.42857142857142855,0.5714285714285714,0.0004
546,1.0997220277786255,1.8972177505493164,0.6730769230769231,0.8461538461538461,0.42857142857142855,0.7857142857142857,0.0004
547,1.4136861562728882,1.8902537822723389,0.6346153846153846,0.8076923076923077,0.42857142857142855,0.5,0.0004
548,1.1281657218933105,2.1407346725463867,0.6346153846153846,0.8461538461538461,0.35714285714285715,0.7142857142857143,0.0004
549,1.1195130944252014,1.760430932044983,0.6153846153846154,0.8076923076923077,0.5,0.5714285714285714,0.0004
550,1.0643477141857147,1.6786222457885742,0.5769230769230769,0.8269230769230769,0.35714285714285715,0.8571428571428571,0.0004
551,1.0323975086212158,1.9117671251296997,0.6730769230769231,0.8461538461538461,0.42857142857142855,0.6428571428571429,0.0004
552,0.8878064155578613,1.9571138620376587,0.7692307692307693,0.8269230769230769,0.35714285714285715,0.6428571428571429,0.0004
553,1.0216511487960815,1.763814926147461,0.7307692307692307,0.8846153846153846,0.35714285714285715,0.5,0.0004
554,1.1089106798171997,2.2984039783477783,0.6153846153846154,0.9038461538461539,0.35714285714285715,0.21428571428571427,0.0004
555,1.1201837062835693,2.6612980365753174,0.7115384615384616,0.7692307692307693,0.35714285714285715,0.14285714285714285,0.0004
556,1.1248643398284912,2.4807982444763184,0.6346153846153846,0.8269230769230769,0.2857142857142857,0.2857142857142857,0.0004
557,1.1998326778411865,2.331639051437378,0.6346153846153846,0.7884615384615384,0.35714285714285715,0.21428571428571427,0.0004
558,1.0605779886245728,2.1595802307128906,0.7115384615384616,0.8269230769230769,0.35714285714285715,0.2857142857142857,0.0004
559,1.0407511591911316,2.366659641265869,0.6153846153846154,0.8653846153846154,0.35714285714285715,0.21428571428571427,0.0004
560,1.0913686156272888,2.1313202381134033,0.6538461538461539,0.8076923076923077,0.35714285714285715,0.42857142857142855,0.0004
561,1.08758145570755,1.8962407112121582,0.6153846153846154,0.9038461538461539,0.35714285714285715,0.42857142857142855,0.0004
562,1.3301476836204529,2.0495481491088867,0.5384615384615384,0.8269230769230769,0.35714285714285715,0.5,0.0004
563,1.1559944152832031,2.255854845046997,0.6153846153846154,0.9038461538461539,0.35714285714285715,0.21428571428571427,0.0004
564,1.1434319019317627,1.9249956607818604,0.6153846153846154,0.8269230769230769,0.35714285714285715,0.7142857142857143,0.0004
565,0.9261938035488129,1.9999258518218994,0.7307692307692307,0.8653846153846154,0.35714285714285715,0.7857142857142857,0.0004
566,0.9931834936141968,1.8998749256134033,0.6730769230769231,0.8461538461538461,0.35714285714285715,0.6428571428571429,0.0004
567,1.0512394309043884,1.938206434249878,0.7115384615384616,0.8653846153846154,0.35714285714285715,0.5714285714285714,0.0004
568,1.2777414917945862,1.8088488578796387,0.6346153846153846,0.8269230769230769,0.42857142857142855,0.7142857142857143,0.0004
569,1.1682658791542053,1.9466578960418701,0.7115384615384616,0.8461538461538461,0.35714285714285715,0.6428571428571429,0.0004
570,1.0387796759605408,1.6177747249603271,0.6923076923076923,0.8461538461538461,0.5,0.8571428571428571,0.0004
571,1.2527557015419006,2.0466034412384033,0.5,0.8269230769230769,0.42857142857142855,0.42857142857142855,0.0004
572,1.0962561964988708,1.4898195266723633,0.6346153846153846,0.8653846153846154,0.5714285714285714,0.7857142857142857,0.0004
573,1.066708743572235,2.0454936027526855,0.6346153846153846,0.8653846153846154,0.35714285714285715,0.6428571428571429,0.0004
574,1.091282606124878,1.6610441207885742,0.7692307692307693,0.8653846153846154,0.5714285714285714,0.7857142857142857,0.0004
575,1.0036048889160156,1.5923609733581543,0.7692307692307693,0.8653846153846154,0.42857142857142855,0.5714285714285714,0.0004
576,0.9922321438789368,2.1713099479675293,0.6730769230769231,0.8653846153846154,0.35714285714285715,0.42857142857142855,0.0004
577,1.2567452192306519,1.9800244569778442,0.6346153846153846,0.8076923076923077,0.42857142857142855,0.2857142857142857,0.0004
578,0.9303171336650848,2.1075406074523926,0.7115384615384616,0.8653846153846154,0.35714285714285715,0.2857142857142857,0.0004
579,1.1122612953186035,2.380857467651367,0.6730769230769231,0.8076923076923077,0.35714285714285715,0.14285714285714285,0.0004
580,1.0654277205467224,2.345950126647949,0.6346153846153846,0.8461538461538461,0.35714285714285715,0.14285714285714285,0.0004
581,1.2317545413970947,2.2119059562683105,0.5961538461538461,0.8461538461538461,0.42857142857142855,0.21428571428571427,0.0004
582,1.0345717072486877,2.1930928230285645,0.7115384615384616,0.8653846153846154,0.35714285714285715,0.21428571428571427,0.0004
583,0.9161317348480225,2.254138708114624,0.7692307692307693,0.8076923076923077,0.35714285714285715,0.14285714285714285,0.0004
584,1.0903600454330444,2.0609164237976074,0.7115384615384616,0.8846153846153846,0.35714285714285715,0.42857142857142855,0.0004
585,1.1633648872375488,2.3049283027648926,0.7115384615384616,0.8269230769230769,0.2857142857142857,0.2857142857142857,0.0004
586,1.0016942024230957,1.9740808010101318,0.7115384615384616,0.8269230769230769,0.42857142857142855,0.2857142857142857,0.0004
587,1.1839035749435425,2.286278486251831,0.5961538461538461,0.7692307692307693,0.35714285714285715,0.14285714285714285,0.0004
588,1.29649418592453,1.7401305437088013,0.6153846153846154,0.8653846153846154,0.42857142857142855,0.6428571428571429,0.0004
589,1.1624112129211426,1.6773245334625244,0.5961538461538461,0.8653846153846154,0.35714285714285715,0.7142857142857143,0.0004
590,1.3911786079406738,1.7485246658325195,0.6538461538461539,0.8461538461538461,0.35714285714285715,0.7857142857142857,0.0004
591,1.1461221575737,1.77228844165802,0.5961538461538461,0.8269230769230769,0.35714285714285715,0.8571428571428571,0.0004
592,0.959965705871582,1.822223424911499,0.6346153846153846,0.8461538461538461,0.35714285714285715,0.7857142857142857,0.0004
593,1.1615715026855469,2.0287933349609375,0.6538461538461539,0.8653846153846154,0.35714285714285715,0.6428571428571429,0.0004
594,0.8349749445915222,1.6600849628448486,0.7884615384615384,0.9038461538461539,0.35714285714285715,0.7857142857142857,0.0004
595,1.182377278804779,1.7482020854949951,0.6730769230769231,0.8461538461538461,0.35714285714285715,0.7142857142857143,0.0004
596,1.2458617091178894,1.6687214374542236,0.6153846153846154,0.8076923076923077,0.42857142857142855,0.8571428571428571,0.0004
597,1.255700409412384,1.7051670551300049,0.6346153846153846,0.8846153846153846,0.42857142857142855,0.7142857142857143,0.0004
598,1.2390784323215485,1.7070682048797607,0.5769230769230769,0.8846153846153846,0.42857142857142855,0.7142857142857143,0.0004
599,1.1343573927879333,1.9946556091308594,0.6346153846153846,0.8461538461538461,0.35714285714285715,0.6428571428571429,0.0004
600,1.216109037399292,2.114877223968506,0.6153846153846154,0.8461538461538461,0.35714285714285715,0.5,0.0004
601,1.14690762758255,2.112762689590454,0.6923076923076923,0.8653846153846154,0.2857142857142857,0.7142857142857143,0.0004
602,0.9700983762741089,2.0727577209472656,0.6923076923076923,0.8461538461538461,0.35714285714285715,0.5,0.0004
603,1.0012223720550537,1.7337944507598877,0.75,0.8846153846153846,0.42857142857142855,0.7857142857142857,0.0004
604,1.2338817119598389,1.999267816543579,0.5769230769230769,0.8461538461538461,0.2857142857142857,0.5,0.0004
605,0.953766256570816,2.1463398933410645,0.7307692307692307,0.9038461538461539,0.35714285714285715,0.2857142857142857,0.0004
606,1.048176884651184,1.9760534763336182,0.6730769230769231,0.8653846153846154,0.5,0.2857142857142857,0.0004
607,1.0990545749664307,1.8684138059616089,0.7307692307692307,0.8461538461538461,0.5,0.42857142857142855,0.0004
608,1.1708004474639893,1.8233355283737183,0.6538461538461539,0.8846153846153846,0.2857142857142857,0.6428571428571429,0.0004
609,1.2268162965774536,1.8860323429107666,0.5961538461538461,0.8076923076923077,0.35714285714285715,0.6428571428571429,0.0004
610,1.1186837553977966,2.172530174255371,0.6346153846153846,0.8653846153846154,0.35714285714285715,0.2857142857142857,0.0004
611,1.009441077709198,1.940603256225586,0.6923076923076923,0.9230769230769231,0.35714285714285715,0.42857142857142855,0.0004
612,1.3699023127555847,2.1351611614227295,0.5961538461538461,0.7692307692307693,0.35714285714285715,0.35714285714285715,0.0004
613,1.0268040299415588,2.4909207820892334,0.7307692307692307,0.8653846153846154,0.35714285714285715,0.07142857142857142,0.0004
614,1.150969922542572,2.485954523086548,0.5769230769230769,0.8653846153846154,0.35714285714285715,0.21428571428571427,0.0004
615,0.9979615211486816,1.9878568649291992,0.7115384615384616,0.8653846153846154,0.35714285714285715,0.5,0.0004
616,0.9991694688796997,2.2838563919067383,0.6730769230769231,0.9423076923076923,0.35714285714285715,0.35714285714285715,0.0004
617,1.2301046252250671,2.1834301948547363,0.6346153846153846,0.8269230769230769,0.2857142857142857,0.35714285714285715,0.0004
618,1.3053293228149414,2.1506402492523193,0.5192307692307693,0.8269230769230769,0.35714285714285715,0.2857142857142857,0.0004
619,1.3035420179367065,1.7480998039245605,0.5384615384615384,0.8076923076923077,0.35714285714285715,0.6428571428571429,0.0004
620,1.1629449725151062,1.421671748161316,0.7115384615384616,0.8269230769230769,0.42857142857142855,0.7857142857142857,0.0004
621,1.0273732542991638,1.8762632608413696,0.7115384615384616,0.8269230769230769,0.35714285714285715,0.5,0.0004
622,1.1752080917358398,1.9436988830566406,0.6346153846153846,0.8846153846153846,0.35714285714285715,0.35714285714285715,0.0004
623,1.1119962334632874,2.034492254257202,0.6538461538461539,0.8653846153846154,0.35714285714285715,0.35714285714285715,0.0004
624,1.1499477624893188,1.8081084489822388,0.5961538461538461,0.9038461538461539,0.42857142857142855,0.5714285714285714,0.0004
625,1.0854156017303467,2.0180158615112305,0.6923076923076923,0.9038461538461539,0.42857142857142855,0.6428571428571429,0.0004
626,1.244929015636444,1.926700234413147,0.6538461538461539,0.8461538461538461,0.35714285714285715,0.7857142857142857,0.0004
627,1.1200552582740784,1.9409229755401611,0.5384615384615384,0.8846153846153846,0.35714285714285715,0.6428571428571429,0.0004
628,1.1717504560947418,2.223806381225586,0.6153846153846154,0.8653846153846154,0.35714285714285715,0.2857142857142857,0.0004
629,0.9272361397743225,1.9709978103637695,0.6538461538461539,0.9230769230769231,0.35714285714285715,0.42857142857142855,0.0004
630,1.0519928336143494,2.1529998779296875,0.6730769230769231,0.8461538461538461,0.42857142857142855,0.2857142857142857,0.0004
631,1.074183464050293,2.5121006965637207,0.6923076923076923,0.8269230769230769,0.35714285714285715,0.14285714285714285,0.0004
632,1.1387185454368591,2.577944278717041,0.5769230769230769,0.8653846153846154,0.35714285714285715,0.14285714285714285,0.0004
633,1.107434868812561,2.1540162563323975,0.6153846153846154,0.9038461538461539,0.42857142857142855,0.5,0.0004
634,1.3794320225715637,1.4580507278442383,0.5576923076923077,0.8076923076923077,0.5714285714285714,0.7142857142857143,0.0004
635,1.1918669939041138,1.2687565088272095,0.5769230769230769,0.8461538461538461,0.42857142857142855,0.7857142857142857,0.0004
636,1.2984496355056763,1.5704981088638306,0.6538461538461539,0.8269230769230769,0.2857142857142857,0.8571428571428571,0.0004
637,0.9759311079978943,2.023099899291992,0.7115384615384616,0.8461538461538461,0.42857142857142855,0.42857142857142855,0.0004
638,1.338510274887085,2.204965829849243,0.5576923076923077,0.8076923076923077,0.35714285714285715,0.2857142857142857,0.0004
639,1.3903570175170898,2.289618968963623,0.5,0.7692307692307693,0.35714285714285715,0.21428571428571427,0.0004
640,1.2586166858673096,1.7360349893569946,0.6346153846153846,0.8653846153846154,0.35714285714285715,0.7857142857142857,0.0004
641,1.1942003965377808,1.6122756004333496,0.5769230769230769,0.9038461538461539,0.35714285714285715,0.7857142857142857,0.0004
642,1.0213008522987366,1.441847562789917,0.6923076923076923,0.8653846153846154,0.42857142857142855,0.8571428571428571,0.0004
643,1.2864497303962708,1.8744518756866455,0.5384615384615384,0.8461538461538461,0.35714285714285715,0.7857142857142857,0.0004
644,1.1666345000267029,2.120164394378662,0.6153846153846154,0.8653846153846154,0.35714285714285715,0.5714285714285714,0.0004
645,1.247434139251709,2.1312685012817383,0.6538461538461539,0.8846153846153846,0.35714285714285715,0.35714285714285715,0.0004
646,1.1760741472244263,2.0820508003234863,0.6346153846153846,0.8653846153846154,0.42857142857142855,0.35714285714285715,0.0004
647,1.193860948085785,2.2488317489624023,0.6153846153846154,0.8269230769230769,0.2857142857142857,0.35714285714285715,0.0004
648,1.0273762941360474,2.3462114334106445,0.6923076923076923,0.8269230769230769,0.21428571428571427,0.42857142857142855,0.0004
649,1.11741703748703,1.9766517877578735,0.6538461538461539,0.8653846153846154,0.35714285714285715,0.7142857142857143,0.0004
650,1.2399511933326721,1.6578600406646729,0.6153846153846154,0.8269230769230769,0.42857142857142855,0.5714285714285714,0.0004
651,1.225525826215744,1.7428233623504639,0.5576923076923077,0.8846153846153846,0.42857142857142855,0.7142857142857143,0.0004
652,1.0378139317035675,2.0382068157196045,0.6923076923076923,0.8653846153846154,0.35714285714285715,0.35714285714285715,0.0004
653,0.9055887758731842,2.1564412117004395,0.7115384615384616,0.9423076923076923,0.35714285714285715,0.2857142857142857,0.0004
654,1.0057941675186157,2.1274006366729736,0.6923076923076923,0.9230769230769231,0.35714285714285715,0.2857142857142857,0.0004
655,1.2312301993370056,2.2132928371429443,0.6730769230769231,0.9038461538461539,0.35714285714285715,0.2857142857142857,0.0004
656,1.348876953125,1.9120291471481323,0.5961538461538461,0.7884615384615384,0.5,0.35714285714285715,0.0004
657,1.0260353684425354,2.375213146209717,0.6538461538461539,0.9038461538461539,0.35714285714285715,0.14285714285714285,0.0004
658,1.0827390253543854,2.2954015731811523,0.7307692307692307,0.8846153846153846,0.35714285714285715,0.2857142857142857,0.0004
659,1.2424721717834473,1.7607557773590088,0.5384615384615384,0.8653846153846154,0.42857142857142855,0.7142857142857143,0.0004
660,1.0048081874847412,1.8680063486099243,0.7115384615384616,0.8653846153846154,0.35714285714285715,0.7857142857142857,0.0004
661,1.1343589425086975,1.8219634294509888,0.6346153846153846,0.8653846153846154,0.35714285714285715,0.7142857142857143,0.0004
662,0.8927431106567383,1.9865868091583252,0.8076923076923077,0.8653846153846154,0.35714285714285715,0.5,0.0004
663,1.2065374255180359,1.9483797550201416,0.6538461538461539,0.8461538461538461,0.42857142857142855,0.5,0.0004
664,1.0335657000541687,2.245476007461548,0.6730769230769231,0.8846153846153846,0.35714285714285715,0.2857142857142857,0.0004
665,1.0123577117919922,1.9984679222106934,0.6923076923076923,0.9038461538461539,0.5,0.35714285714285715,0.0004
666,0.9274390935897827,2.119856357574463,0.7692307692307693,0.8653846153846154,0.42857142857142855,0.2857142857142857,0.0004
667,1.1091396808624268,2.526895046234131,0.5961538461538461,0.8461538461538461,0.2857142857142857,0.21428571428571427,0.0004
668,0.9827903509140015,2.1339845657348633,0.6923076923076923,0.8653846153846154,0.35714285714285715,0.42857142857142855,0.0004
669,1.0646572411060333,2.221815824508667,0.6923076923076923,0.8076923076923077,0.35714285714285715,0.35714285714285715,0.0004
670,1.179400771856308,2.142850875854492,0.6923076923076923,0.8461538461538461,0.35714285714285715,0.35714285714285715,0.0004
671,1.083767831325531,2.402723550796509,0.5769230769230769,0.9038461538461539,0.35714285714285715,0.21428571428571427,0.0004
672,1.155090868473053,1.9225437641143799,0.6153846153846154,0.8461538461538461,0.35714285714285715,0.6428571428571429,0.0004
673,0.987608015537262,1.7344818115234375,0.75,0.8269230769230769,0.42857142857142855,0.6428571428571429,0.0004
674,1.1255234479904175,1.4898872375488281,0.6346153846153846,0.8653846153846154,0.42857142857142855,0.7142857142857143,0.0004
675,1.000508040189743,1.6773533821105957,0.7115384615384616,0.8653846153846154,0.42857142857142855,0.7857142857142857,0.0004
676,1.1542176604270935,2.0518789291381836,0.6730769230769231,0.8846153846153846,0.35714285714285715,0.5714285714285714,0.0004
677,1.0999988913536072,1.7875988483428955,0.7115384615384616,0.8269230769230769,0.42857142857142855,0.5,0.0004
678,1.1615464985370636,1.8948825597763062,0.6346153846153846,0.9038461538461539,0.5,0.35714285714285715,0.0004
679,1.166256606578827,2.037045478820801,0.6923076923076923,0.9230769230769231,0.35714285714285715,0.42857142857142855,0.0004
680,1.1658390760421753,2.202735424041748,0.7307692307692307,0.8461538461538461,0.42857142857142855,0.2857142857142857,0.0004
681,1.2910624742507935,2.424245595932007,0.6153846153846154,0.8461538461538461,0.35714285714285715,0.21428571428571427,0.0004
682,1.0157060623168945,2.4236350059509277,0.75,0.8461538461538461,0.42857142857142855,0.21428571428571427,0.0004
683,1.0284889340400696,2.2169575691223145,0.6538461538461539,0.9423076923076923,0.42857142857142855,0.2857142857142857,0.0004
684,1.0311450958251953,1.8208084106445312,0.6538461538461539,0.8846153846153846,0.42857142857142855,0.35714285714285715,0.0004
685,0.9151913225650787,2.099536895751953,0.7884615384615384,0.8846153846153846,0.42857142857142855,0.42857142857142855,0.0004
686,1.0052673816680908,2.2459464073181152,0.6538461538461539,0.9038461538461539,0.42857142857142855,0.35714285714285715,0.0004
687,1.164378583431244,2.614323377609253,0.7307692307692307,0.8076923076923077,0.35714285714285715,0.21428571428571427,0.0004
688,1.09831503033638,2.184220552444458,0.5961538461538461,0.8846153846153846,0.35714285714285715,0.35714285714285715,0.0004
689,1.050021469593048,2.085568428039551,0.6538461538461539,0.8846153846153846,0.35714285714285715,0.6428571428571429,0.0004
690,0.9881225526332855,1.5890226364135742,0.6730769230769231,0.8846153846153846,0.42857142857142855,0.7857142857142857,0.0004
691,1.0941656231880188,1.9163966178894043,0.5961538461538461,0.8846153846153846,0.42857142857142855,0.5,0.0004
692,0.8839097023010254,2.711056709289551,0.7307692307692307,0.9230769230769231,0.2857142857142857,0.2857142857142857,0.0004
693,1.0192427337169647,2.4608492851257324,0.7115384615384616,0.8653846153846154,0.35714285714285715,0.2857142857142857,0.0004
694,1.068111002445221,2.5077080726623535,0.6538461538461539,0.8269230769230769,0.35714285714285715,0.21428571428571427,0.0004
695,0.9281977117061615,1.953571081161499,0.6923076923076923,0.9038461538461539,0.42857142857142855,0.5,0.0004
696,1.1421349048614502,1.4164477586746216,0.6346153846153846,0.8846153846153846,0.5,0.7142857142857143,0.0004
697,1.2934411764144897,1.5968377590179443,0.5576923076923077,0.8461538461538461,0.5,0.6428571428571429,0.0004
698,1.047169029712677,2.258031129837036,0.6923076923076923,0.8846153846153846,0.35714285714285715,0.35714285714285715,0.0004
699,1.3017499446868896,2.496363878250122,0.5576923076923077,0.8461538461538461,0.35714285714285715,0.35714285714285715,0.0004
700,1.154463529586792,2.947697877883911,0.6153846153846154,0.8269230769230769,0.35714285714285715,0.14285714285714285,0.0004
701,1.2115451097488403,2.605766534805298,0.5192307692307693,0.8653846153846154,0.2857142857142857,0.35714285714285715,0.0004
702,0.9977422058582306,2.3984334468841553,0.6538461538461539,0.9230769230769231,0.42857142857142855,0.21428571428571427,0.0004
703,1.0533177256584167,2.0857155323028564,0.6730769230769231,0.8846153846153846,0.42857142857142855,0.5,0.0004
704,1.2780045866966248,1.9424937963485718,0.5576923076923077,0.8653846153846154,0.2857142857142857,0.6428571428571429,0.0004
705,1.1506244540214539,1.9717661142349243,0.6153846153846154,0.7884615384615384,0.35714285714285715,0.7857142857142857,0.0004
706,1.1790944337844849,1.881401538848877,0.5961538461538461,0.8269230769230769,0.35714285714285715,0.7142857142857143,0.0004
707,1.3780430555343628,1.9510619640350342,0.5576923076923077,0.8461538461538461,0.35714285714285715,0.6428571428571429,0.0004
708,1.0995901823043823,2.3833813667297363,0.6153846153846154,0.9038461538461539,0.2857142857142857,0.35714285714285715,0.0004
709,1.0412241220474243,2.6219520568847656,0.6538461538461539,0.8846153846153846,0.35714285714285715,0.21428571428571427,0.0004
710,1.4452031254768372,2.6070308685302734,0.5576923076923077,0.7115384615384616,0.35714285714285715,0.2857142857142857,0.0004
711,1.1058735847473145,2.498260259628296,0.7307692307692307,0.8269230769230769,0.35714285714285715,0.35714285714285715,0.0004
712,0.8822194337844849,2.6691529750823975,0.7884615384615384,0.9230769230769231,0.42857142857142855,0.21428571428571427,0.0004
713,1.410192608833313,2.5695502758026123,0.5384615384615384,0.7884615384615384,0.35714285714285715,0.2857142857142857,0.0004
714,1.0549703240394592,2.749634027481079,0.5961538461538461,0.8653846153846154,0.35714285714285715,0.14285714285714285,0.0004
715,1.0814971625804901,2.411719799041748,0.6346153846153846,0.8269230769230769,0.42857142857142855,0.2857142857142857,0.0004
716,1.2585073709487915,2.2808010578155518,0.6153846153846154,0.8269230769230769,0.42857142857142855,0.2857142857142857,0.0004
717,1.0574538707733154,2.2287473678588867,0.75,0.8846153846153846,0.42857142857142855,0.2857142857142857,0.0004
718,0.987863153219223,2.1157336235046387,0.7692307692307693,0.8846153846153846,0.42857142857142855,0.2857142857142857,0.0004
719,1.2722840309143066,2.0573415756225586,0.5961538461538461,0.7884615384615384,0.35714285714285715,0.35714285714285715,0.0004
720,1.256677269935608,2.059325933456421,0.5192307692307693,0.8653846153846154,0.35714285714285715,0.35714285714285715,0.0004
721,1.1418917775154114,1.999273419380188,0.6153846153846154,0.8653846153846154,0.42857142857142855,0.5,0.0004
722,1.0394752621650696,1.9366486072540283,0.6730769230769231,0.8846153846153846,0.42857142857142855,0.5,0.0004
723,1.016857922077179,1.9398510456085205,0.6538461538461539,0.9038461538461539,0.35714285714285715,0.42857142857142855,0.0004
724,0.9461842179298401,2.113501787185669,0.75,0.8653846153846154,0.35714285714285715,0.35714285714285715,0.0004
725,1.4061251878738403,2.198441743850708,0.5961538461538461,0.75,0.35714285714285715,0.42857142857142855,0.0004
726,1.046571433544159,2.1081581115722656,0.5961538461538461,0.8653846153846154,0.2857142857142857,0.35714285714285715,0.0004
727,1.1129275560379028,1.7519557476043701,0.6346153846153846,0.8461538461538461,0.42857142857142855,0.5714285714285714,0.0004
728,0.9832490682601929,2.1153972148895264,0.6538461538461539,0.9038461538461539,0.42857142857142855,0.21428571428571427,0.0004
729,0.9294496178627014,2.1388094425201416,0.7692307692307693,0.9230769230769231,0.35714285714285715,0.2857142857142857,0.0004
730,0.7771556079387665,2.0314555168151855,0.7692307692307693,0.9230769230769231,0.42857142857142855,0.35714285714285715,0.0004
731,0.9574325978755951,1.95002019405365,0.6730769230769231,0.8461538461538461,0.42857142857142855,0.35714285714285715,0.0004
732,1.0478705763816833,2.2737553119659424,0.6730769230769231,0.8846153846153846,0.35714285714285715,0.21428571428571427,0.0004
733,1.2147161960601807,2.439664840698242,0.6538461538461539,0.9038461538461539,0.35714285714285715,0.07142857142857142,0.0004
734,1.0310326218605042,2.319852828979492,0.7307692307692307,0.8461538461538461,0.35714285714285715,0.21428571428571427,0.0004
735,1.103358119726181,2.315593957901001,0.6538461538461539,0.8461538461538461,0.35714285714285715,0.2857142857142857,0.0004
736,1.1177330017089844,2.3251469135284424,0.6730769230769231,0.8269230769230769,0.42857142857142855,0.21428571428571427,0.0004
737,1.178592324256897,2.5402610301971436,0.6538461538461539,0.8076923076923077,0.2857142857142857,0.21428571428571427,0.0004
738,1.176559031009674,2.2933101654052734,0.5961538461538461,0.8461538461538461,0.2857142857142857,0.2857142857142857,0.0004
739,1.0720909237861633,2.149746894836426,0.6730769230769231,0.8846153846153846,0.35714285714285715,0.35714285714285715,0.0004
740,1.235948383808136,2.0873494148254395,0.5961538461538461,0.8653846153846154,0.2857142857142857,0.5,0.0004
741,0.9936074614524841,2.131826400756836,0.7115384615384616,0.8269230769230769,0.35714285714285715,0.7142857142857143,0.0004
742,1.1788691878318787,1.8695942163467407,0.6346153846153846,0.8269230769230769,0.42857142857142855,0.7142857142857143,0.0004
743,1.2140803933143616,1.8747470378875732,0.6346153846153846,0.8269230769230769,0.42857142857142855,0.7142857142857143,0.0004
744,1.1867159605026245,1.7913055419921875,0.6538461538461539,0.8269230769230769,0.42857142857142855,0.7142857142857143,0.0004
745,1.042423665523529,1.9695329666137695,0.7307692307692307,0.8461538461538461,0.42857142857142855,0.6428571428571429,0.0004
746,1.2739390134811401,1.7740862369537354,0.5769230769230769,0.8461538461538461,0.5,0.5714285714285714,0.0004
747,1.2055221199989319,2.036680221557617,0.6153846153846154,0.8653846153846154,0.2857142857142857,0.8571428571428571,0.0004
748,1.0884402096271515,1.7480592727661133,0.6538461538461539,0.8076923076923077,0.42857142857142855,0.8571428571428571,0.0004
749,1.292557954788208,1.8886529207229614,0.6346153846153846,0.8653846153846154,0.42857142857142855,0.5,0.0004
750,1.1693513989448547,1.7511096000671387,0.6153846153846154,0.8076923076923077,0.35714285714285715,0.7857142857142857,0.0004
751,1.2289621829986572,1.6992818117141724,0.6923076923076923,0.8461538461538461,0.42857142857142855,0.8571428571428571,0.0004
752,1.152144730091095,2.0628228187561035,0.6346153846153846,0.8653846153846154,0.35714285714285715,0.42857142857142855,0.0004
753,1.1242460012435913,2.004593849182129,0.7307692307692307,0.8846153846153846,0.42857142857142855,0.42857142857142855,0.0004
754,1.2113463282585144,2.0793538093566895,0.6346153846153846,0.8461538461538461,0.35714285714285715,0.42857142857142855,0.0004
755,0.937897264957428,1.8561794757843018,0.7884615384615384,0.8461538461538461,0.35714285714285715,0.5714285714285714,0.0004
756,1.1161603927612305,2.004080295562744,0.6538461538461539,0.8846153846153846,0.35714285714285715,0.5714285714285714,0.0004
757,0.9911721348762512,1.8919379711151123,0.7307692307692307,0.9038461538461539,0.5,0.35714285714285715,0.0004
758,1.3187124133110046,2.057100772857666,0.5192307692307693,0.8461538461538461,0.35714285714285715,0.42857142857142855,0.0004
759,1.0269056260585785,2.3518381118774414,0.6346153846153846,0.9038461538461539,0.35714285714285715,0.14285714285714285,0.0004
760,1.1206656098365784,2.383491277694702,0.6730769230769231,0.8076923076923077,0.35714285714285715,0.14285714285714285,0.0004
761,1.207074224948883,2.0523595809936523,0.6346153846153846,0.8653846153846154,0.2857142857142857,0.5,0.0004
762,1.1196288466453552,1.842060923576355,0.6730769230769231,0.8846153846153846,0.35714285714285715,0.42857142857142855,0.0004
763,1.1118754744529724,2.0953173637390137,0.6346153846153846,0.8653846153846154,0.35714285714285715,0.35714285714285715,0.0004
764,0.9029847085475922,2.174164056777954,0.7115384615384616,0.9038461538461539,0.42857142857142855,0.21428571428571427,0.0004
765,1.089123249053955,2.3145761489868164,0.5961538461538461,0.8653846153846154,0.35714285714285715,0.35714285714285715,0.0004
766,1.1214170455932617,2.2137269973754883,0.6730769230769231,0.8653846153846154,0.42857142857142855,0.2857142857142857,0.0004
767,1.2076178193092346,2.1907286643981934,0.5769230769230769,0.8461538461538461,0.42857142857142855,0.21428571428571427,0.0004
768,0.8018124103546143,2.2178430557250977,0.7884615384615384,0.8846153846153846,0.42857142857142855,0.21428571428571427,0.0004
769,0.9135890007019043,1.7890989780426025,0.75,0.9230769230769231,0.5714285714285714,0.42857142857142855,0.0004
770,1.1749777793884277,2.1685314178466797,0.6730769230769231,0.8653846153846154,0.42857142857142855,0.2857142857142857,0.0004
771,1.0655277967453003,1.8362207412719727,0.6730769230769231,0.8846153846153846,0.5,0.42857142857142855,0.0004
772,1.0911035239696503,1.5767699480056763,0.7307692307692307,0.9038461538461539,0.5,0.7142857142857143,0.0004
773,1.0797492861747742,1.9889808893203735,0.6346153846153846,0.8846153846153846,0.35714285714285715,0.5,0.0004
774,1.0594314932823181,2.3158838748931885,0.7307692307692307,0.9038461538461539,0.35714285714285715,0.35714285714285715,0.0004
775,0.9759908318519592,2.5064992904663086,0.7115384615384616,0.8653846153846154,0.2857142857142857,0.2857142857142857,0.0004
776,1.1424559354782104,2.4739058017730713,0.6730769230769231,0.7884615384615384,0.35714285714285715,0.2857142857142857,0.0004
777,0.9254511892795563,2.601148843765259,0.75,0.9038461538461539,0.35714285714285715,0.21428571428571427,0.0004
778,1.3253502249717712,2.633554220199585,0.5769230769230769,0.7692307692307693,0.35714285714285715,0.21428571428571427,0.0004
779,1.106981098651886,2.5272645950317383,0.6730769230769231,0.8461538461538461,0.35714285714285715,0.21428571428571427,0.0004
780,1.0720074772834778,2.685520887374878,0.6153846153846154,0.8461538461538461,0.35714285714285715,0.14285714285714285,0.0004
781,0.9832757115364075,2.256190299987793,0.6923076923076923,0.8269230769230769,0.35714285714285715,0.42857142857142855,0.0004
782,1.2501091957092285,2.447143316268921,0.6730769230769231,0.7884615384615384,0.42857142857142855,0.21428571428571427,0.0004
783,0.8846971690654755,2.231154203414917,0.6923076923076923,0.8653846153846154,0.42857142857142855,0.2857142857142857,0.0004
784,1.1055660843849182,2.567979574203491,0.6923076923076923,0.8653846153846154,0.35714285714285715,0.14285714285714285,0.0004
785,0.8926292657852173,2.090238571166992,0.75,0.9038461538461539,0.42857142857142855,0.35714285714285715,0.0004
786,1.2280496954917908,2.4437942504882812,0.6923076923076923,0.8461538461538461,0.42857142857142855,0.14285714285714285,0.0004
787,1.0491101741790771,2.5287294387817383,0.6923076923076923,0.8846153846153846,0.35714285714285715,0.14285714285714285,0.0004
788,1.123917043209076,2.0754573345184326,0.6346153846153846,0.8461538461538461,0.42857142857142855,0.2857142857142857,0.0004
789,1.0365092754364014,2.310490846633911,0.7692307692307693,0.9038461538461539,0.2857142857142857,0.2857142857142857,0.0004
790,0.7836332619190216,2.3525640964508057,0.7884615384615384,0.9423076923076923,0.35714285714285715,0.35714285714285715,0.0004
791,1.2279333472251892,2.248746395111084,0.5961538461538461,0.8846153846153846,0.35714285714285715,0.21428571428571427,0.0004
792,1.1931623816490173,2.1298022270202637,0.5961538461538461,0.8461538461538461,0.35714285714285715,0.5714285714285714,0.0004
793,1.0783357620239258,1.83174729347229,0.6923076923076923,0.8461538461538461,0.42857142857142855,0.7857142857142857,0.0004
794,0.9028788208961487,1.9273658990859985,0.7307692307692307,0.8269230769230769,0.35714285714285715,0.9285714285714286,0.0004
795,1.1233254075050354,1.9209314584732056,0.6730769230769231,0.8653846153846154,0.2857142857142857,0.7142857142857143,0.0004
796,1.1455281972885132,2.018395185470581,0.5961538461538461,0.8461538461538461,0.42857142857142855,0.5,0.0004
797,1.0573916733264923,2.3376388549804688,0.6923076923076923,0.8653846153846154,0.35714285714285715,0.2857142857142857,0.0004
798,1.0203651189804077,2.249239921569824,0.6923076923076923,0.8653846153846154,0.35714285714285715,0.42857142857142855,0.0004
799,1.0210316181182861,2.3167147636413574,0.75,0.8653846153846154,0.35714285714285715,0.21428571428571427,0.0004
800,0.926767498254776,1.8924012184143066,0.7115384615384616,0.9423076923076923,0.35714285714285715,0.5,0.0004
801,1.0429332256317139,2.2699451446533203,0.6730769230769231,0.9423076923076923,0.35714285714285715,0.2857142857142857,0.0004
802,1.0036988854408264,2.1626498699188232,0.6730769230769231,0.9038461538461539,0.42857142857142855,0.2857142857142857,0.0004
803,1.070809006690979,2.5194408893585205,0.7115384615384616,0.8076923076923077,0.35714285714285715,0.14285714285714285,0.0004
804,0.9438164830207825,2.595574378967285,0.7307692307692307,0.8653846153846154,0.35714285714285715,0.21428571428571427,0.0004
805,0.9037284553050995,2.616589307785034,0.6923076923076923,0.9230769230769231,0.2857142857142857,0.21428571428571427,0.0004
806,1.1858115196228027,2.413846731185913,0.5961538461538461,0.8846153846153846,0.35714285714285715,0.2857142857142857,0.0004
807,1.1109482049942017,2.4669668674468994,0.6730769230769231,0.8269230769230769,0.2857142857142857,0.35714285714285715,0.0004
808,1.1676867604255676,2.509854793548584,0.6730769230769231,0.8076923076923077,0.35714285714285715,0.21428571428571427,0.0004
809,0.838074117898941,2.5481791496276855,0.75,0.8461538461538461,0.2857142857142857,0.14285714285714285,0.0004
810,1.0642291903495789,2.4169788360595703,0.6730769230769231,0.8076923076923077,0.35714285714285715,0.35714285714285715,0.0004
811,1.0450948476791382,1.9903810024261475,0.6730769230769231,0.8846153846153846,0.35714285714285715,0.42857142857142855,0.0004
812,0.805701345205307,2.316444158554077,0.75,0.9038461538461539,0.42857142857142855,0.21428571428571427,0.0004
813,0.9850763380527496,2.3788561820983887,0.6346153846153846,0.9230769230769231,0.2857142857142857,0.35714285714285715,0.0004
814,1.0269294381141663,2.177527666091919,0.5961538461538461,0.9230769230769231,0.42857142857142855,0.2857142857142857,0.0004
815,0.9578961431980133,2.157809257507324,0.6730769230769231,0.9230769230769231,0.5,0.2857142857142857,0.0004
816,0.9033365845680237,2.080599784851074,0.7115384615384616,0.9615384615384616,0.42857142857142855,0.2857142857142857,0.0004
817,1.200416922569275,2.1324808597564697,0.6730769230769231,0.8269230769230769,0.42857142857142855,0.5,0.0004
818,0.991752028465271,2.388099431991577,0.6538461538461539,0.8461538461538461,0.35714285714285715,0.35714285714285715,0.0004
819,1.0477230250835419,2.459627628326416,0.6538461538461539,0.8846153846153846,0.35714285714285715,0.21428571428571427,0.0004
820,0.8944106698036194,2.881376266479492,0.7115384615384616,0.9038461538461539,0.35714285714285715,0.14285714285714285,0.0004
821,1.4331601858139038,2.6318836212158203,0.5576923076923077,0.7884615384615384,0.35714285714285715,0.21428571428571427,0.0004
822,1.2550585269927979,2.5275866985321045,0.6730769230769231,0.8653846153846154,0.35714285714285715,0.2857142857142857,0.0004
823,0.9768945276737213,2.2232179641723633,0.7884615384615384,0.8076923076923077,0.35714285714285715,0.5,0.0004
824,1.1903584599494934,2.5858569145202637,0.7307692307692307,0.7115384615384616,0.35714285714285715,0.21428571428571427,0.0004
825,1.4154645800590515,2.483009099960327,0.5961538461538461,0.8653846153846154,0.35714285714285715,0.21428571428571427,0.0004
826,1.2322037816047668,2.2537264823913574,0.6153846153846154,0.8653846153846154,0.35714285714285715,0.35714285714285715,0.0004
827,1.4139779806137085,2.252509832382202,0.5192307692307693,0.8846153846153846,0.2857142857142857,0.35714285714285715,0.0004
828,1.1170090436935425,2.1704838275909424,0.6153846153846154,0.9038461538461539,0.2857142857142857,0.42857142857142855,0.0004
829,1.0096753239631653,2.167529582977295,0.6730769230769231,0.9038461538461539,0.42857142857142855,0.2857142857142857,0.0004
830,1.1192243695259094,2.371995449066162,0.5576923076923077,0.8846153846153846,0.42857142857142855,0.2857142857142857,0.0004
831,1.1710349917411804,2.0045714378356934,0.5961538461538461,0.9230769230769231,0.35714285714285715,0.6428571428571429,0.0004
832,1.0673170685768127,1.4570708274841309,0.6923076923076923,0.8461538461538461,0.5,0.9285714285714286,0.0004
833,1.0284205079078674,1.922906517982483,0.6730769230769231,0.8461538461538461,0.35714285714285715,0.7857142857142857,0.0004
834,1.060104876756668,2.0725224018096924,0.6346153846153846,0.7884615384615384,0.35714285714285715,0.2857142857142857,0.0004
835,1.0671414732933044,2.367426872253418,0.6153846153846154,0.9230769230769231,0.35714285714285715,0.2857142857142857,0.0004
836,1.1453877091407776,2.5133116245269775,0.6538461538461539,0.8846153846153846,0.35714285714285715,0.14285714285714285,0.0004
837,1.0415977239608765,2.4571375846862793,0.6730769230769231,0.8461538461538461,0.35714285714285715,0.21428571428571427,0.0004
838,0.9922709465026855,2.4348762035369873,0.6923076923076923,0.8846153846153846,0.42857142857142855,0.14285714285714285,0.0004
839,1.1539421677589417,2.451153039932251,0.6730769230769231,0.7884615384615384,0.35714285714285715,0.21428571428571427,0.0004
840,1.1438260674476624,2.315528631210327,0.5769230769230769,0.8269230769230769,0.42857142857142855,0.2857142857142857,0.0004
841,1.1236189007759094,2.2813963890075684,0.6730769230769231,0.8461538461538461,0.35714285714285715,0.21428571428571427,0.0004
842,0.9100916385650635,2.5413451194763184,0.75,0.8461538461538461,0.35714285714285715,0.14285714285714285,0.0004
843,1.2444828748703003,2.4532649517059326,0.6153846153846154,0.8269230769230769,0.35714285714285715,0.14285714285714285,0.0004
844,1.2448716163635254,2.398163318634033,0.6346153846153846,0.8076923076923077,0.35714285714285715,0.21428571428571427,0.0004
845,1.0717679858207703,2.235077142715454,0.6346153846153846,0.8846153846153846,0.35714285714285715,0.2857142857142857,0.0004
846,0.9119212031364441,2.2427027225494385,0.7692307692307693,0.8653846153846154,0.35714285714285715,0.21428571428571427,0.0004
847,1.297793447971344,2.166677951812744,0.6730769230769231,0.8846153846153846,0.35714285714285715,0.2857142857142857,0.0004
848,1.1417823433876038,2.1204276084899902,0.6346153846153846,0.9038461538461539,0.42857142857142855,0.21428571428571427,0.0004
849,1.025376170873642,2.1108767986297607,0.6538461538461539,0.8461538461538461,0.35714285714285715,0.35714285714285715,0.0004
850,1.0825496017932892,1.8096239566802979,0.6346153846153846,0.8269230769230769,0.42857142857142855,0.42857142857142855,0.0004
851,1.1853798031806946,2.320662498474121,0.6538461538461539,0.9230769230769231,0.35714285714285715,0.21428571428571427,0.0004
852,0.9405010938644409,2.3664793968200684,0.6923076923076923,0.9230769230769231,0.35714285714285715,0.14285714285714285,0.0004
853,1.2052422761917114,2.4214208126068115,0.6538461538461539,0.8269230769230769,0.35714285714285715,0.14285714285714285,0.0004
854,1.069169282913208,2.3959429264068604,0.6538461538461539,0.9038461538461539,0.35714285714285715,0.21428571428571427,0.0004
855,1.0271517634391785,2.283813953399658,0.6346153846153846,0.8653846153846154,0.35714285714285715,0.2857142857142857,0.0004
856,0.936104029417038,2.048163890838623,0.7884615384615384,0.8846153846153846,0.35714285714285715,0.5,0.0004
857,1.0138826370239258,1.902289867401123,0.6730769230769231,0.8269230769230769,0.35714285714285715,0.6428571428571429,0.0004
858,1.083615928888321,1.7981096506118774,0.6730769230769231,0.9038461538461539,0.35714285714285715,0.7857142857142857,0.0004
859,0.9903700351715088,2.1094813346862793,0.6923076923076923,0.8461538461538461,0.35714285714285715,0.5,0.0004
860,1.1036409139633179,2.100959062576294,0.6346153846153846,0.8653846153846154,0.35714285714285715,0.42857142857142855,0.0004
861,1.2922199368476868,2.342909812927246,0.5769230769230769,0.8653846153846154,0.35714285714285715,0.21428571428571427,0.0004
862,1.1899878978729248,2.1382923126220703,0.7307692307692307,0.8076923076923077,0.5,0.2857142857142857,0.0004
863,1.1644165515899658,2.2859549522399902,0.6538461538461539,0.8269230769230769,0.35714285714285715,0.21428571428571427,0.0004
864,1.2321476936340332,2.085317373275757,0.5769230769230769,0.9230769230769231,0.35714285714285715,0.35714285714285715,0.0004
865,1.1582880020141602,1.83097505569458,0.6153846153846154,0.9038461538461539,0.35714285714285715,0.7142857142857143,0.0004
866,0.9353898763656616,1.5202879905700684,0.7692307692307693,0.8269230769230769,0.35714285714285715,0.7857142857142857,0.0004
867,1.2272342443466187,2.1103672981262207,0.6153846153846154,0.8076923076923077,0.35714285714285715,0.5714285714285714,0.0004
868,0.9336300492286682,2.1873464584350586,0.7115384615384616,0.8653846153846154,0.2857142857142857,0.2857142857142857,0.0004
869,1.1699522733688354,2.1738173961639404,0.6923076923076923,0.9038461538461539,0.42857142857142855,0.2857142857142857,0.0004
870,1.066549003124237,2.1526072025299072,0.5961538461538461,0.8461538461538461,0.42857142857142855,0.2857142857142857,0.0004
871,1.1562718749046326,1.8273720741271973,0.6346153846153846,0.9038461538461539,0.5,0.42857142857142855,0.0004
872,1.0532324314117432,1.9009398221969604,0.6923076923076923,0.9423076923076923,0.42857142857142855,0.7142857142857143,0.0004
873,1.0512134432792664,1.6442981958389282,0.6730769230769231,0.8269230769230769,0.42857142857142855,0.6428571428571429,0.0004
874,1.04951012134552,1.9033527374267578,0.6538461538461539,0.8846153846153846,0.35714285714285715,0.5714285714285714,0.0004
875,0.9479120373725891,2.4364330768585205,0.7307692307692307,0.9230769230769231,0.35714285714285715,0.21428571428571427,0.0004
876,1.1196938157081604,2.424381732940674,0.6346153846153846,0.8461538461538461,0.35714285714285715,0.2857142857142857,0.0004
877,0.9940146207809448,2.4539332389831543,0.7115384615384616,0.8461538461538461,0.2857142857142857,0.2857142857142857,0.0004
878,1.0212368071079254,2.3993234634399414,0.6923076923076923,0.9230769230769231,0.35714285714285715,0.2857142857142857,0.0004
879,0.9950118064880371,2.617438316345215,0.6923076923076923,0.8653846153846154,0.35714285714285715,0.14285714285714285,0.0004
880,1.0293457508087158,2.379854679107666,0.6730769230769231,0.8653846153846154,0.35714285714285715,0.2857142857142857,0.0004
881,1.089150309562683,2.3219399452209473,0.6153846153846154,0.9038461538461539,0.35714285714285715,0.2857142857142857,0.0004
882,1.234185367822647,2.550178289413452,0.6153846153846154,0.8076923076923077,0.2857142857142857,0.21428571428571427,0.0004
883,1.1017881631851196,2.408184051513672,0.5961538461538461,0.8846153846153846,0.35714285714285715,0.21428571428571427,0.0004
884,0.9814758896827698,2.303394079208374,0.6730769230769231,0.9038461538461539,0.35714285714285715,0.35714285714285715,0.0004
885,1.0767419636249542,2.4437687397003174,0.6730769230769231,0.8461538461538461,0.35714285714285715,0.35714285714285715,0.0004
886,1.149939239025116,2.3270790576934814,0.6153846153846154,0.9038461538461539,0.35714285714285715,0.2857142857142857,0.0004
887,1.1284350752830505,2.287946939468384,0.5961538461538461,0.9230769230769231,0.35714285714285715,0.2857142857142857,0.0004
888,0.9211954176425934,1.730433464050293,0.8076923076923077,0.8846153846153846,0.35714285714285715,0.7142857142857143,0.0004
889,1.2259840369224548,1.9596641063690186,0.6153846153846154,0.8076923076923077,0.35714285714285715,0.7142857142857143,0.0004
890,1.1175593733787537,1.9923979043960571,0.6923076923076923,0.8653846153846154,0.35714285714285715,0.5714285714285714,0.0004
891,1.154910385608673,2.2962820529937744,0.6153846153846154,0.8846153846153846,0.35714285714285715,0.2857142857142857,0.0004
892,1.0950537323951721,2.50561785697937,0.6730769230769231,0.9230769230769231,0.35714285714285715,0.21428571428571427,0.0004
893,1.1635708808898926,2.721414089202881,0.6153846153846154,0.8846153846153846,0.35714285714285715,0.14285714285714285,0.0004
894,1.2262709140777588,2.364931583404541,0.6153846153846154,0.7692307692307693,0.35714285714285715,0.2857142857142857,0.0004
895,0.9854170680046082,2.438901662826538,0.6923076923076923,0.8846153846153846,0.2857142857142857,0.35714285714285715,0.0004
896,1.0405538380146027,2.3831005096435547,0.7115384615384616,0.8846153846153846,0.35714285714285715,0.14285714285714285,0.0004
897,0.9905979931354523,2.044100284576416,0.6538461538461539,0.9038461538461539,0.35714285714285715,0.42857142857142855,0.0004
898,0.9121463596820831,2.0054752826690674,0.6730769230769231,0.9038461538461539,0.42857142857142855,0.35714285714285715,0.0004
899,1.0700421929359436,2.3870794773101807,0.6346153846153846,0.8846153846153846,0.2857142857142857,0.35714285714285715,0.0004
900,1.1067017912864685,2.325222969055176,0.6923076923076923,0.8461538461538461,0.42857142857142855,0.21428571428571427,0.0004
901,0.9363387227058411,2.33931565284729,0.6923076923076923,0.9038461538461539,0.2857142857142857,0.35714285714285715,0.0004
902,1.1520861387252808,2.1884045600891113,0.6346153846153846,0.8653846153846154,0.42857142857142855,0.35714285714285715,0.0004
903,1.0795807540416718,2.39278507232666,0.7115384615384616,0.9038461538461539,0.35714285714285715,0.2857142857142857,0.0004
904,1.0325162410736084,2.244953155517578,0.6923076923076923,0.8653846153846154,0.35714285714285715,0.35714285714285715,0.0004
905,1.132885754108429,2.1231040954589844,0.6538461538461539,0.8653846153846154,0.35714285714285715,0.42857142857142855,0.0004
906,1.161539912223816,1.9841927289962769,0.6538461538461539,0.8846153846153846,0.35714285714285715,0.35714285714285715,0.0004
907,1.0233523547649384,2.3860220909118652,0.6730769230769231,0.9038461538461539,0.42857142857142855,0.21428571428571427,0.0004
908,1.2333531975746155,2.441267251968384,0.6153846153846154,0.8461538461538461,0.42857142857142855,0.21428571428571427,0.0004
909,1.0522131025791168,2.3454318046569824,0.6730769230769231,0.8846153846153846,0.42857142857142855,0.2857142857142857,0.0004
910,1.0861381888389587,2.446390390396118,0.6538461538461539,0.8653846153846154,0.35714285714285715,0.21428571428571427,0.0004
911,1.1382996439933777,2.550957679748535,0.6538461538461539,0.9038461538461539,0.35714285714285715,0.14285714285714285,0.0004
912,0.9303633272647858,2.166555166244507,0.75,0.8846153846153846,0.42857142857142855,0.42857142857142855,0.0004
913,1.2056533098220825,1.9275978803634644,0.6153846153846154,0.7884615384615384,0.35714285714285715,0.6428571428571429,0.0004
914,0.9385601282119751,1.8752820491790771,0.6730769230769231,0.8461538461538461,0.2857142857142857,0.7142857142857143,0.0004
915,0.8705058991909027,2.2789864540100098,0.75,0.8846153846153846,0.35714285714285715,0.2857142857142857,0.0004
916,1.0808603167533875,2.4911346435546875,0.6730769230769231,0.9230769230769231,0.42857142857142855,0.2857142857142857,0.0004
917,1.068818747997284,2.417511463165283,0.6538461538461539,0.8461538461538461,0.42857142857142855,0.2857142857142857,0.0004
918,1.1090772151947021,2.3801746368408203,0.6346153846153846,0.8846153846153846,0.35714285714285715,0.35714285714285715,0.0004
919,1.1067388653755188,2.721298933029175,0.7115384615384616,0.8653846153846154,0.35714285714285715,0.14285714285714285,0.0004
920,1.1932828426361084,2.5044736862182617,0.6923076923076923,0.8846153846153846,0.35714285714285715,0.2857142857142857,0.0004
921,0.9833634495735168,2.1961777210235596,0.7307692307692307,0.8846153846153846,0.42857142857142855,0.35714285714285715,0.0004
922,1.297795593738556,2.1230556964874268,0.5961538461538461,0.8653846153846154,0.35714285714285715,0.35714285714285715,0.0004
923,1.1948928833007812,2.1697168350219727,0.6153846153846154,0.8653846153846154,0.35714285714285715,0.2857142857142857,0.0004
924,1.016482025384903,2.5475687980651855,0.6730769230769231,0.9230769230769231,0.2857142857142857,0.2857142857142857,0.0004
925,1.1101124286651611,2.474210262298584,0.6153846153846154,0.9230769230769231,0.42857142857142855,0.2857142857142857,0.0004
926,0.9548673629760742,2.3538200855255127,0.7115384615384616,0.9230769230769231,0.35714285714285715,0.35714285714285715,0.0004
927,1.2378423810005188,2.41630482673645,0.6538461538461539,0.75,0.35714285714285715,0.2857142857142857,0.0004
928,1.002477765083313,2.591212749481201,0.6923076923076923,0.8846153846153846,0.35714285714285715,0.2857142857142857,0.0004
929,1.0440501868724823,2.1905860900878906,0.6538461538461539,0.9423076923076923,0.35714285714285715,0.5,0.0004
930,1.116961419582367,2.360787868499756,0.6923076923076923,0.8653846153846154,0.35714285714285715,0.35714285714285715,0.0004
931,1.0248390436172485,2.4284796714782715,0.7115384615384616,0.9038461538461539,0.35714285714285715,0.42857142857142855,0.0004
932,0.9702818095684052,2.6286113262176514,0.6346153846153846,0.9230769230769231,0.35714285714285715,0.2857142857142857,0.0004
933,1.0263957977294922,2.746157646179199,0.7884615384615384,0.9230769230769231,0.2857142857142857,0.14285714285714285,0.0004
934,1.2810152173042297,2.381516456604004,0.6346153846153846,0.8076923076923077,0.42857142857142855,0.2857142857142857,0.0004
935,0.9389036297798157,2.677278995513916,0.75,0.9038461538461539,0.2857142857142857,0.21428571428571427,0.0004
936,1.1202805638313293,2.0785040855407715,0.6923076923076923,0.9038461538461539,0.35714285714285715,0.35714285714285715,0.0004
937,1.011266440153122,2.1705310344696045,0.6730769230769231,0.9423076923076923,0.35714285714285715,0.42857142857142855,0.0004
938,0.9778360724449158,1.8336374759674072,0.6730769230769231,0.8461538461538461,0.42857142857142855,0.6428571428571429,0.0004
939,1.0080333650112152,2.501178741455078,0.6538461538461539,0.9230769230769231,0.35714285714285715,0.21428571428571427,0.0004
940,1.0966086387634277,2.7001590728759766,0.6923076923076923,0.8846153846153846,0.35714285714285715,0.21428571428571427,0.0004
941,0.937919557094574,2.5702223777770996,0.75,0.9038461538461539,0.35714285714285715,0.35714285714285715,0.0004
942,1.048762559890747,2.7828822135925293,0.6923076923076923,0.9230769230769231,0.2857142857142857,0.14285714285714285,0.0004
943,0.9774207174777985,2.581329584121704,0.6730769230769231,0.8846153846153846,0.2857142857142857,0.2857142857142857,0.0004
944,1.0889179408550262,2.3792102336883545,0.6153846153846154,0.9230769230769231,0.35714285714285715,0.21428571428571427,0.0004
945,1.026449978351593,2.1318743228912354,0.6538461538461539,0.8653846153846154,0.42857142857142855,0.5,0.0004
946,0.960326611995697,2.7967100143432617,0.7115384615384616,0.9230769230769231,0.35714285714285715,0.2857142857142857,0.0004
947,1.1085752248764038,2.7994484901428223,0.6538461538461539,0.8269230769230769,0.42857142857142855,0.21428571428571427,0.0004
948,1.0915977954864502,3.1148879528045654,0.75,0.8846153846153846,0.35714285714285715,0.14285714285714285,0.0004
949,0.909907877445221,2.8499057292938232,0.7307692307692307,0.9038461538461539,0.42857142857142855,0.21428571428571427,0.0004
950,1.0493528842926025,2.85426664352417,0.6538461538461539,0.8461538461538461,0.35714285714285715,0.14285714285714285,0.0004
951,0.919156014919281,2.7986536026000977,0.6923076923076923,0.9423076923076923,0.35714285714285715,0.14285714285714285,0.0004
952,1.0451538562774658,2.3400471210479736,0.6538461538461539,0.9230769230769231,0.35714285714285715,0.35714285714285715,0.0004
953,1.160849928855896,2.105931043624878,0.5961538461538461,0.8846153846153846,0.2857142857142857,0.5,0.0004
954,1.197852611541748,2.299405336380005,0.5961538461538461,0.8461538461538461,0.2857142857142857,0.5714285714285714,0.0004
955,0.9049137830734253,2.284191370010376,0.7115384615384616,0.8846153846153846,0.42857142857142855,0.42857142857142855,0.0004
956,1.299580454826355,2.272397756576538,0.6346153846153846,0.8269230769230769,0.42857142857142855,0.21428571428571427,0.0004
957,0.9754860699176788,2.1922271251678467,0.7115384615384616,0.9230769230769231,0.35714285714285715,0.5,0.0004
958,0.9817907810211182,2.4522533416748047,0.6538461538461539,0.8653846153846154,0.42857142857142855,0.2857142857142857,0.0004
959,0.9718950390815735,2.379511833190918,0.6730769230769231,0.9423076923076923,0.42857142857142855,0.35714285714285715,0.0004
960,1.3328507244586945,2.8858208656311035,0.6346153846153846,0.8653846153846154,0.35714285714285715,0.21428571428571427,0.0004
961,1.1657666563987732,3.097560405731201,0.6730769230769231,0.8461538461538461,0.35714285714285715,0.14285714285714285,0.0004
962,1.040761113166809,2.900646686553955,0.7115384615384616,0.9038461538461539,0.35714285714285715,0.21428571428571427,0.0004
963,1.0854319334030151,2.5482091903686523,0.75,0.8653846153846154,0.35714285714285715,0.2857142857142857,0.0004
964,0.990573525428772,2.5294315814971924,0.6730769230769231,0.8653846153846154,0.35714285714285715,0.2857142857142857,0.0004
965,0.9986664056777954,2.3237619400024414,0.6923076923076923,0.9038461538461539,0.35714285714285715,0.42857142857142855,0.0004
966,1.160266399383545,2.528264284133911,0.6730769230769231,0.9230769230769231,0.35714285714285715,0.2857142857142857,0.0004
967,0.9293671548366547,2.8529324531555176,0.6923076923076923,0.9230769230769231,0.35714285714285715,0.21428571428571427,0.0004
968,0.9689438939094543,3.0950160026550293,0.7692307692307693,0.9230769230769231,0.35714285714285715,0.14285714285714285,0.0004
969,1.0478417873382568,2.494670867919922,0.6538461538461539,0.9038461538461539,0.35714285714285715,0.35714285714285715,0.0004
970,1.0830174684524536,2.843003034591675,0.6153846153846154,0.9038461538461539,0.35714285714285715,0.21428571428571427,0.0004
971,1.0759424269199371,2.8743505477905273,0.7307692307692307,0.8846153846153846,0.35714285714285715,0.21428571428571427,0.0004
