epoch,train_loss,val_loss,train_acc_action,train_acc_status,val_acc_action,val_acc_status,learning_rate
1,1.8682862520217896,1.5891854763031006,0.28846153846153844,0.40384615384615385,0.42857142857142855,0.8571428571428571,0.0004
2,1.6610814332962036,1.5107883214950562,0.3076923076923077,0.8269230769230769,0.5714285714285714,0.8571428571428571,0.0004
3,1.5736731886863708,1.5290577411651611,0.4423076923076923,0.8269230769230769,0.42857142857142855,0.8571428571428571,0.0004
4,1.5316573977470398,1.5422358512878418,0.38461538461538464,0.8269230769230769,0.2857142857142857,0.8571428571428571,0.0004
5,1.5241041779518127,1.562273621559143,0.40384615384615385,0.8269230769230769,0.2857142857142857,0.8571428571428571,0.0004
6,1.5423478484153748,1.514874815940857,0.38461538461538464,0.8269230769230769,0.35714285714285715,0.8571428571428571,0.0004
7,1.4951340556144714,1.385892629623413,0.4423076923076923,0.8269230769230769,0.6428571428571429,0.8571428571428571,0.0004
8,1.4765461087226868,1.4258192777633667,0.5384615384615384,0.8269230769230769,0.5714285714285714,0.8571428571428571,0.0004
9,1.4328133463859558,1.3703582286834717,0.5961538461538461,0.8269230769230769,0.7142857142857143,0.8571428571428571,0.0004
10,1.4431139826774597,1.3105226755142212,0.5,0.8269230769230769,0.5714285714285714,0.8571428571428571,0.0004
11,1.3691028952598572,1.414088487625122,0.6153846153846154,0.8269230769230769,0.5,0.8571428571428571,0.0004
12,1.288177490234375,1.171963095664978,0.5769230769230769,0.8269230769230769,0.7142857142857143,0.8571428571428571,0.0004
13,1.4185397028923035,1.270171046257019,0.46153846153846156,0.8269230769230769,0.5714285714285714,0.8571428571428571,0.0004
14,1.2746515274047852,1.4583224058151245,0.5384615384615384,0.8269230769230769,0.5,0.8571428571428571,0.0004
15,1.2387049794197083,1.4021366834640503,0.5576923076923077,0.8269230769230769,0.5,0.8571428571428571,0.0004
16,1.2706475257873535,1.2526512145996094,0.5576923076923077,0.8269230769230769,0.6428571428571429,0.8571428571428571,0.0004
17,1.2479413747787476,1.4646841287612915,0.6346153846153846,0.8653846153846154,0.5714285714285714,0.7857142857142857,0.0004
18,1.1798151731491089,1.47148597240448,0.5961538461538461,0.8461538461538461,0.5,0.8571428571428571,0.0004
19,0.9354839622974396,1.4369838237762451,0.7692307692307693,0.9615384615384616,0.42857142857142855,0.7857142857142857,0.0004
20,1.1141204833984375,1.5570522546768188,0.6923076923076923,0.9038461538461539,0.5714285714285714,0.7142857142857143,0.0004
21,1.03995680809021,1.1430281400680542,0.6730769230769231,0.9615384615384616,0.5714285714285714,0.9285714285714286,0.0004
22,1.1258732676506042,1.3539783954620361,0.5192307692307693,0.9615384615384616,0.5714285714285714,0.8571428571428571,0.0004
23,1.0356616973876953,1.2764369249343872,0.6538461538461539,0.9423076923076923,0.5714285714285714,0.8571428571428571,0.0004
24,1.008650302886963,1.2633171081542969,0.6346153846153846,0.9038461538461539,0.5,0.8571428571428571,0.0004
25,1.1173413395881653,1.4184516668319702,0.5769230769230769,0.9423076923076923,0.5714285714285714,0.7857142857142857,0.0004
26,1.1503897607326508,1.319826602935791,0.5384615384615384,0.9230769230769231,0.5,0.8571428571428571,0.0004
27,1.0859129428863525,1.1992199420928955,0.5769230769230769,0.9230769230769231,0.6428571428571429,0.8571428571428571,0.0004
28,1.0552079677581787,1.2805575132369995,0.6346153846153846,0.9423076923076923,0.5,0.8571428571428571,0.0004
29,1.0789747834205627,1.3172709941864014,0.6538461538461539,0.9038461538461539,0.6428571428571429,0.8571428571428571,0.0004
30,0.9730885028839111,0.958204448223114,0.7307692307692307,0.9230769230769231,0.8571428571428571,0.8571428571428571,0.0004
31,0.9109572172164917,0.8722819685935974,0.75,0.9615384615384616,0.6428571428571429,1.0,0.0004
32,0.9509983062744141,0.5239477753639221,0.7115384615384616,0.9807692307692307,0.9285714285714286,0.9285714285714286,0.0004
33,0.9675355553627014,1.273236870765686,0.6730769230769231,0.8846153846153846,0.5714285714285714,0.8571428571428571,0.0004
34,0.9408033788204193,1.4365499019622803,0.6346153846153846,0.9230769230769231,0.5,0.7857142857142857,0.0004
35,0.8593858480453491,1.4337807893753052,0.7115384615384616,0.9615384615384616,0.5,0.7857142857142857,0.0004
36,1.1102598309516907,1.0654999017715454,0.6538461538461539,0.9038461538461539,0.5,0.8571428571428571,0.0004
37,0.7756218016147614,0.9871658086776733,0.7692307692307693,0.9615384615384616,0.6428571428571429,0.8571428571428571,0.0004
38,1.0391988158226013,1.7451412677764893,0.5961538461538461,0.9423076923076923,0.42857142857142855,0.7857142857142857,0.0004
39,0.9224372804164886,1.5209760665893555,0.6730769230769231,0.9615384615384616,0.42857142857142855,0.7142857142857143,0.0004
40,0.9649301171302795,1.2294378280639648,0.6346153846153846,0.9423076923076923,0.7142857142857143,0.8571428571428571,0.0004
41,0.8411326706409454,1.3897888660430908,0.6538461538461539,0.9807692307692307,0.6428571428571429,0.6428571428571429,0.0004
42,0.9002925753593445,1.1305956840515137,0.7307692307692307,0.9230769230769231,0.7142857142857143,0.7857142857142857,0.0004
43,0.8829516172409058,0.9486924409866333,0.7115384615384616,0.9423076923076923,0.7857142857142857,0.8571428571428571,0.0004
44,0.9381871223449707,1.5202105045318604,0.6538461538461539,0.9615384615384616,0.5714285714285714,0.7857142857142857,0.0004
45,0.9734305441379547,0.9191275238990784,0.5769230769230769,0.9615384615384616,0.7857142857142857,0.9285714285714286,0.0004
46,0.8575383722782135,1.238623023033142,0.7115384615384616,0.9615384615384616,0.6428571428571429,0.8571428571428571,0.0004
47,0.8886224031448364,1.2291964292526245,0.6730769230769231,0.9230769230769231,0.7142857142857143,0.8571428571428571,0.0004
48,1.1579644083976746,0.9483917951583862,0.6730769230769231,0.9230769230769231,0.7857142857142857,0.9285714285714286,0.0004
49,0.793069452047348,0.9689313173294067,0.75,0.9615384615384616,0.6428571428571429,0.9285714285714286,0.0004
50,0.7731789648532867,1.3018131256103516,0.7115384615384616,1.0,0.7142857142857143,0.8571428571428571,0.0004
51,0.8236455321311951,0.8109307289123535,0.6923076923076923,1.0,0.7142857142857143,0.9285714285714286,0.0004
52,0.9540649056434631,0.6204336881637573,0.6538461538461539,0.9423076923076923,0.8571428571428571,0.9285714285714286,0.0004
53,0.8464641571044922,0.9153733253479004,0.6730769230769231,0.9807692307692307,0.7142857142857143,0.8571428571428571,0.0004
54,0.8613184094429016,0.9311630725860596,0.6923076923076923,0.9807692307692307,0.7857142857142857,0.8571428571428571,0.0004
55,0.8589975535869598,1.218705415725708,0.6730769230769231,0.9615384615384616,0.5714285714285714,0.8571428571428571,0.0004
56,0.9089126288890839,1.3863239288330078,0.5961538461538461,0.9423076923076923,0.7857142857142857,0.8571428571428571,0.0004
57,0.8396323621273041,1.535950779914856,0.6730769230769231,0.9423076923076923,0.7142857142857143,0.7857142857142857,0.0004
58,0.8793709874153137,1.187459945678711,0.6923076923076923,0.9423076923076923,0.5714285714285714,0.7857142857142857,0.0004
59,0.7979468703269958,1.0706450939178467,0.7307692307692307,0.9615384615384616,0.5714285714285714,0.8571428571428571,0.0004
60,0.9128062129020691,1.3183879852294922,0.7307692307692307,0.9038461538461539,0.7142857142857143,0.7857142857142857,0.0004
61,0.8057911992073059,1.0426290035247803,0.7692307692307693,0.9807692307692307,0.6428571428571429,0.8571428571428571,0.0004
62,0.8363910913467407,1.0542552471160889,0.7307692307692307,0.9807692307692307,0.6428571428571429,0.8571428571428571,0.0004
63,0.7035016715526581,0.9635435938835144,0.7115384615384616,0.9807692307692307,0.5714285714285714,0.9285714285714286,0.0004
64,0.8694274723529816,1.4383420944213867,0.7307692307692307,0.9230769230769231,0.7142857142857143,0.7857142857142857,0.0004
65,0.7780071198940277,1.56514573097229,0.7884615384615384,0.9230769230769231,0.7142857142857143,0.7857142857142857,0.0004
66,0.7387570738792419,1.383239507675171,0.7115384615384616,0.9615384615384616,0.6428571428571429,0.8571428571428571,0.0004
67,0.7972691357135773,1.0690901279449463,0.6923076923076923,0.9615384615384616,0.6428571428571429,0.9285714285714286,0.0004
68,0.729122132062912,1.145123839378357,0.6730769230769231,0.9615384615384616,0.6428571428571429,0.9285714285714286,0.0004
69,0.7097651064395905,1.0289843082427979,0.7307692307692307,0.9615384615384616,0.7142857142857143,0.8571428571428571,0.0004
70,0.8599802553653717,1.46706223487854,0.7115384615384616,0.9423076923076923,0.5714285714285714,0.7857142857142857,0.0004
71,0.7743039727210999,1.348217487335205,0.7692307692307693,0.9423076923076923,0.7857142857142857,0.7857142857142857,0.0004
72,0.5477336645126343,1.1585519313812256,0.8653846153846154,0.9807692307692307,0.8571428571428571,0.7857142857142857,0.0004
73,0.8539580404758453,1.476452112197876,0.75,0.8846153846153846,0.6428571428571429,0.7857142857142857,0.0004
74,0.919796347618103,1.026771903038025,0.75,0.9038461538461539,0.8571428571428571,0.8571428571428571,0.0004
75,0.7778322696685791,1.0654449462890625,0.7115384615384616,0.9230769230769231,0.6428571428571429,0.8571428571428571,0.0004
76,0.7646000683307648,1.597625732421875,0.6730769230769231,0.9230769230769231,0.5714285714285714,0.8571428571428571,0.0004
77,0.8919672667980194,0.9559727311134338,0.6538461538461539,0.9423076923076923,0.7857142857142857,0.9285714285714286,0.0004
78,0.7304351925849915,0.936782956123352,0.7115384615384616,0.9807692307692307,0.7142857142857143,0.8571428571428571,0.0004
79,0.7576656937599182,0.7184793949127197,0.6730769230769231,0.9615384615384616,0.8571428571428571,0.9285714285714286,0.0004
80,0.7099860608577728,1.1023035049438477,0.8461538461538461,0.9230769230769231,0.7857142857142857,0.9285714285714286,0.0004
81,0.8831043839454651,1.405264139175415,0.6923076923076923,0.9807692307692307,0.5714285714285714,0.8571428571428571,0.0004
82,0.8369794189929962,1.0708236694335938,0.7307692307692307,0.9615384615384616,0.7857142857142857,0.9285714285714286,0.0004
83,0.7625759840011597,0.8535028696060181,0.75,1.0,0.7142857142857143,0.9285714285714286,0.0004
84,0.7970934510231018,1.3670823574066162,0.8076923076923077,0.9230769230769231,0.6428571428571429,0.8571428571428571,0.0004
85,0.7510575652122498,0.9367216229438782,0.7307692307692307,0.9615384615384616,0.8571428571428571,0.9285714285714286,0.0004
86,0.7397466599941254,1.5183693170547485,0.7692307692307693,0.9615384615384616,0.5714285714285714,0.8571428571428571,0.0004
87,0.6619368493556976,1.2879410982131958,0.8076923076923077,0.9615384615384616,0.5,0.8571428571428571,0.0004
88,0.8892822563648224,1.08986234664917,0.6538461538461539,0.9807692307692307,0.6428571428571429,0.9285714285714286,0.0004
89,0.7485305964946747,1.467477560043335,0.75,0.9615384615384616,0.5,0.7857142857142857,0.0004
90,0.8232456743717194,0.9644164443016052,0.6346153846153846,0.9807692307692307,0.7142857142857143,0.8571428571428571,0.0004
91,0.7741812169551849,1.3248735666275024,0.7115384615384616,0.9615384615384616,0.6428571428571429,0.8571428571428571,0.0004
92,0.756642073392868,1.6753456592559814,0.7115384615384616,0.9615384615384616,0.5714285714285714,0.7857142857142857,0.0004
93,0.6503422558307648,1.18340265750885,0.7692307692307693,0.9807692307692307,0.7857142857142857,0.9285714285714286,0.0004
94,0.6546511054039001,1.8571908473968506,0.7307692307692307,1.0,0.5714285714285714,0.7857142857142857,0.0004
95,0.8505911827087402,1.3445069789886475,0.8076923076923077,0.9230769230769231,0.6428571428571429,0.8571428571428571,0.0004
96,0.657274454832077,1.6518023014068604,0.7884615384615384,0.9615384615384616,0.7857142857142857,0.8571428571428571,0.0004
97,0.7636375725269318,1.168238878250122,0.7115384615384616,0.9423076923076923,0.6428571428571429,0.8571428571428571,0.0004
98,0.5673234164714813,0.9195315837860107,0.8076923076923077,1.0,0.8571428571428571,0.9285714285714286,0.0004
99,0.518000453710556,1.5736494064331055,0.7884615384615384,1.0,0.5714285714285714,0.8571428571428571,0.0004
100,0.805772066116333,1.2050950527191162,0.75,0.9423076923076923,0.6428571428571429,0.8571428571428571,0.0004
101,0.648639440536499,0.6728693246841431,0.7307692307692307,0.9615384615384616,0.9285714285714286,0.9285714285714286,0.0004
102,0.6954548358917236,0.7880210280418396,0.7692307692307693,0.9615384615384616,0.8571428571428571,0.9285714285714286,0.0004
103,0.8341518044471741,0.6268136501312256,0.75,0.9615384615384616,1.0,0.9285714285714286,0.0004
104,0.7395705580711365,0.6009646654129028,0.6923076923076923,1.0,0.8571428571428571,0.9285714285714286,0.0004
105,0.5809530317783356,1.4243336915969849,0.8269230769230769,0.9615384615384616,0.7142857142857143,0.8571428571428571,0.0004
106,0.6807250380516052,0.8050404787063599,0.75,0.9615384615384616,0.8571428571428571,0.9285714285714286,0.0004
107,0.7364663332700729,0.7599414587020874,0.8076923076923077,0.9615384615384616,0.9285714285714286,0.9285714285714286,0.0004
108,0.7658584415912628,1.1182209253311157,0.7115384615384616,0.9615384615384616,0.6428571428571429,0.9285714285714286,0.0004
109,1.1253098547458649,1.8866603374481201,0.6538461538461539,0.9423076923076923,0.5714285714285714,0.8571428571428571,0.0004
110,0.6608108282089233,1.436322808265686,0.8076923076923077,0.9615384615384616,0.5714285714285714,0.9285714285714286,0.0004
111,0.6478700041770935,0.8418620824813843,0.8076923076923077,0.9615384615384616,0.7857142857142857,0.9285714285714286,0.0004
112,0.8425992727279663,0.9937063455581665,0.75,0.9230769230769231,0.7142857142857143,0.8571428571428571,0.0004
113,0.7756619453430176,0.8586521744728088,0.6346153846153846,0.9615384615384616,0.8571428571428571,0.9285714285714286,0.0004
114,0.8530706465244293,1.29365873336792,0.6923076923076923,0.9807692307692307,0.7142857142857143,0.7857142857142857,0.0004
115,0.7442323863506317,1.1391072273254395,0.6923076923076923,0.9615384615384616,0.7857142857142857,0.8571428571428571,0.0004
116,0.734076976776123,0.5561579465866089,0.8076923076923077,0.9615384615384616,0.8571428571428571,0.9285714285714286,0.0004
117,0.8735091388225555,1.5922521352767944,0.6923076923076923,0.9423076923076923,0.5,0.8571428571428571,0.0004
118,0.5712451934814453,1.2296291589736938,0.7692307692307693,0.9807692307692307,0.7142857142857143,0.9285714285714286,0.0004
119,0.6632355451583862,1.476047158241272,0.8076923076923077,0.9807692307692307,0.5,0.8571428571428571,0.0004
120,0.7708759903907776,0.8910924196243286,0.75,0.9615384615384616,0.7857142857142857,0.9285714285714286,0.0004
121,0.7016671299934387,1.3492399454116821,0.7115384615384616,0.9615384615384616,0.6428571428571429,0.8571428571428571,0.0004
122,0.5854463279247284,0.9441776275634766,0.75,0.9807692307692307,0.7857142857142857,0.8571428571428571,0.0004
123,0.8146306574344635,1.1548573970794678,0.7692307692307693,0.9230769230769231,0.7142857142857143,0.8571428571428571,0.0004
124,0.8650072515010834,1.677984595298767,0.6923076923076923,0.9423076923076923,0.5714285714285714,0.7857142857142857,0.0004
125,0.7610342353582382,0.8311014175415039,0.7884615384615384,0.9615384615384616,0.9285714285714286,0.8571428571428571,0.0004
126,0.685218870639801,1.2454546689987183,0.75,0.9807692307692307,0.6428571428571429,0.8571428571428571,0.0004
127,0.666593000292778,0.9940778017044067,0.7307692307692307,1.0,0.7857142857142857,0.8571428571428571,0.0004
128,0.880751371383667,1.2582391500473022,0.6923076923076923,0.9423076923076923,0.7857142857142857,0.8571428571428571,0.0004
129,0.6373137682676315,1.0897921323776245,0.8269230769230769,0.9807692307692307,0.7857142857142857,0.9285714285714286,0.0004
130,0.6298231780529022,1.912344217300415,0.7692307692307693,0.9807692307692307,0.5,0.7857142857142857,0.0004
131,0.46027402579784393,1.0405516624450684,0.8461538461538461,1.0,0.7142857142857143,0.9285714285714286,0.0004
132,0.8933269381523132,1.4972902536392212,0.7115384615384616,0.9615384615384616,0.5714285714285714,0.8571428571428571,0.0004
133,0.7906976640224457,1.2919635772705078,0.75,0.9423076923076923,0.5714285714285714,0.9285714285714286,0.0004
134,0.6758328974246979,1.2517952919006348,0.7692307692307693,1.0,0.6428571428571429,0.9285714285714286,0.0004
135,0.6932389289140701,1.1504542827606201,0.7884615384615384,0.9807692307692307,0.7857142857142857,0.8571428571428571,0.0004
136,0.9928127527236938,1.573088526725769,0.5961538461538461,0.9423076923076923,0.7142857142857143,0.7857142857142857,0.0004
137,0.5589213967323303,1.5106843709945679,0.7307692307692307,0.9807692307692307,0.6428571428571429,0.8571428571428571,0.0004
138,0.8879827857017517,1.7782355546951294,0.6923076923076923,0.9038461538461539,0.7142857142857143,0.7857142857142857,0.0004
139,0.6902117729187012,0.7559160590171814,0.7307692307692307,0.9807692307692307,0.8571428571428571,0.9285714285714286,0.0004
140,0.5523479580879211,1.0453770160675049,0.8076923076923077,1.0,0.7857142857142857,0.8571428571428571,0.0004
141,0.7861701846122742,0.9385879039764404,0.75,0.9615384615384616,0.8571428571428571,0.8571428571428571,0.0004
142,0.5593959838151932,1.1557377576828003,0.7692307692307693,1.0,0.7857142857142857,0.8571428571428571,0.0004
143,0.5750075280666351,0.6728776097297668,0.7692307692307693,1.0,0.9285714285714286,0.9285714285714286,0.0004
144,0.5793948173522949,0.937471866607666,0.7692307692307693,1.0,0.8571428571428571,0.8571428571428571,0.0004
145,0.5130840092897415,1.0368133783340454,0.7884615384615384,1.0,0.7142857142857143,0.9285714285714286,0.0004
146,0.7060850560665131,1.2090098857879639,0.75,0.9807692307692307,0.7142857142857143,0.8571428571428571,0.0004
147,0.6380725204944611,1.5919437408447266,0.7307692307692307,0.9807692307692307,0.5714285714285714,0.7857142857142857,0.0004
148,0.5891385674476624,1.4924499988555908,0.7884615384615384,0.9807692307692307,0.6428571428571429,0.8571428571428571,0.0004
149,0.758277416229248,1.648188591003418,0.7307692307692307,0.9423076923076923,0.5,0.8571428571428571,0.0004
150,0.6653312742710114,1.0013847351074219,0.7115384615384616,0.9807692307692307,0.7142857142857143,0.9285714285714286,0.0004
151,0.6446309685707092,0.8448117971420288,0.7884615384615384,0.9615384615384616,0.7857142857142857,0.9285714285714286,0.0004
152,0.5647203922271729,1.2212737798690796,0.7884615384615384,0.9615384615384616,0.7142857142857143,0.8571428571428571,0.0004
153,0.5778683423995972,1.0109039545059204,0.7692307692307693,0.9615384615384616,0.7142857142857143,0.9285714285714286,0.0004
154,0.694181352853775,0.9185853004455566,0.7692307692307693,0.9807692307692307,0.7857142857142857,0.9285714285714286,0.0004
155,0.5608911216259003,1.1995881795883179,0.7884615384615384,0.9807692307692307,0.6428571428571429,0.8571428571428571,0.0004
156,0.37659667432308197,1.2419767379760742,0.8846153846153846,0.9807692307692307,0.5714285714285714,0.8571428571428571,0.0004
157,0.7960203289985657,1.1129679679870605,0.7115384615384616,0.9615384615384616,0.7857142857142857,0.9285714285714286,0.0004
158,0.7418577075004578,1.0241265296936035,0.7115384615384616,0.9807692307692307,0.8571428571428571,0.9285714285714286,0.0004
159,0.8270712196826935,1.0786004066467285,0.7307692307692307,0.9615384615384616,0.7857142857142857,0.9285714285714286,0.0004
160,0.7145757675170898,1.5324070453643799,0.7307692307692307,0.9423076923076923,0.6428571428571429,0.8571428571428571,0.0004
161,0.9088499546051025,1.635514259338379,0.6346153846153846,0.9423076923076923,0.5714285714285714,0.9285714285714286,0.0004
162,0.6906079947948456,1.1206331253051758,0.7307692307692307,0.9615384615384616,0.6428571428571429,0.9285714285714286,0.0004
163,0.769012063741684,1.110901117324829,0.75,0.9615384615384616,0.7142857142857143,0.7857142857142857,0.0004
164,0.6596483290195465,1.33762788772583,0.7692307692307693,0.9423076923076923,0.5714285714285714,0.7857142857142857,0.0004
165,0.7372433543205261,1.176680564880371,0.7692307692307693,0.9423076923076923,0.6428571428571429,0.8571428571428571,0.0004
166,0.7474960088729858,1.0865299701690674,0.7692307692307693,0.9423076923076923,0.8571428571428571,0.8571428571428571,0.0004
167,0.8234691619873047,0.8733205199241638,0.75,0.9423076923076923,0.8571428571428571,0.9285714285714286,0.0004
168,0.6669711470603943,1.2570207118988037,0.8653846153846154,0.9807692307692307,0.7142857142857143,0.9285714285714286,0.0004
169,0.5823155641555786,1.2516682147979736,0.7884615384615384,1.0,0.6428571428571429,0.9285714285714286,0.0004
170,0.7129741311073303,1.3463537693023682,0.7307692307692307,1.0,0.6428571428571429,0.8571428571428571,0.0004
171,0.6096634864807129,1.239382028579712,0.8269230769230769,0.9807692307692307,0.6428571428571429,0.9285714285714286,0.0004
172,0.5588509738445282,1.2472267150878906,0.8076923076923077,1.0,0.8571428571428571,0.8571428571428571,0.0004
173,0.6648462116718292,1.5308873653411865,0.75,0.9423076923076923,0.7142857142857143,0.8571428571428571,0.0004
174,0.6046571731567383,0.7752267122268677,0.8076923076923077,0.9615384615384616,0.9285714285714286,0.9285714285714286,0.0004
175,0.7838004231452942,1.0614802837371826,0.7115384615384616,0.9423076923076923,0.7142857142857143,0.9285714285714286,0.0004
176,0.7199971079826355,0.8951697945594788,0.75,0.9807692307692307,0.9285714285714286,0.9285714285714286,0.0004
177,0.6847191154956818,1.3892284631729126,0.7692307692307693,0.9807692307692307,0.7857142857142857,0.8571428571428571,0.0004
178,0.4357454478740692,1.0994036197662354,0.8461538461538461,0.9807692307692307,0.7142857142857143,0.8571428571428571,0.0004
179,0.77064448595047,1.8123143911361694,0.6923076923076923,0.9807692307692307,0.6428571428571429,0.7857142857142857,0.0004
180,0.5303573310375214,1.490235447883606,0.7884615384615384,0.9807692307692307,0.6428571428571429,0.9285714285714286,0.0004
181,0.49869580566883087,1.220228910446167,0.8653846153846154,0.9807692307692307,0.6428571428571429,0.9285714285714286,0.0004
182,0.7324945032596588,0.9661779403686523,0.7884615384615384,0.9615384615384616,0.7142857142857143,0.9285714285714286,0.0004
183,0.683512270450592,1.5146152973175049,0.75,0.9230769230769231,0.7142857142857143,0.8571428571428571,0.0004
184,0.9246412515640259,1.5220109224319458,0.7115384615384616,0.9230769230769231,0.7857142857142857,0.8571428571428571,0.0004
185,0.6665487289428711,1.2325541973114014,0.75,0.9615384615384616,0.7142857142857143,0.9285714285714286,0.0004
186,0.7273810356855392,0.7704424858093262,0.7884615384615384,0.9615384615384616,0.7857142857142857,0.9285714285714286,0.0004
187,0.5500841289758682,1.4075161218643188,0.7692307692307693,0.9807692307692307,0.6428571428571429,0.9285714285714286,0.0004
188,0.6827698945999146,1.2699110507965088,0.75,0.9807692307692307,0.7142857142857143,0.9285714285714286,0.0004
189,0.6508276462554932,1.667694091796875,0.75,1.0,0.5714285714285714,0.7857142857142857,0.0004
190,0.8428025245666504,0.8910907506942749,0.7115384615384616,0.9615384615384616,0.7857142857142857,0.9285714285714286,0.0004
191,0.5211056768894196,1.7201875448226929,0.7692307692307693,0.9807692307692307,0.5,0.7857142857142857,0.0004
192,0.5607777684926987,0.9626933336257935,0.8076923076923077,0.9807692307692307,0.7142857142857143,0.9285714285714286,0.0004
193,0.6515019834041595,1.6901689767837524,0.7307692307692307,0.9615384615384616,0.7142857142857143,0.7857142857142857,0.0004
194,0.5479230284690857,1.9944977760314941,0.8269230769230769,0.9807692307692307,0.6428571428571429,0.7142857142857143,0.0004
195,0.7536915838718414,1.1344356536865234,0.6923076923076923,0.9615384615384616,0.7857142857142857,0.8571428571428571,0.0004
196,0.8366314470767975,1.018233299255371,0.6730769230769231,0.9423076923076923,0.7857142857142857,0.8571428571428571,0.0004
197,0.7613723576068878,0.9008204340934753,0.75,0.9615384615384616,0.7142857142857143,0.9285714285714286,0.0004
198,0.46447987854480743,0.8564115762710571,0.8269230769230769,0.9807692307692307,0.9285714285714286,0.9285714285714286,0.0004
199,0.6298199594020844,1.3260612487792969,0.8076923076923077,0.9615384615384616,0.7142857142857143,0.8571428571428571,0.0004
200,0.8686143457889557,0.8955702781677246,0.6538461538461539,0.9423076923076923,0.6428571428571429,0.9285714285714286,0.0004
201,0.55011086165905,1.2522350549697876,0.8076923076923077,0.9807692307692307,0.7857142857142857,0.8571428571428571,0.0004
202,0.6859281957149506,0.9658700227737427,0.7307692307692307,0.9615384615384616,0.8571428571428571,0.9285714285714286,0.0004
203,0.7165135741233826,1.0758601427078247,0.7307692307692307,0.9807692307692307,0.7142857142857143,0.8571428571428571,0.0004
204,0.5600864887237549,1.5344231128692627,0.8076923076923077,0.9615384615384616,0.6428571428571429,0.8571428571428571,0.0004
205,0.7199306190013885,1.8328638076782227,0.7307692307692307,0.9807692307692307,0.5,0.7857142857142857,0.0004
206,0.624815821647644,1.6612495183944702,0.8076923076923077,0.9615384615384616,0.7857142857142857,0.7857142857142857,0.0004
207,0.519472062587738,1.531602382659912,0.8269230769230769,0.9615384615384616,0.7142857142857143,0.8571428571428571,0.0004
208,0.621329665184021,1.1070244312286377,0.8269230769230769,0.9615384615384616,0.6428571428571429,0.9285714285714286,0.0004
209,0.5261624604463577,0.9092560410499573,0.8653846153846154,0.9807692307692307,0.8571428571428571,0.9285714285714286,0.0004
210,0.7503709197044373,1.1873605251312256,0.7692307692307693,0.9423076923076923,0.8571428571428571,0.8571428571428571,0.0004
211,0.6099859923124313,1.1454246044158936,0.7884615384615384,0.9230769230769231,0.7142857142857143,0.9285714285714286,0.0004
212,0.5002973079681396,1.1074647903442383,0.8461538461538461,0.9807692307692307,0.7142857142857143,0.9285714285714286,0.0004
213,0.5894001573324203,1.0682249069213867,0.7692307692307693,1.0,0.6428571428571429,0.8571428571428571,0.0004
214,0.6005739867687225,1.180580735206604,0.7692307692307693,0.9423076923076923,0.7857142857142857,0.9285714285714286,0.0004
215,0.4978678375482559,1.1281384229660034,0.8076923076923077,0.9615384615384616,0.7857142857142857,0.9285714285714286,0.0004
216,0.718563586473465,1.3479620218276978,0.7692307692307693,0.9615384615384616,0.7857142857142857,0.7857142857142857,0.0004
217,0.5001979619264603,1.2087578773498535,0.8076923076923077,0.9807692307692307,0.5714285714285714,0.8571428571428571,0.0004
218,0.752280592918396,0.940390944480896,0.7692307692307693,0.9423076923076923,0.6428571428571429,0.8571428571428571,0.0004
219,0.5011780261993408,1.774878978729248,0.8461538461538461,0.9615384615384616,0.7142857142857143,0.8571428571428571,0.0004
220,0.6120441406965256,0.7811757326126099,0.7692307692307693,0.9807692307692307,0.9285714285714286,0.9285714285714286,0.0004
221,0.5503185838460922,1.127467393875122,0.7692307692307693,0.9807692307692307,0.7142857142857143,0.9285714285714286,0.0004
222,0.6301772594451904,0.8783458471298218,0.6923076923076923,0.9807692307692307,0.7857142857142857,0.9285714285714286,0.0004
223,0.5787294805049896,0.753890335559845,0.8269230769230769,0.9807692307692307,0.8571428571428571,0.9285714285714286,0.0004
224,0.7562434375286102,1.2234209775924683,0.75,0.9423076923076923,0.8571428571428571,0.9285714285714286,0.0004
225,0.8855339884757996,1.2695800065994263,0.75,0.9230769230769231,0.7142857142857143,0.8571428571428571,0.0004
226,0.7253645062446594,1.299485683441162,0.7884615384615384,0.9423076923076923,0.5714285714285714,0.8571428571428571,0.0004
227,0.762324869632721,1.5904566049575806,0.7115384615384616,0.9615384615384616,0.6428571428571429,0.8571428571428571,0.0004
228,0.4110778868198395,1.5092530250549316,0.8653846153846154,0.9807692307692307,0.6428571428571429,0.8571428571428571,0.0004
229,0.5328345447778702,1.9764466285705566,0.8653846153846154,0.9615384615384616,0.6428571428571429,0.7142857142857143,0.0004
230,0.4599856287240982,1.4991865158081055,0.8653846153846154,0.9807692307692307,0.6428571428571429,0.8571428571428571,0.0004
231,0.6309889853000641,1.4221930503845215,0.7115384615384616,0.9423076923076923,0.7142857142857143,0.8571428571428571,0.0004
232,0.7924140691757202,0.5181167125701904,0.7692307692307693,0.9807692307692307,0.9285714285714286,0.9285714285714286,0.0004
233,0.6536754071712494,1.0974478721618652,0.7884615384615384,0.9615384615384616,0.6428571428571429,0.8571428571428571,0.0004
234,0.4991130977869034,0.8047245740890503,0.8076923076923077,1.0,0.7857142857142857,0.9285714285714286,0.0004
235,0.7201740443706512,0.8019017577171326,0.7884615384615384,0.9423076923076923,0.7142857142857143,0.9285714285714286,0.0004
236,0.6701377332210541,1.0104438066482544,0.7307692307692307,0.9615384615384616,0.7142857142857143,0.9285714285714286,0.0004
237,0.9997116327285767,1.4431040287017822,0.6730769230769231,0.9230769230769231,0.7857142857142857,0.7857142857142857,0.0004
238,0.8457849025726318,1.2290376424789429,0.7307692307692307,0.9423076923076923,0.5714285714285714,0.8571428571428571,0.0004
239,0.7910934090614319,1.4049381017684937,0.6730769230769231,0.9615384615384616,0.7857142857142857,0.8571428571428571,0.0004
240,0.7289909720420837,1.2038867473602295,0.7307692307692307,0.8846153846153846,0.6428571428571429,0.9285714285714286,0.0004
241,0.5809086561203003,1.3126060962677002,0.8846153846153846,0.9615384615384616,0.8571428571428571,0.8571428571428571,0.0004
242,0.7222819924354553,1.0805295705795288,0.7692307692307693,0.9230769230769231,0.7857142857142857,0.7857142857142857,0.0004
243,0.6441895961761475,2.3007357120513916,0.7115384615384616,1.0,0.5,0.7142857142857143,0.0004
244,0.694454237818718,1.4117672443389893,0.7692307692307693,0.9615384615384616,0.5714285714285714,0.7857142857142857,0.0004
245,0.4883508086204529,0.9454522132873535,0.8461538461538461,1.0,0.7142857142857143,0.9285714285714286,0.0004
246,0.6348634660243988,1.1284632682800293,0.7692307692307693,0.9807692307692307,0.7857142857142857,0.8571428571428571,0.0004
247,0.7901378870010376,1.0386378765106201,0.7884615384615384,0.9230769230769231,0.6428571428571429,0.8571428571428571,0.0004
248,0.8311642408370972,0.7264041304588318,0.7307692307692307,0.9230769230769231,0.8571428571428571,0.9285714285714286,0.0004
249,0.5553946793079376,0.9675101637840271,0.7884615384615384,0.9615384615384616,0.7857142857142857,0.8571428571428571,0.0004
250,0.6729701161384583,1.028754711151123,0.7307692307692307,0.9615384615384616,0.8571428571428571,0.8571428571428571,0.0004
251,0.7239657044410706,1.3132851123809814,0.7307692307692307,0.9615384615384616,0.6428571428571429,0.9285714285714286,0.0004
252,0.5177704840898514,1.2354068756103516,0.7884615384615384,1.0,0.5714285714285714,0.9285714285714286,0.0004
253,0.5576669871807098,1.5934001207351685,0.8269230769230769,1.0,0.5714285714285714,0.8571428571428571,0.0004
254,0.7227212190628052,1.7299509048461914,0.75,0.9423076923076923,0.5,0.8571428571428571,0.0004
255,0.6876614689826965,0.9866570234298706,0.7692307692307693,0.9615384615384616,0.7857142857142857,0.9285714285714286,0.0004
256,0.8605927526950836,1.3117038011550903,0.6923076923076923,0.9230769230769231,0.6428571428571429,0.8571428571428571,0.0004
257,0.5251039266586304,1.2011935710906982,0.8461538461538461,0.9615384615384616,0.7857142857142857,0.8571428571428571,0.0004
258,0.5999466478824615,1.5765670537948608,0.8461538461538461,0.9615384615384616,0.7142857142857143,0.8571428571428571,0.0004
259,0.48254866898059845,1.3137664794921875,0.8461538461538461,0.9807692307692307,0.7857142857142857,0.7857142857142857,0.0004
260,0.6978635489940643,1.5126488208770752,0.7115384615384616,0.9807692307692307,0.7142857142857143,0.8571428571428571,0.0004
261,0.6354718804359436,1.4092938899993896,0.8076923076923077,0.9615384615384616,0.5714285714285714,0.8571428571428571,0.0004
262,0.5073331445455551,1.354848027229309,0.8269230769230769,0.9807692307692307,0.6428571428571429,0.8571428571428571,0.0004
263,0.7613827884197235,1.0080163478851318,0.7307692307692307,0.9230769230769231,0.7857142857142857,0.9285714285714286,0.0004
264,0.5809999406337738,1.1416919231414795,0.8269230769230769,0.9807692307692307,0.7142857142857143,0.8571428571428571,0.0004
265,0.5685037076473236,1.2890019416809082,0.8461538461538461,0.9615384615384616,0.5,0.9285714285714286,0.0004
266,0.4423115849494934,1.290573000907898,0.8846153846153846,1.0,0.7142857142857143,0.8571428571428571,0.0004
267,0.7017895877361298,1.6156775951385498,0.7884615384615384,0.9807692307692307,0.5714285714285714,0.8571428571428571,0.0004
268,0.5121126174926758,1.4662715196609497,0.8076923076923077,1.0,0.5714285714285714,0.8571428571428571,0.0004
269,0.6029612421989441,1.773517370223999,0.8076923076923077,0.9423076923076923,0.5714285714285714,0.7142857142857143,0.0004
270,0.6733073890209198,1.5678614377975464,0.75,0.9615384615384616,0.6428571428571429,0.9285714285714286,0.0004
271,0.5228573977947235,1.175342082977295,0.8269230769230769,0.9615384615384616,0.7142857142857143,0.9285714285714286,0.0004
272,0.4760773628950119,1.3829009532928467,0.8846153846153846,0.9807692307692307,0.7857142857142857,0.8571428571428571,0.0004
273,0.6675034761428833,1.0856654644012451,0.7884615384615384,0.9423076923076923,0.7857142857142857,0.9285714285714286,0.0004
274,0.5497902929782867,1.0530357360839844,0.8653846153846154,0.9807692307692307,0.7857142857142857,0.9285714285714286,0.0004
275,0.6978850364685059,1.3153239488601685,0.8076923076923077,0.9423076923076923,0.5714285714285714,0.8571428571428571,0.0004
276,0.5021524280309677,1.1735985279083252,0.8269230769230769,0.9807692307692307,0.7142857142857143,0.8571428571428571,0.0004
277,0.7681184113025665,1.1898751258850098,0.7692307692307693,0.9615384615384616,0.7857142857142857,0.8571428571428571,0.0004
278,0.7748580574989319,1.3814915418624878,0.7884615384615384,0.9230769230769231,0.7142857142857143,0.8571428571428571,0.0004
279,0.7093294560909271,1.6293941736221313,0.7692307692307693,0.9615384615384616,0.5714285714285714,0.8571428571428571,0.0004
280,0.4876393973827362,0.9589837789535522,0.8653846153846154,0.9807692307692307,0.9285714285714286,0.9285714285714286,0.0004
281,0.49575144052505493,1.1735856533050537,0.9230769230769231,0.9807692307692307,0.7857142857142857,0.9285714285714286,0.0004
282,0.5403778702020645,1.1284948587417603,0.7884615384615384,0.9807692307692307,0.7142857142857143,0.9285714285714286,0.0004
283,0.4534348249435425,1.6054147481918335,0.8269230769230769,1.0,0.8571428571428571,0.8571428571428571,0.0004
284,0.4652503728866577,1.2923976182937622,0.8653846153846154,0.9807692307692307,0.7857142857142857,0.8571428571428571,0.0004
285,0.6514328420162201,1.600022554397583,0.8269230769230769,0.9230769230769231,0.7857142857142857,0.7857142857142857,0.0004
286,0.5796268880367279,1.5228793621063232,0.8269230769230769,0.9615384615384616,0.7857142857142857,0.8571428571428571,0.0004
287,0.5958580672740936,1.1733872890472412,0.8269230769230769,0.9807692307692307,0.7142857142857143,0.8571428571428571,0.0004
288,0.49666060507297516,1.4120290279388428,0.8076923076923077,0.9615384615384616,0.7857142857142857,0.8571428571428571,0.0004
289,0.473471075296402,0.940766453742981,0.8653846153846154,0.9615384615384616,0.9285714285714286,0.8571428571428571,0.0004
290,0.5417038202285767,1.5858879089355469,0.8461538461538461,0.9230769230769231,0.5714285714285714,0.8571428571428571,0.0004
291,0.6038162112236023,1.1065244674682617,0.8076923076923077,0.9807692307692307,0.8571428571428571,0.9285714285714286,0.0004
292,0.512983649969101,1.008821725845337,0.7884615384615384,0.9615384615384616,0.8571428571428571,0.9285714285714286,0.0004
293,0.3907891511917114,1.4248642921447754,0.9230769230769231,0.9807692307692307,0.7142857142857143,0.8571428571428571,0.0004
294,0.7027387320995331,1.5791008472442627,0.8269230769230769,0.9230769230769231,0.6428571428571429,0.9285714285714286,0.0004
295,0.538987934589386,1.1782879829406738,0.8653846153846154,0.9423076923076923,0.8571428571428571,0.9285714285714286,0.0004
296,0.5388124138116837,0.8215023279190063,0.8653846153846154,0.9807692307692307,0.8571428571428571,0.9285714285714286,0.0004
297,0.5165688544511795,0.9578491449356079,0.8076923076923077,0.9423076923076923,0.8571428571428571,0.9285714285714286,0.0004
298,0.42343422770500183,0.9021807909011841,0.9038461538461539,0.9807692307692307,0.8571428571428571,0.9285714285714286,0.0004
299,0.7102004289627075,2.0654866695404053,0.7692307692307693,0.9615384615384616,0.5,0.7857142857142857,0.0004
300,0.6066462993621826,1.3718092441558838,0.7884615384615384,1.0,0.7142857142857143,0.8571428571428571,0.0004
301,0.40466102957725525,1.3531688451766968,0.8269230769230769,0.9807692307692307,0.7142857142857143,0.9285714285714286,0.0004
302,0.36699600517749786,1.3943147659301758,0.8461538461538461,0.9807692307692307,0.7142857142857143,0.9285714285714286,0.0004
303,0.774676114320755,1.3578636646270752,0.75,0.9807692307692307,0.6428571428571429,0.8571428571428571,0.0004
304,0.5007078498601913,1.0219578742980957,0.8269230769230769,0.9615384615384616,0.7857142857142857,0.8571428571428571,0.0004
305,0.5468583106994629,1.1380943059921265,0.8461538461538461,0.9807692307692307,0.6428571428571429,0.8571428571428571,0.0004
306,0.5992683619260788,0.9269428253173828,0.7884615384615384,0.9807692307692307,0.9285714285714286,0.9285714285714286,0.0004
307,0.6701136827468872,1.8835806846618652,0.8461538461538461,0.9615384615384616,0.42857142857142855,0.7857142857142857,0.0004
308,0.5770115107297897,1.077111005783081,0.8269230769230769,0.9615384615384616,0.6428571428571429,0.8571428571428571,0.0004
309,0.7331893742084503,1.1533161401748657,0.7884615384615384,0.9615384615384616,0.7857142857142857,0.8571428571428571,0.0004
310,0.654444009065628,1.518951416015625,0.7884615384615384,0.9807692307692307,0.7857142857142857,0.8571428571428571,0.0004
311,0.4107128828763962,1.0300743579864502,0.8461538461538461,1.0,0.8571428571428571,0.9285714285714286,0.0004
312,0.3619106262922287,1.332477331161499,0.8653846153846154,1.0,0.7142857142857143,0.8571428571428571,0.0004
313,0.5407632291316986,1.2416282892227173,0.8269230769230769,0.9615384615384616,0.7857142857142857,0.8571428571428571,0.0004
314,0.5161499679088593,1.4672210216522217,0.8076923076923077,0.9807692307692307,0.7857142857142857,0.7857142857142857,0.0004
315,0.5413459837436676,0.7502769231796265,0.7884615384615384,1.0,0.9285714285714286,0.9285714285714286,0.0004
316,0.6200622320175171,1.2424590587615967,0.8461538461538461,0.9615384615384616,0.6428571428571429,0.9285714285714286,0.0004
317,0.5328653156757355,1.2669134140014648,0.8846153846153846,0.9807692307692307,0.6428571428571429,0.9285714285714286,0.0004
318,0.5655855983495712,1.0945990085601807,0.8269230769230769,0.9615384615384616,0.7857142857142857,0.9285714285714286,0.0004
319,0.4700973331928253,1.082404613494873,0.8269230769230769,0.9807692307692307,0.6428571428571429,0.9285714285714286,0.0004
320,0.6778469383716583,0.8508127331733704,0.75,0.9230769230769231,0.9285714285714286,0.9285714285714286,0.0004
321,0.4955774396657944,1.3911402225494385,0.8653846153846154,0.9807692307692307,0.6428571428571429,0.8571428571428571,0.0004
322,0.4902542382478714,1.957256555557251,0.8076923076923077,0.9615384615384616,0.5,0.7857142857142857,0.0004
323,0.5205047875642776,1.124291181564331,0.8076923076923077,0.9423076923076923,0.6428571428571429,0.9285714285714286,0.0004
324,0.6792339533567429,0.9762350916862488,0.8076923076923077,0.9230769230769231,0.7857142857142857,0.9285714285714286,0.0004
325,0.5343207120895386,1.6886608600616455,0.8076923076923077,0.9807692307692307,0.7142857142857143,0.8571428571428571,0.0004
326,0.4778137356042862,0.8074313402175903,0.8076923076923077,1.0,0.9285714285714286,0.9285714285714286,0.0004
327,0.6640875339508057,1.4799121618270874,0.8846153846153846,0.9615384615384616,0.7142857142857143,0.9285714285714286,0.0004
328,0.60688616335392,1.1004071235656738,0.8076923076923077,0.9807692307692307,0.7857142857142857,0.9285714285714286,0.0004
329,0.7194827497005463,0.9456489682197571,0.7884615384615384,0.9423076923076923,0.7142857142857143,0.9285714285714286,0.0004
330,0.7589394152164459,1.0325119495391846,0.7115384615384616,0.9615384615384616,0.7857142857142857,0.9285714285714286,0.0004
331,0.5275966972112656,1.5851259231567383,0.8461538461538461,0.9615384615384616,0.5714285714285714,0.8571428571428571,0.0004
332,0.48028890788555145,1.7510757446289062,0.9038461538461539,1.0,0.5,0.7857142857142857,0.0004
333,0.6203537583351135,1.6302721500396729,0.7307692307692307,0.9423076923076923,0.5714285714285714,0.8571428571428571,0.0004
334,0.6237766742706299,1.3592044115066528,0.8269230769230769,0.9615384615384616,0.7857142857142857,0.9285714285714286,0.0004
335,0.5098080039024353,0.8258974552154541,0.8076923076923077,0.9807692307692307,0.9285714285714286,0.9285714285714286,0.0004
336,0.631464958190918,1.5321122407913208,0.8461538461538461,0.9230769230769231,0.5714285714285714,0.9285714285714286,0.0004
337,0.5052977204322815,0.9575620889663696,0.8269230769230769,0.9423076923076923,0.8571428571428571,0.9285714285714286,0.0004
338,0.4423176646232605,1.8101346492767334,0.8461538461538461,0.9807692307692307,0.5714285714285714,0.8571428571428571,0.0004
339,0.7849938571453094,1.197458028793335,0.75,0.9423076923076923,0.6428571428571429,0.9285714285714286,0.0004
340,0.42797426879405975,1.2372586727142334,0.8461538461538461,1.0,0.6428571428571429,0.9285714285714286,0.0004
341,0.48363982141017914,1.2449151277542114,0.8076923076923077,0.9807692307692307,0.6428571428571429,0.9285714285714286,0.0004
342,0.6287668645381927,1.4616267681121826,0.7692307692307693,0.9615384615384616,0.7857142857142857,0.8571428571428571,0.0004
343,0.6928573846817017,1.4214370250701904,0.7307692307692307,0.9807692307692307,0.7142857142857143,0.8571428571428571,0.0004
344,0.49861758947372437,1.8323004245758057,0.8269230769230769,0.9807692307692307,0.7142857142857143,0.8571428571428571,0.0004
345,0.7251771986484528,1.89451003074646,0.7884615384615384,0.9615384615384616,0.5,0.8571428571428571,0.0004
346,0.45656751096248627,1.9596333503723145,0.8653846153846154,0.9807692307692307,0.6428571428571429,0.8571428571428571,0.0004
347,0.4774724841117859,1.619675874710083,0.8461538461538461,0.9807692307692307,0.5,0.9285714285714286,0.0004
348,0.5358886569738388,1.6487183570861816,0.8076923076923077,1.0,0.7142857142857143,0.7857142857142857,0.0004
349,0.7232950925827026,1.4007673263549805,0.7884615384615384,0.9423076923076923,0.7857142857142857,0.8571428571428571,0.0004
350,0.533920630812645,1.7516286373138428,0.8269230769230769,1.0,0.5,0.7857142857142857,0.0004
351,0.47076769173145294,1.117241621017456,0.8846153846153846,1.0,0.7857142857142857,0.9285714285714286,0.0004
352,0.7814092040061951,1.170396327972412,0.7692307692307693,0.9615384615384616,0.8571428571428571,0.9285714285714286,0.0004
353,0.5724703818559647,1.0131409168243408,0.7884615384615384,0.9423076923076923,0.9285714285714286,0.8571428571428571,0.0004
354,0.69317227602005,1.3379417657852173,0.7692307692307693,0.9615384615384616,0.5,0.8571428571428571,0.0004
355,0.5055657774209976,1.5201311111450195,0.8653846153846154,0.9807692307692307,0.5714285714285714,0.9285714285714286,0.0004
356,0.6900229603052139,0.6662819385528564,0.8076923076923077,0.9038461538461539,0.9285714285714286,0.9285714285714286,0.0004
357,0.5188950300216675,1.084240198135376,0.8076923076923077,0.9615384615384616,0.7857142857142857,0.8571428571428571,0.0004
358,0.7972545921802521,0.8998374938964844,0.7884615384615384,0.9423076923076923,0.9285714285714286,0.9285714285714286,0.0004
359,0.5332333147525787,1.3200939893722534,0.8076923076923077,1.0,0.7857142857142857,0.8571428571428571,0.0004
360,0.6763265132904053,1.3261184692382812,0.7307692307692307,0.9615384615384616,0.7142857142857143,0.8571428571428571,0.0004
361,0.5774420499801636,1.3717255592346191,0.8653846153846154,0.9423076923076923,0.7142857142857143,0.8571428571428571,0.0004
362,0.5207644551992416,1.434386134147644,0.7884615384615384,1.0,0.7857142857142857,0.8571428571428571,0.0004
363,0.31942036747932434,1.3319263458251953,0.8846153846153846,1.0,0.7857142857142857,0.8571428571428571,0.0004
364,0.6031919568777084,1.160832166671753,0.8461538461538461,0.9807692307692307,0.7857142857142857,0.9285714285714286,0.0004
365,0.574021726846695,1.8806788921356201,0.8461538461538461,0.9615384615384616,0.7142857142857143,0.8571428571428571,0.0004
366,0.5175925642251968,2.1321702003479004,0.7692307692307693,1.0,0.7142857142857143,0.8571428571428571,0.0004
367,0.4530583471059799,1.0078186988830566,0.8269230769230769,1.0,0.7857142857142857,0.8571428571428571,0.0004
368,0.3232477307319641,0.8060373067855835,0.9230769230769231,0.9615384615384616,0.9285714285714286,0.9285714285714286,0.0004
369,0.5240925550460815,0.8249799013137817,0.7884615384615384,0.9807692307692307,0.8571428571428571,0.9285714285714286,0.0004
370,0.6988962888717651,1.1928149461746216,0.75,0.9615384615384616,0.7857142857142857,0.9285714285714286,0.0004
371,0.48572827875614166,1.382153868675232,0.8461538461538461,1.0,0.8571428571428571,0.8571428571428571,0.0004
372,0.5083272755146027,1.4347083568572998,0.7692307692307693,1.0,0.7857142857142857,0.8571428571428571,0.0004
373,0.7064547538757324,1.1861541271209717,0.8076923076923077,0.9615384615384616,0.7142857142857143,0.9285714285714286,0.0004
374,0.437213271856308,1.1872994899749756,0.8653846153846154,0.9615384615384616,0.7142857142857143,0.8571428571428571,0.0004
375,0.39002613723278046,1.3372278213500977,0.8461538461538461,0.9807692307692307,0.5714285714285714,0.9285714285714286,0.0004
376,0.42015156149864197,1.684765100479126,0.8269230769230769,1.0,0.7142857142857143,0.9285714285714286,0.0004
377,0.7145417332649231,2.0309736728668213,0.6923076923076923,0.9615384615384616,0.6428571428571429,0.7857142857142857,0.0004
378,0.5781286805868149,1.6316924095153809,0.8653846153846154,0.9807692307692307,0.7142857142857143,0.8571428571428571,0.0004
379,0.5663885772228241,1.5056136846542358,0.8076923076923077,0.9807692307692307,0.7857142857142857,0.8571428571428571,0.0004
380,0.6700252294540405,1.3373429775238037,0.7884615384615384,0.9807692307692307,0.7142857142857143,0.9285714285714286,0.0004
381,0.5103635191917419,0.8544915318489075,0.8461538461538461,0.9807692307692307,0.8571428571428571,0.9285714285714286,0.0004
382,0.5874168872833252,1.2067246437072754,0.8076923076923077,0.9807692307692307,0.7857142857142857,0.8571428571428571,0.0004
383,0.31957513093948364,0.8429678678512573,0.9038461538461539,0.9807692307692307,0.9285714285714286,0.9285714285714286,0.0004
384,0.6011711359024048,0.7227450013160706,0.7884615384615384,0.9807692307692307,0.8571428571428571,0.9285714285714286,0.0004
385,0.5351794958114624,1.4613124132156372,0.8461538461538461,0.9807692307692307,0.7857142857142857,0.8571428571428571,0.0004
386,0.3388151675462723,1.1475112438201904,0.9038461538461539,0.9807692307692307,0.6428571428571429,0.8571428571428571,0.0004
387,0.554000973701477,1.2500535249710083,0.7692307692307693,0.9807692307692307,0.7142857142857143,0.8571428571428571,0.0004
388,0.6632103621959686,1.252983808517456,0.75,0.9423076923076923,0.8571428571428571,0.9285714285714286,0.0004
389,0.4985460489988327,1.1417360305786133,0.8461538461538461,0.9615384615384616,0.7142857142857143,0.9285714285714286,0.0004
390,0.43304678797721863,0.9978886246681213,0.8076923076923077,0.9807692307692307,0.8571428571428571,0.9285714285714286,0.0004
391,0.4374252110719681,1.3953251838684082,0.8653846153846154,1.0,0.7857142857142857,0.8571428571428571,0.0004
392,0.5207421332597733,0.8599591255187988,0.8846153846153846,0.9615384615384616,0.8571428571428571,0.9285714285714286,0.0004
393,0.3255758434534073,0.8841413259506226,0.9230769230769231,0.9807692307692307,0.7857142857142857,0.9285714285714286,0.0004
394,0.4655631333589554,0.6998523473739624,0.8461538461538461,0.9807692307692307,0.9285714285714286,0.9285714285714286,0.0004
395,0.7281821966171265,0.9465703964233398,0.8461538461538461,0.9230769230769231,0.8571428571428571,0.9285714285714286,0.0004
396,0.6217865198850632,1.2505345344543457,0.7692307692307693,0.9423076923076923,0.8571428571428571,0.9285714285714286,0.0004
397,0.5810548514127731,1.230372428894043,0.8269230769230769,0.9615384615384616,0.5714285714285714,0.8571428571428571,0.0004
398,0.4614887833595276,1.4404592514038086,0.8461538461538461,0.9807692307692307,0.6428571428571429,0.8571428571428571,0.0004
399,0.32999591529369354,1.2026081085205078,0.8846153846153846,1.0,0.7857142857142857,0.8571428571428571,0.0004
400,0.48113107681274414,1.1724965572357178,0.8269230769230769,0.9807692307692307,0.7857142857142857,0.9285714285714286,0.0004
401,0.47388364374637604,1.2568538188934326,0.8653846153846154,0.9615384615384616,0.7857142857142857,0.8571428571428571,0.0004
402,0.671931266784668,1.225093126296997,0.7692307692307693,0.9615384615384616,0.7857142857142857,0.9285714285714286,0.0004
403,0.691639855504036,1.2595313787460327,0.7307692307692307,0.9807692307692307,0.6428571428571429,0.8571428571428571,0.0004
404,0.48694515228271484,0.9797643423080444,0.7884615384615384,1.0,0.8571428571428571,0.9285714285714286,0.0004
405,0.474702924489975,1.0979175567626953,0.8653846153846154,0.9615384615384616,0.8571428571428571,0.9285714285714286,0.0004
406,0.3534904643893242,1.3295316696166992,0.8653846153846154,1.0,0.7142857142857143,0.9285714285714286,0.0004
407,0.41873909533023834,0.9917181730270386,0.8461538461538461,1.0,0.9285714285714286,0.9285714285714286,0.0004
408,0.5504256337881088,1.5745813846588135,0.8269230769230769,0.9615384615384616,0.6428571428571429,0.9285714285714286,0.0004
409,0.38785623013973236,1.0062875747680664,0.8653846153846154,0.9615384615384616,0.7142857142857143,0.9285714285714286,0.0004
410,0.4806159436702728,1.8315720558166504,0.8653846153846154,0.9615384615384616,0.6428571428571429,0.7857142857142857,0.0004
411,0.4392087906599045,0.7448290586471558,0.7692307692307693,0.9807692307692307,0.7857142857142857,0.9285714285714286,0.0004
412,0.5733446776866913,0.7657373547554016,0.7692307692307693,0.9807692307692307,0.9285714285714286,0.9285714285714286,0.0004
413,0.5657308101654053,1.9276529550552368,0.8076923076923077,0.9807692307692307,0.5714285714285714,0.8571428571428571,0.0004
414,0.5549983233213425,0.8138450384140015,0.7692307692307693,0.9807692307692307,0.8571428571428571,0.9285714285714286,0.0004
415,0.44873756170272827,1.3905810117721558,0.8653846153846154,0.9807692307692307,0.7857142857142857,0.8571428571428571,0.0004
416,0.703939825296402,1.591421365737915,0.7115384615384616,0.9615384615384616,0.6428571428571429,0.8571428571428571,0.0004
417,0.5303433835506439,1.3743398189544678,0.8461538461538461,0.9807692307692307,0.8571428571428571,0.9285714285714286,0.0004
418,0.4504823833703995,1.5941084623336792,0.7884615384615384,0.9807692307692307,0.7857142857142857,0.8571428571428571,0.0004
419,0.49972665309906006,1.8153239488601685,0.7884615384615384,0.9615384615384616,0.7142857142857143,0.8571428571428571,0.0004
420,0.5485343784093857,1.185950756072998,0.7884615384615384,0.9807692307692307,0.7857142857142857,0.8571428571428571,0.0004
421,0.410422146320343,1.3709383010864258,0.8461538461538461,0.9807692307692307,0.7857142857142857,0.8571428571428571,0.0004
422,0.5937559306621552,1.2079284191131592,0.7692307692307693,0.9423076923076923,0.5714285714285714,0.8571428571428571,0.0004
423,0.6949409544467926,2.091916084289551,0.7692307692307693,0.9615384615384616,0.6428571428571429,0.7857142857142857,0.0004
424,0.7109174728393555,1.3281131982803345,0.7884615384615384,0.9615384615384616,0.5714285714285714,0.9285714285714286,0.0004
425,0.6341848373413086,1.0979588031768799,0.7692307692307693,0.9230769230769231,0.7857142857142857,0.8571428571428571,0.0004
426,0.7187139093875885,1.6731599569320679,0.7307692307692307,0.9423076923076923,0.7142857142857143,0.7857142857142857,0.0004
427,0.4149969667196274,1.3507740497589111,0.8076923076923077,0.9807692307692307,0.7857142857142857,0.8571428571428571,0.0004
428,0.6211608648300171,0.8633158206939697,0.8076923076923077,0.9230769230769231,0.8571428571428571,0.9285714285714286,0.0004
429,0.5592703223228455,1.2494409084320068,0.7884615384615384,0.9807692307692307,0.7857142857142857,0.7857142857142857,0.0004
430,0.43828335404396057,1.1798194646835327,0.8846153846153846,0.9807692307692307,0.7857142857142857,0.8571428571428571,0.0004
431,0.48979872465133667,0.7751922607421875,0.8461538461538461,0.9807692307692307,0.9285714285714286,0.9285714285714286,0.0004
432,0.454626202583313,0.7689871788024902,0.8653846153846154,0.9423076923076923,0.8571428571428571,0.9285714285714286,0.0004
433,0.5386471301317215,1.263089895248413,0.8461538461538461,0.9807692307692307,0.7142857142857143,0.8571428571428571,0.0004
434,0.8012149333953857,1.8093252182006836,0.8076923076923077,0.9423076923076923,0.8571428571428571,0.8571428571428571,0.0004
435,0.7298566401004791,1.4183393716812134,0.7884615384615384,0.9230769230769231,0.7857142857142857,0.8571428571428571,0.0004
436,0.7048423886299133,1.1439640522003174,0.8076923076923077,0.9230769230769231,0.7142857142857143,0.7857142857142857,0.0004
437,0.4015577957034111,1.0467801094055176,0.9038461538461539,0.9423076923076923,0.8571428571428571,0.9285714285714286,0.0004
438,0.5169067978858948,1.04558527469635,0.7884615384615384,0.9807692307692307,0.9285714285714286,0.9285714285714286,0.0004
439,0.471662312746048,1.3501760959625244,0.9038461538461539,0.9615384615384616,0.7857142857142857,0.8571428571428571,0.0004
440,0.6842232942581177,1.1830236911773682,0.8076923076923077,0.8846153846153846,0.7857142857142857,0.7857142857142857,0.0004
441,0.5401870608329773,1.2753708362579346,0.8461538461538461,0.9807692307692307,0.5714285714285714,0.9285714285714286,0.0004
442,0.5863346308469772,1.265830636024475,0.7692307692307693,0.9615384615384616,0.7142857142857143,0.7857142857142857,0.0004
443,0.48101308941841125,0.8852885961532593,0.8461538461538461,0.9807692307692307,0.7857142857142857,0.8571428571428571,0.0004
444,0.589682474732399,1.3181812763214111,0.75,0.9807692307692307,0.8571428571428571,0.8571428571428571,0.0004
445,0.41345901787281036,1.512175440788269,0.9038461538461539,0.9615384615384616,0.6428571428571429,0.8571428571428571,0.0004
446,0.49540436267852783,0.9196741580963135,0.8461538461538461,0.9807692307692307,0.7857142857142857,0.9285714285714286,0.0004
447,0.4267760366201401,1.043997049331665,0.8653846153846154,1.0,0.7142857142857143,0.9285714285714286,0.0004
448,0.4022960364818573,1.6497716903686523,0.8846153846153846,1.0,0.5714285714285714,0.8571428571428571,0.0004
449,0.4056103825569153,1.6250158548355103,0.8269230769230769,1.0,0.42857142857142855,0.8571428571428571,0.0004
450,0.5761120915412903,1.6996887922286987,0.7884615384615384,0.9807692307692307,0.6428571428571429,0.8571428571428571,0.0004
451,0.4406960904598236,0.9769353866577148,0.8461538461538461,0.9807692307692307,0.7142857142857143,0.9285714285714286,0.0004
452,0.4132046550512314,1.1757583618164062,0.8461538461538461,0.9807692307692307,0.6428571428571429,0.8571428571428571,0.0004
453,0.403583362698555,1.6231780052185059,0.8461538461538461,0.9615384615384616,0.6428571428571429,0.8571428571428571,0.0004
454,0.578999400138855,1.4566611051559448,0.7692307692307693,0.9807692307692307,0.7142857142857143,0.8571428571428571,0.0004
455,0.5964224189519882,1.0159696340560913,0.8653846153846154,0.9807692307692307,0.8571428571428571,0.8571428571428571,0.0004
456,0.2783493995666504,1.171720027923584,0.9423076923076923,1.0,0.7142857142857143,0.8571428571428571,0.0004
457,0.5508541166782379,2.1256909370422363,0.8461538461538461,0.9615384615384616,0.5,0.7857142857142857,0.0004
458,0.37337280809879303,1.3988664150238037,0.8653846153846154,0.9615384615384616,0.7857142857142857,0.8571428571428571,0.0004
459,0.5316221117973328,1.7755370140075684,0.8269230769230769,0.9807692307692307,0.5714285714285714,0.7857142857142857,0.0004
460,0.458250030875206,0.6229629516601562,0.8653846153846154,1.0,0.8571428571428571,0.9285714285714286,0.0004
461,0.4619200825691223,1.0808427333831787,0.8076923076923077,1.0,0.8571428571428571,0.8571428571428571,0.0004
462,0.8132880926132202,1.6999921798706055,0.8269230769230769,0.9807692307692307,0.5714285714285714,0.9285714285714286,0.0004
463,0.680778443813324,0.5985875129699707,0.75,0.9423076923076923,0.7857142857142857,0.9285714285714286,0.0004
464,0.4738234728574753,1.120618224143982,0.8653846153846154,0.9807692307692307,0.7142857142857143,0.8571428571428571,0.0004
465,0.5510851144790649,0.9626489281654358,0.8653846153846154,0.9807692307692307,0.6428571428571429,0.9285714285714286,0.0004
466,0.5093711465597153,1.9774024486541748,0.8846153846153846,0.9615384615384616,0.6428571428571429,0.8571428571428571,0.0004
467,0.5198872238397598,1.3357908725738525,0.8653846153846154,0.9615384615384616,0.7857142857142857,0.8571428571428571,0.0004
468,0.36099381744861603,2.1045162677764893,0.9038461538461539,1.0,0.5,0.7857142857142857,0.0004
469,0.6457690894603729,1.0109853744506836,0.7884615384615384,0.9615384615384616,0.8571428571428571,0.8571428571428571,0.0004
470,0.6745391637086868,0.8945688009262085,0.8269230769230769,0.9615384615384616,0.9285714285714286,0.9285714285714286,0.0004
471,0.364361435174942,1.9585609436035156,0.8653846153846154,1.0,0.6428571428571429,0.8571428571428571,0.0004
472,0.6032168865203857,1.466778039932251,0.8269230769230769,0.9615384615384616,0.7142857142857143,0.8571428571428571,0.0004
473,0.49001702666282654,1.5633571147918701,0.8269230769230769,0.9807692307692307,0.7857142857142857,0.8571428571428571,0.0004
474,0.38768819719552994,1.0989478826522827,0.8846153846153846,1.0,0.8571428571428571,0.8571428571428571,0.0004
475,0.4037509113550186,0.8588481545448303,0.8846153846153846,1.0,0.8571428571428571,0.9285714285714286,0.0004
476,0.7322090268135071,1.7149666547775269,0.75,0.9807692307692307,0.7857142857142857,0.8571428571428571,0.0004
477,0.507706418633461,1.9091402292251587,0.8461538461538461,0.9807692307692307,0.5,0.7857142857142857,0.0004
478,0.4008435308933258,0.8530477285385132,0.8846153846153846,1.0,0.8571428571428571,0.9285714285714286,0.0004
479,0.42072975635528564,1.0658988952636719,0.8653846153846154,0.9807692307692307,0.7142857142857143,0.9285714285714286,0.0004
480,0.7355181276798248,1.7162246704101562,0.8269230769230769,0.9230769230769231,0.6428571428571429,0.7857142857142857,0.0004
481,0.22260945290327072,1.5808793306350708,0.9615384615384616,1.0,0.7857142857142857,0.8571428571428571,0.0004
482,0.5610187947750092,0.8257672786712646,0.8461538461538461,0.9615384615384616,0.7857142857142857,0.9285714285714286,0.0004
483,0.4771806299686432,1.164241909980774,0.8076923076923077,0.9807692307692307,0.7857142857142857,0.9285714285714286,0.0004
484,0.4178222268819809,1.152155876159668,0.8846153846153846,1.0,0.7142857142857143,0.9285714285714286,0.0004
485,0.5978445112705231,1.2508043050765991,0.7307692307692307,0.9807692307692307,0.7142857142857143,0.8571428571428571,0.0004
486,0.29399483650922775,1.1184532642364502,0.8846153846153846,1.0,0.7857142857142857,0.9285714285714286,0.0004
487,0.31364092230796814,1.4139404296875,0.9038461538461539,0.9807692307692307,0.7142857142857143,0.9285714285714286,0.0004
488,0.4158845990896225,0.9646738767623901,0.8461538461538461,0.9807692307692307,0.7857142857142857,0.9285714285714286,0.0004
489,0.5245107561349869,1.2704541683197021,0.8461538461538461,0.9615384615384616,0.7857142857142857,0.8571428571428571,0.0004
490,0.272591769695282,1.9203414916992188,0.9038461538461539,1.0,0.7857142857142857,0.7857142857142857,0.0004
491,0.3832196742296219,0.7963807582855225,0.8461538461538461,1.0,0.8571428571428571,0.9285714285714286,0.0004
492,0.4258314073085785,1.4780385494232178,0.8653846153846154,0.9615384615384616,0.6428571428571429,0.8571428571428571,0.0004
493,0.42121124267578125,1.3693630695343018,0.8846153846153846,0.9807692307692307,0.7142857142857143,0.9285714285714286,0.0004
494,0.4570096433162689,1.3768362998962402,0.8653846153846154,0.9807692307692307,0.7857142857142857,0.8571428571428571,0.0004
495,0.6814665496349335,1.8965028524398804,0.8461538461538461,0.9230769230769231,0.7142857142857143,0.7857142857142857,0.0004
496,0.41958457231521606,1.919834852218628,0.8653846153846154,0.9807692307692307,0.7142857142857143,0.7857142857142857,0.0004
497,0.3721289336681366,1.5995882749557495,0.8653846153846154,0.9423076923076923,0.6428571428571429,0.8571428571428571,0.0004
498,0.262481153011322,1.5501346588134766,0.9038461538461539,1.0,0.5714285714285714,0.7857142857142857,0.0004
499,0.33757640421390533,0.6065241098403931,0.8846153846153846,1.0,1.0,0.9285714285714286,0.0004
500,0.531032606959343,1.0895123481750488,0.8269230769230769,0.9807692307692307,0.7857142857142857,0.9285714285714286,0.0004
501,0.5272612571716309,1.4008381366729736,0.8269230769230769,0.9807692307692307,0.6428571428571429,0.8571428571428571,0.0004
502,0.62238509953022,1.7062666416168213,0.8653846153846154,0.9615384615384616,0.7857142857142857,0.8571428571428571,0.0004
503,0.4744555950164795,1.0491076707839966,0.8269230769230769,0.9615384615384616,0.7857142857142857,0.9285714285714286,0.0004
504,0.35303201526403427,1.4169056415557861,0.8653846153846154,0.9615384615384616,0.7142857142857143,0.9285714285714286,0.0004
505,0.48028364777565,1.5278452634811401,0.8269230769230769,0.9807692307692307,0.5714285714285714,0.8571428571428571,0.0004
506,0.44178638607263565,2.4370954036712646,0.9230769230769231,0.9807692307692307,0.5,0.7857142857142857,0.0004
507,0.648316890001297,1.6458230018615723,0.8076923076923077,0.9615384615384616,0.7142857142857143,0.7857142857142857,0.0004
508,0.41176339983940125,1.999929428100586,0.9230769230769231,0.9807692307692307,0.5714285714285714,0.8571428571428571,0.0004
509,0.48672300577163696,0.8138987421989441,0.8461538461538461,0.9807692307692307,0.8571428571428571,0.9285714285714286,0.0004
510,0.5101275444030762,1.4343984127044678,0.8269230769230769,0.9615384615384616,0.8571428571428571,0.8571428571428571,0.0004
511,0.6112135648727417,1.9322646856307983,0.8076923076923077,0.9615384615384616,0.5,0.7857142857142857,0.0004
512,0.5391505658626556,0.9496386051177979,0.8076923076923077,0.9038461538461539,0.7142857142857143,0.8571428571428571,0.0004
513,0.6016592085361481,1.20287024974823,0.8461538461538461,0.9423076923076923,0.6428571428571429,0.8571428571428571,0.0004
514,0.9095532894134521,1.710067868232727,0.6730769230769231,0.9615384615384616,0.6428571428571429,0.8571428571428571,0.0004
515,0.4581443518400192,1.250502586364746,0.8076923076923077,1.0,0.7857142857142857,0.9285714285714286,0.0004
516,0.43423323333263397,1.332770824432373,0.8846153846153846,0.9615384615384616,0.7857142857142857,0.7857142857142857,0.0004
517,0.5514393746852875,1.2120680809020996,0.7307692307692307,0.9615384615384616,0.8571428571428571,0.9285714285714286,0.0004
518,0.5220991671085358,1.6804211139678955,0.7884615384615384,0.9807692307692307,0.6428571428571429,0.8571428571428571,0.0004
519,0.675369381904602,1.6134412288665771,0.7692307692307693,0.9423076923076923,0.6428571428571429,0.8571428571428571,0.0004
520,0.5105139166116714,1.8888719081878662,0.8076923076923077,0.9807692307692307,0.5714285714285714,0.8571428571428571,0.0004
521,0.5650760382413864,1.11647367477417,0.7884615384615384,0.9807692307692307,0.7142857142857143,0.9285714285714286,0.0004
522,0.4537258446216583,1.111636996269226,0.8846153846153846,0.9615384615384616,0.7857142857142857,0.9285714285714286,0.0004
523,0.7055886089801788,1.1072134971618652,0.7307692307692307,0.9423076923076923,0.7142857142857143,0.9285714285714286,0.0004
524,0.5661836266517639,0.8703666925430298,0.75,0.9807692307692307,0.7857142857142857,0.9285714285714286,0.0004
525,0.6291545331478119,1.4733604192733765,0.75,0.9230769230769231,0.5714285714285714,0.8571428571428571,0.0004
526,0.6506287157535553,1.1022346019744873,0.7884615384615384,0.9807692307692307,0.7857142857142857,0.8571428571428571,0.0004
527,0.5682009160518646,1.7243447303771973,0.7884615384615384,1.0,0.7142857142857143,0.7857142857142857,0.0004
528,0.45512713491916656,1.3965435028076172,0.8653846153846154,1.0,0.5714285714285714,0.8571428571428571,0.0004
529,0.6722980737686157,0.9323298931121826,0.8076923076923077,0.9615384615384616,0.8571428571428571,0.9285714285714286,0.0004
530,0.5867889225482941,0.931498646736145,0.8076923076923077,0.9807692307692307,0.7857142857142857,0.9285714285714286,0.0004
531,0.4573237746953964,1.6518301963806152,0.8269230769230769,0.9615384615384616,0.5714285714285714,0.9285714285714286,0.0004
532,0.45391809940338135,1.1990549564361572,0.8269230769230769,0.9807692307692307,0.7857142857142857,0.9285714285714286,0.0004
533,0.5315807014703751,1.519092321395874,0.8076923076923077,1.0,0.6428571428571429,0.8571428571428571,0.0004
534,0.7638972848653793,0.9280300736427307,0.7884615384615384,0.9038461538461539,0.7142857142857143,0.9285714285714286,0.0004
535,0.5326380282640457,1.432434320449829,0.7692307692307693,1.0,0.6428571428571429,0.9285714285714286,0.0004
536,0.4787724018096924,0.7257855534553528,0.8461538461538461,0.9807692307692307,0.8571428571428571,0.9285714285714286,0.0004
537,0.47706206142902374,0.9353137016296387,0.8076923076923077,0.9807692307692307,0.8571428571428571,0.9285714285714286,0.0004
538,0.5064181834459305,0.9990240931510925,0.8653846153846154,0.9423076923076923,0.7857142857142857,0.8571428571428571,0.0004
539,0.46403154730796814,1.6088744401931763,0.8269230769230769,0.9615384615384616,0.6428571428571429,0.9285714285714286,0.0004
540,0.2956601306796074,0.8756072521209717,0.9423076923076923,1.0,0.8571428571428571,0.9285714285714286,0.0004
541,0.5604808330535889,0.7114631533622742,0.8269230769230769,0.9615384615384616,0.7857142857142857,0.9285714285714286,0.0004
542,0.4003250002861023,1.1312016248703003,0.8653846153846154,0.9807692307692307,0.7857142857142857,0.9285714285714286,0.0004
543,0.6164889931678772,0.9773206114768982,0.8461538461538461,0.9807692307692307,0.8571428571428571,0.9285714285714286,0.0004
544,0.4873003363609314,1.186785340309143,0.8653846153846154,0.9807692307692307,0.8571428571428571,0.9285714285714286,0.0004
545,0.7336104810237885,1.8919298648834229,0.8461538461538461,0.9423076923076923,0.7142857142857143,0.8571428571428571,0.0004
546,0.4106975644826889,1.309851884841919,0.8653846153846154,0.9807692307692307,0.7857142857142857,0.9285714285714286,0.0004
547,0.633658692240715,1.8382678031921387,0.8461538461538461,0.9615384615384616,0.7142857142857143,0.8571428571428571,0.0004
548,0.41752566397190094,1.158287763595581,0.8846153846153846,0.9615384615384616,0.7142857142857143,0.9285714285714286,0.0004
549,0.2237703800201416,1.3233669996261597,0.9230769230769231,1.0,0.8571428571428571,0.8571428571428571,0.0004
550,0.47852957248687744,1.632500410079956,0.7884615384615384,0.9807692307692307,0.6428571428571429,0.8571428571428571,0.0004
551,0.3201410174369812,1.2674052715301514,0.9230769230769231,1.0,0.7142857142857143,0.8571428571428571,0.0004
552,0.5396725237369537,1.3257672786712646,0.8269230769230769,0.9807692307692307,0.7857142857142857,0.8571428571428571,0.0004
553,0.5064380764961243,1.6445280313491821,0.7884615384615384,0.9807692307692307,0.7142857142857143,0.7857142857142857,0.0004
554,0.6260347217321396,1.1205627918243408,0.7884615384615384,0.9807692307692307,0.7857142857142857,0.8571428571428571,0.0004
555,0.393950492143631,1.5644049644470215,0.8653846153846154,0.9807692307692307,0.7142857142857143,0.8571428571428571,0.0004
556,0.47381027042865753,0.9713917970657349,0.8846153846153846,0.9423076923076923,0.8571428571428571,0.9285714285714286,0.0004
557,0.33234642446041107,1.7527920007705688,0.9038461538461539,1.0,0.7857142857142857,0.8571428571428571,0.0004
558,0.6448764353990555,1.2256697416305542,0.8076923076923077,0.9230769230769231,0.7857142857142857,0.7857142857142857,0.0004
559,0.8168874084949493,0.9037306308746338,0.7692307692307693,0.9423076923076923,0.8571428571428571,0.9285714285714286,0.0004
560,0.598699763417244,1.5312206745147705,0.8461538461538461,0.9807692307692307,0.7142857142857143,0.8571428571428571,0.0004
561,0.6005164682865143,1.4128985404968262,0.7884615384615384,0.9807692307692307,0.6428571428571429,0.9285714285714286,0.0004
562,0.3855343163013458,1.413657307624817,0.8846153846153846,1.0,0.7142857142857143,0.9285714285714286,0.0004
563,0.5485667288303375,1.8416528701782227,0.8076923076923077,0.9807692307692307,0.7142857142857143,0.7857142857142857,0.0004
564,0.4104200452566147,1.78213632106781,0.8269230769230769,1.0,0.7142857142857143,0.8571428571428571,0.0004
565,0.46307069063186646,1.2056306600570679,0.8653846153846154,0.9807692307692307,0.6428571428571429,0.8571428571428571,0.0004
566,0.6408299207687378,0.994475245475769,0.8076923076923077,0.9615384615384616,0.7857142857142857,0.8571428571428571,0.0004
567,0.3792988210916519,1.5585963726043701,0.8653846153846154,0.9615384615384616,0.7142857142857143,0.8571428571428571,0.0004
568,0.366067573428154,1.3850576877593994,0.8269230769230769,1.0,0.6428571428571429,0.8571428571428571,0.0004
569,0.4697923809289932,0.8376150131225586,0.8461538461538461,1.0,0.9285714285714286,0.9285714285714286,0.0004
570,0.31958604604005814,1.791102647781372,0.9230769230769231,1.0,0.5714285714285714,0.8571428571428571,0.0004
571,0.4889041483402252,0.9468434453010559,0.8653846153846154,0.9423076923076923,0.8571428571428571,0.9285714285714286,0.0004
572,0.34914982318878174,1.9945780038833618,0.9038461538461539,0.9615384615384616,0.6428571428571429,0.7142857142857143,0.0004
573,0.6830536276102066,2.3011841773986816,0.7307692307692307,0.9423076923076923,0.7142857142857143,0.7142857142857143,0.0004
574,0.24473074078559875,1.9233027696609497,0.9423076923076923,1.0,0.7142857142857143,0.8571428571428571,0.0004
575,0.346190370619297,1.3095297813415527,0.8653846153846154,0.9615384615384616,0.7857142857142857,0.9285714285714286,0.0004
576,0.33378253877162933,0.8532488346099854,0.8461538461538461,0.9807692307692307,0.7142857142857143,0.9285714285714286,0.0004
577,0.7598313540220261,1.710183024406433,0.8269230769230769,0.9423076923076923,0.7142857142857143,0.8571428571428571,0.0004
578,0.5103635042905807,1.1662269830703735,0.8076923076923077,0.9615384615384616,0.7857142857142857,0.9285714285714286,0.0004
579,0.6643831133842468,2.138242244720459,0.7884615384615384,0.9423076923076923,0.5714285714285714,0.7857142857142857,0.0004
580,0.40943706035614014,1.6240296363830566,0.8461538461538461,1.0,0.7857142857142857,0.8571428571428571,0.0004
581,0.48968982696533203,1.3721431493759155,0.8461538461538461,0.9423076923076923,0.7857142857142857,0.9285714285714286,0.0004
582,0.34973178803920746,1.0080455541610718,0.8846153846153846,1.0,0.9285714285714286,0.9285714285714286,0.0004
583,0.34386512637138367,1.3412978649139404,0.8269230769230769,1.0,0.7142857142857143,0.9285714285714286,0.0004
584,0.32805242389440536,1.1165187358856201,0.8846153846153846,1.0,0.7142857142857143,0.9285714285714286,0.0004
585,0.25893434882164,1.4266557693481445,0.9038461538461539,1.0,0.7142857142857143,0.7857142857142857,0.0004
586,0.383963443338871,1.485417366027832,0.8653846153846154,0.9807692307692307,0.7142857142857143,0.7857142857142857,0.0004
587,0.37503354251384735,1.159398078918457,0.9230769230769231,1.0,0.7857142857142857,0.9285714285714286,0.0004
588,0.386446550488472,1.3756039142608643,0.9038461538461539,0.9807692307692307,0.7857142857142857,0.8571428571428571,0.0004
589,0.5531450510025024,1.5625169277191162,0.8653846153846154,0.9423076923076923,0.6428571428571429,0.7142857142857143,0.0004
590,0.42921432852745056,1.2893739938735962,0.9230769230769231,0.9615384615384616,0.7857142857142857,0.8571428571428571,0.0004
591,0.4072137027978897,0.7882407307624817,0.9230769230769231,0.9423076923076923,0.9285714285714286,0.9285714285714286,0.0004
592,0.27635547518730164,0.9882656335830688,0.9423076923076923,1.0,0.6428571428571429,0.7857142857142857,0.0004
593,0.29630182683467865,0.7779042720794678,0.9038461538461539,0.9807692307692307,0.7857142857142857,0.9285714285714286,0.0004
594,0.3797871917486191,0.8215566277503967,0.8653846153846154,0.9807692307692307,0.9285714285714286,0.9285714285714286,0.0004
595,0.5146295577287674,1.6870192289352417,0.8653846153846154,0.9807692307692307,0.7857142857142857,0.8571428571428571,0.0004
596,0.2872970700263977,1.3436200618743896,0.9038461538461539,0.9807692307692307,0.7857142857142857,0.8571428571428571,0.0004
597,0.4045289307832718,0.976453423500061,0.8846153846153846,0.9807692307692307,0.7857142857142857,0.9285714285714286,0.0004
598,0.6542961001396179,0.8929660320281982,0.8269230769230769,0.9423076923076923,0.8571428571428571,0.9285714285714286,0.0004
599,0.410264790058136,1.6529576778411865,0.8269230769230769,1.0,0.7857142857142857,0.9285714285714286,0.0004
600,0.24685756862163544,1.349808931350708,0.9423076923076923,1.0,0.7857142857142857,0.9285714285714286,0.0004
601,0.5236026346683502,1.9722840785980225,0.8269230769230769,0.9807692307692307,0.5714285714285714,0.8571428571428571,0.0004
602,0.3309673070907593,1.6215988397598267,0.8846153846153846,1.0,0.7857142857142857,0.9285714285714286,0.0004
603,0.46737633645534515,2.4029970169067383,0.8461538461538461,0.9807692307692307,0.5,0.7857142857142857,0.0004
604,0.6437111496925354,1.0494917631149292,0.8076923076923077,0.9615384615384616,0.8571428571428571,0.9285714285714286,0.0004
605,0.42758940160274506,2.048896312713623,0.9038461538461539,0.9615384615384616,0.5714285714285714,0.7857142857142857,0.0004
606,0.4620577394962311,1.4270341396331787,0.8653846153846154,0.9615384615384616,0.8571428571428571,0.8571428571428571,0.0004
607,0.3350422903895378,0.9092450141906738,0.8846153846153846,1.0,0.7142857142857143,0.8571428571428571,0.0004
608,0.4556848853826523,1.8257393836975098,0.8076923076923077,0.9807692307692307,0.7142857142857143,0.7857142857142857,0.0004
609,0.4288579374551773,1.1900935173034668,0.7884615384615384,0.9807692307692307,0.7857142857142857,0.8571428571428571,0.0004
610,0.44181476533412933,1.7904572486877441,0.7884615384615384,0.9807692307692307,0.7142857142857143,0.8571428571428571,0.0004
611,0.5750504285097122,1.8395341634750366,0.7692307692307693,0.9615384615384616,0.7142857142857143,0.8571428571428571,0.0004
612,0.48719316720962524,1.8585264682769775,0.9230769230769231,0.9807692307692307,0.6428571428571429,0.8571428571428571,0.0004
613,0.4432194381952286,1.7386620044708252,0.8269230769230769,1.0,0.6428571428571429,0.8571428571428571,0.0004
614,0.5987611711025238,1.146278977394104,0.7692307692307693,0.9615384615384616,0.7857142857142857,0.9285714285714286,0.0004
615,0.23087941855192184,1.5471041202545166,0.9423076923076923,1.0,0.7857142857142857,0.8571428571428571,0.0004
616,0.3051427751779556,1.4520304203033447,0.9038461538461539,1.0,0.7857142857142857,0.9285714285714286,0.0004
617,0.3800163120031357,1.8005203008651733,0.8846153846153846,1.0,0.5714285714285714,0.8571428571428571,0.0004
618,0.44850805401802063,1.5175895690917969,0.8461538461538461,0.9807692307692307,0.6428571428571429,0.8571428571428571,0.0004
619,0.32687267661094666,0.9873089790344238,0.9038461538461539,1.0,0.8571428571428571,0.9285714285714286,0.0004
620,0.6011653244495392,1.5076093673706055,0.8076923076923077,0.9615384615384616,0.7857142857142857,0.8571428571428571,0.0004
621,0.6104539930820465,1.2932307720184326,0.8269230769230769,1.0,0.7142857142857143,0.8571428571428571,0.0004
622,0.7090330123901367,1.5444810390472412,0.8076923076923077,0.9807692307692307,0.6428571428571429,0.8571428571428571,0.0004
623,0.8270452916622162,1.0868741273880005,0.7307692307692307,0.9423076923076923,0.7857142857142857,0.9285714285714286,0.0004
624,0.44560524821281433,1.3140068054199219,0.8653846153846154,0.9615384615384616,0.7142857142857143,0.9285714285714286,0.0004
625,0.48851923644542694,1.494566559791565,0.9038461538461539,0.9423076923076923,0.7857142857142857,0.8571428571428571,0.0004
626,0.31799210608005524,0.9268107414245605,0.8846153846153846,1.0,0.8571428571428571,0.9285714285714286,0.0004
627,0.5006857514381409,1.2942204475402832,0.8846153846153846,0.9807692307692307,0.8571428571428571,0.8571428571428571,0.0004
628,0.34179458022117615,1.0639591217041016,0.8846153846153846,1.0,0.9285714285714286,0.8571428571428571,0.0004
629,0.6785683333873749,1.578099250793457,0.7692307692307693,0.9615384615384616,0.6428571428571429,0.9285714285714286,0.0004
630,0.44346918165683746,1.1072165966033936,0.8076923076923077,0.9807692307692307,0.7857142857142857,0.9285714285714286,0.0004
631,0.4576147794723511,0.6477382779121399,0.8269230769230769,1.0,1.0,0.9285714285714286,0.0004
632,0.30751221626996994,1.949808955192566,0.9038461538461539,1.0,0.6428571428571429,0.8571428571428571,0.0004
633,0.6349264979362488,0.9525002837181091,0.8846153846153846,0.9807692307692307,0.8571428571428571,0.9285714285714286,0.0004
634,0.41413265466690063,1.5976219177246094,0.8461538461538461,1.0,0.7142857142857143,0.9285714285714286,0.0004
635,0.8894723057746887,1.5051774978637695,0.75,0.9423076923076923,0.8571428571428571,0.8571428571428571,0.0004
636,0.5642998963594437,1.3748226165771484,0.8269230769230769,0.9807692307692307,0.7142857142857143,0.9285714285714286,0.0004
637,0.45488958060741425,0.9701235294342041,0.8653846153846154,0.9807692307692307,0.7857142857142857,0.9285714285714286,0.0004
638,0.3778812736272812,1.4705098867416382,0.8461538461538461,0.9807692307692307,0.6428571428571429,0.8571428571428571,0.0004
639,0.6581165492534637,1.9950966835021973,0.7884615384615384,0.9423076923076923,0.5714285714285714,0.7857142857142857,0.0004
640,0.33523914217948914,1.3038076162338257,0.8653846153846154,1.0,0.7857142857142857,0.8571428571428571,0.0004
641,0.7559980750083923,1.7535942792892456,0.7307692307692307,0.9615384615384616,0.6428571428571429,0.8571428571428571,0.0004
642,0.803910881280899,1.291125774383545,0.7115384615384616,0.9038461538461539,0.7857142857142857,0.9285714285714286,0.0004
643,0.2914602905511856,0.83961021900177,0.9615384615384616,1.0,0.8571428571428571,0.8571428571428571,0.0004
644,0.5814553946256638,1.6202006340026855,0.8076923076923077,0.9038461538461539,0.7857142857142857,0.7857142857142857,0.0004
645,0.37582963705062866,1.2133272886276245,0.9038461538461539,0.9423076923076923,0.8571428571428571,0.9285714285714286,0.0004
646,0.32662877440452576,1.7049171924591064,0.8846153846153846,1.0,0.7142857142857143,0.8571428571428571,0.0004
647,0.5574266016483307,1.1289012432098389,0.8269230769230769,0.9423076923076923,0.7142857142857143,0.9285714285714286,0.0004
648,0.42245936393737793,1.9502180814743042,0.8461538461538461,0.9615384615384616,0.6428571428571429,0.7857142857142857,0.0004
649,0.6608310043811798,1.465955376625061,0.8076923076923077,0.9615384615384616,0.7857142857142857,0.8571428571428571,0.0004
650,0.5084199607372284,1.4281715154647827,0.8461538461538461,1.0,0.7142857142857143,0.9285714285714286,0.0004
651,0.4858480840921402,1.3796930313110352,0.8461538461538461,0.9807692307692307,0.7142857142857143,0.8571428571428571,0.0004
652,0.5113230645656586,1.769465684890747,0.8076923076923077,0.9807692307692307,0.5714285714285714,0.8571428571428571,0.0004
653,0.31288864463567734,1.2053446769714355,0.9423076923076923,1.0,0.7142857142857143,0.9285714285714286,0.0004
654,0.44543182849884033,2.1270296573638916,0.8846153846153846,0.9807692307692307,0.7142857142857143,0.7142857142857143,0.0004
655,0.28083688020706177,1.5067857503890991,0.9423076923076923,0.9807692307692307,0.7857142857142857,0.8571428571428571,0.0004
656,0.37497715651988983,1.3317298889160156,0.9038461538461539,0.9807692307692307,0.8571428571428571,0.8571428571428571,0.0004
657,0.4895643889904022,2.014827013015747,0.8269230769230769,0.9807692307692307,0.6428571428571429,0.8571428571428571,0.0004
658,0.5454393774271011,1.5735251903533936,0.8076923076923077,0.9615384615384616,0.7857142857142857,0.8571428571428571,0.0004
659,0.49790428578853607,1.8192166090011597,0.8076923076923077,0.9807692307692307,0.6428571428571429,0.7857142857142857,0.0004
660,0.28435491025447845,1.0310136079788208,0.8846153846153846,1.0,0.7857142857142857,0.8571428571428571,0.0004
661,0.2417779117822647,1.7227365970611572,0.9230769230769231,1.0,0.5714285714285714,0.8571428571428571,0.0004
662,0.4368976354598999,1.983128547668457,0.8653846153846154,0.9807692307692307,0.7857142857142857,0.8571428571428571,0.0004
663,0.5112336724996567,2.764115810394287,0.7692307692307693,0.9807692307692307,0.42857142857142855,0.7857142857142857,0.0004
664,0.5233776569366455,1.6343181133270264,0.8269230769230769,0.9807692307692307,0.7142857142857143,0.9285714285714286,0.0004
665,0.3346378207206726,1.4984910488128662,0.9230769230769231,1.0,0.6428571428571429,0.9285714285714286,0.0004
666,0.5997901856899261,1.2496836185455322,0.7884615384615384,0.9423076923076923,0.8571428571428571,0.8571428571428571,0.0004
667,0.5816672444343567,1.233069896697998,0.8269230769230769,0.9807692307692307,0.7142857142857143,0.9285714285714286,0.0004
668,0.6845077574253082,1.1775357723236084,0.7692307692307693,0.9615384615384616,0.7142857142857143,0.8571428571428571,0.0004
669,0.3608181029558182,1.2882965803146362,0.8653846153846154,0.9807692307692307,0.7142857142857143,0.9285714285714286,0.0004
670,0.5707694441080093,1.1273515224456787,0.8269230769230769,0.9615384615384616,0.7857142857142857,0.9285714285714286,0.0004
671,0.5440033674240112,1.0135835409164429,0.8846153846153846,0.9807692307692307,0.7857142857142857,0.9285714285714286,0.0004
672,0.2623097598552704,1.5775175094604492,0.8846153846153846,0.9807692307692307,0.6428571428571429,0.8571428571428571,0.0004
673,0.5243810564279556,1.6639482975006104,0.8076923076923077,0.9807692307692307,0.6428571428571429,0.8571428571428571,0.0004
674,0.4378458261489868,1.4099280834197998,0.8461538461538461,0.9615384615384616,0.7142857142857143,0.8571428571428571,0.0004
675,0.5056444108486176,1.0082967281341553,0.8653846153846154,0.9807692307692307,0.7142857142857143,0.9285714285714286,0.0004
676,0.36444053053855896,1.485825777053833,0.8076923076923077,1.0,0.6428571428571429,0.8571428571428571,0.0004
677,0.357219859957695,1.849587082862854,0.9230769230769231,0.9807692307692307,0.6428571428571429,0.8571428571428571,0.0004
678,0.42366865277290344,1.037816047668457,0.9230769230769231,0.9615384615384616,0.9285714285714286,0.9285714285714286,0.0004
679,0.377921387553215,1.7573208808898926,0.8653846153846154,1.0,0.7857142857142857,0.8571428571428571,0.0004
680,0.4829442799091339,1.3421275615692139,0.8269230769230769,0.9615384615384616,0.8571428571428571,0.9285714285714286,0.0004
681,0.6046284437179565,1.1286096572875977,0.75,0.9807692307692307,0.7857142857142857,0.9285714285714286,0.0004
682,0.43230678141117096,1.4532876014709473,0.8653846153846154,1.0,0.7857142857142857,0.8571428571428571,0.0004
683,0.3805675655603409,1.495537519454956,0.9615384615384616,0.9423076923076923,0.7142857142857143,0.8571428571428571,0.0004
684,0.42434266209602356,1.1153159141540527,0.8461538461538461,1.0,0.8571428571428571,0.9285714285714286,0.0004
685,0.34660470485687256,2.2690742015838623,0.9230769230769231,0.9807692307692307,0.5714285714285714,0.8571428571428571,0.0004
686,0.31674623489379883,2.033926010131836,0.8846153846153846,0.9807692307692307,0.6428571428571429,0.7857142857142857,0.0004
687,0.7547665238380432,1.1735726594924927,0.8076923076923077,0.9230769230769231,0.8571428571428571,0.9285714285714286,0.0004
688,0.434893473982811,1.8606113195419312,0.9230769230769231,0.9807692307692307,0.8571428571428571,0.8571428571428571,0.0004
689,0.3486674278974533,1.357650637626648,0.9038461538461539,1.0,0.7857142857142857,0.9285714285714286,0.0004
690,0.29033197462558746,1.563634991645813,0.9230769230769231,1.0,0.7142857142857143,0.7857142857142857,0.0004
691,0.6676894724369049,1.3885539770126343,0.9038461538461539,0.9230769230769231,0.8571428571428571,0.9285714285714286,0.0004
692,0.48525404930114746,1.3675603866577148,0.8461538461538461,0.9615384615384616,0.7142857142857143,0.8571428571428571,0.0004
693,0.4596274197101593,0.9788379669189453,0.9038461538461539,0.9615384615384616,0.8571428571428571,0.9285714285714286,0.0004
694,0.33999940752983093,0.9754682779312134,0.8846153846153846,1.0,0.9285714285714286,0.9285714285714286,0.0004
695,0.355537012219429,1.0848864316940308,0.9038461538461539,0.9615384615384616,0.8571428571428571,0.8571428571428571,0.0004
696,0.37711144983768463,1.2221040725708008,0.9230769230769231,0.9807692307692307,0.7857142857142857,0.8571428571428571,0.0004
697,0.5643016248941422,1.3941006660461426,0.8076923076923077,0.9423076923076923,0.7857142857142857,0.9285714285714286,0.0004
698,0.6948683857917786,1.0747559070587158,0.8269230769230769,0.9615384615384616,0.9285714285714286,0.8571428571428571,0.0004
699,0.43860018253326416,0.7512894868850708,0.8653846153846154,0.9807692307692307,0.9285714285714286,0.9285714285714286,0.0004
700,0.711762547492981,1.3129993677139282,0.7884615384615384,0.9423076923076923,0.7857142857142857,0.9285714285714286,0.0004
701,0.4044218212366104,1.515711784362793,0.8461538461538461,0.9807692307692307,0.7142857142857143,0.8571428571428571,0.0004
702,0.3394007682800293,1.1781830787658691,0.9038461538461539,0.9807692307692307,0.7142857142857143,0.8571428571428571,0.0004
703,0.3453940823674202,0.889009416103363,0.8846153846153846,0.9807692307692307,0.7857142857142857,0.9285714285714286,0.0004
704,0.4728800654411316,0.999281644821167,0.8461538461538461,0.9615384615384616,0.7857142857142857,0.9285714285714286,0.0004
705,0.4017523229122162,1.1916669607162476,0.9230769230769231,1.0,0.5714285714285714,0.7857142857142857,0.0004
706,0.5147765874862671,1.168480396270752,0.8846153846153846,1.0,0.6428571428571429,0.9285714285714286,0.0004
707,0.5118038356304169,0.7665307521820068,0.8653846153846154,0.9423076923076923,0.7857142857142857,0.9285714285714286,0.0004
708,0.37718579173088074,1.9707038402557373,0.8653846153846154,0.9807692307692307,0.6428571428571429,0.8571428571428571,0.0004
709,0.3936445713043213,1.773677110671997,0.8653846153846154,0.9615384615384616,0.7857142857142857,0.8571428571428571,0.0004
710,0.16350789368152618,1.0585517883300781,0.9423076923076923,1.0,0.8571428571428571,0.8571428571428571,0.0004
711,0.30582965165376663,1.2122746706008911,0.8846153846153846,0.9807692307692307,0.8571428571428571,0.9285714285714286,0.0004
712,0.46500279009342194,1.3727138042449951,0.8269230769230769,0.9807692307692307,0.7142857142857143,0.8571428571428571,0.0004
713,0.5585953295230865,2.3971290588378906,0.8269230769230769,0.9615384615384616,0.5,0.7857142857142857,0.0004
714,0.2802949398756027,1.1028623580932617,0.8846153846153846,1.0,0.7142857142857143,0.8571428571428571,0.0004
715,0.5560343712568283,1.9997440576553345,0.8076923076923077,0.9807692307692307,0.6428571428571429,0.7857142857142857,0.0004
716,0.36808113753795624,0.8048545718193054,0.9038461538461539,0.9807692307692307,0.8571428571428571,0.9285714285714286,0.0004
717,0.21178331971168518,1.1700916290283203,0.9423076923076923,1.0,0.7857142857142857,0.9285714285714286,0.0004
718,0.4285712242126465,1.4084062576293945,0.8846153846153846,0.9615384615384616,0.6428571428571429,0.8571428571428571,0.0004
719,0.6023379266262054,2.3704299926757812,0.7884615384615384,0.9807692307692307,0.7142857142857143,0.7857142857142857,0.0004
720,0.5151207894086838,1.2832756042480469,0.8461538461538461,0.9615384615384616,0.7142857142857143,0.9285714285714286,0.0004
721,0.5011693984270096,2.3216795921325684,0.8653846153846154,0.9615384615384616,0.5,0.8571428571428571,0.0004
722,0.5964356958866119,1.343109130859375,0.8269230769230769,0.9423076923076923,0.7142857142857143,0.8571428571428571,0.0004
723,0.45228615403175354,0.9525145292282104,0.8269230769230769,0.9423076923076923,0.7857142857142857,0.9285714285714286,0.0004
724,0.34811002016067505,1.5050947666168213,0.8653846153846154,1.0,0.7857142857142857,0.9285714285714286,0.0004
725,0.1993611827492714,1.294470191001892,0.9423076923076923,1.0,0.7142857142857143,0.9285714285714286,0.0004
726,0.3934171497821808,1.1190592050552368,0.8461538461538461,1.0,0.8571428571428571,0.9285714285714286,0.0004
727,0.3190971091389656,1.1702841520309448,0.9230769230769231,1.0,0.8571428571428571,0.9285714285714286,0.0004
728,0.42654523253440857,1.5870046615600586,0.8269230769230769,1.0,0.7142857142857143,0.7857142857142857,0.0004
729,0.5991626083850861,1.2445309162139893,0.8653846153846154,0.9423076923076923,0.7857142857142857,0.9285714285714286,0.0004
730,0.3509548306465149,1.7436469793319702,0.8653846153846154,0.9807692307692307,0.8571428571428571,0.8571428571428571,0.0004
731,0.29228486865758896,0.9056799411773682,0.9615384615384616,1.0,0.9285714285714286,0.9285714285714286,0.0004
732,0.230667844414711,1.1549180746078491,0.9230769230769231,1.0,0.8571428571428571,0.9285714285714286,0.0004
733,0.3578204810619354,1.4304053783416748,0.8461538461538461,1.0,0.6428571428571429,0.8571428571428571,0.0004
734,0.3792279213666916,1.8350775241851807,0.8653846153846154,0.9615384615384616,0.6428571428571429,0.9285714285714286,0.0004
735,0.44210611283779144,0.8030935525894165,0.8653846153846154,1.0,0.8571428571428571,0.9285714285714286,0.0004
736,0.5775447338819504,1.5152289867401123,0.8076923076923077,0.9423076923076923,0.7142857142857143,0.7857142857142857,0.0004
737,0.23837928473949432,2.1070001125335693,0.9423076923076923,1.0,0.6428571428571429,0.7857142857142857,0.0004
738,0.2998999357223511,2.4610438346862793,0.9230769230769231,1.0,0.7142857142857143,0.7857142857142857,0.0004
739,0.23668619990348816,1.7524036169052124,0.9038461538461539,0.9807692307692307,0.7142857142857143,0.9285714285714286,0.0004
740,0.49628540873527527,1.2690037488937378,0.8461538461538461,0.9423076923076923,0.7857142857142857,0.9285714285714286,0.0004
741,0.4075477719306946,1.1965601444244385,0.9038461538461539,0.9807692307692307,0.7857142857142857,0.8571428571428571,0.0004
742,0.48631028831005096,1.1008358001708984,0.8269230769230769,0.9615384615384616,0.8571428571428571,0.9285714285714286,0.0004
743,0.5304734110832214,1.380335807800293,0.8461538461538461,0.9615384615384616,0.8571428571428571,0.9285714285714286,0.0004
744,0.4946536272764206,2.025369644165039,0.8653846153846154,0.9807692307692307,0.6428571428571429,0.8571428571428571,0.0004
745,0.5695020854473114,1.8140835762023926,0.8269230769230769,0.9615384615384616,0.5,0.8571428571428571,0.0004
746,0.5883068889379501,1.5330915451049805,0.75,0.9807692307692307,0.7857142857142857,0.9285714285714286,0.0004
747,0.46640096604824066,1.181680679321289,0.7884615384615384,1.0,0.7142857142857143,0.9285714285714286,0.0004
748,0.5123378336429596,1.5577595233917236,0.8269230769230769,0.9423076923076923,0.7142857142857143,0.9285714285714286,0.0004
749,0.8352904617786407,1.2476930618286133,0.8461538461538461,0.9423076923076923,0.5714285714285714,0.9285714285714286,0.0004
750,0.35093337297439575,1.780277967453003,0.8461538461538461,0.9807692307692307,0.7857142857142857,0.7857142857142857,0.0004
751,0.4356987923383713,2.1328835487365723,0.8653846153846154,0.9807692307692307,0.5714285714285714,0.8571428571428571,0.0004
752,0.5590218305587769,1.1279188394546509,0.8076923076923077,0.9038461538461539,0.7142857142857143,0.9285714285714286,0.0004
753,0.371479332447052,1.2769527435302734,0.8653846153846154,1.0,0.7857142857142857,0.9285714285714286,0.0004
754,0.587477058172226,1.2393512725830078,0.7115384615384616,0.9615384615384616,0.7857142857142857,0.9285714285714286,0.0004
755,0.4315483868122101,0.809755802154541,0.9038461538461539,0.9807692307692307,0.7857142857142857,0.9285714285714286,0.0004
756,0.717642217874527,1.3796920776367188,0.7692307692307693,0.9230769230769231,0.7142857142857143,0.7857142857142857,0.0004
757,0.47203463315963745,1.6139647960662842,0.8269230769230769,0.9807692307692307,0.7142857142857143,0.9285714285714286,0.0004
758,0.609584167599678,1.7896928787231445,0.75,0.9615384615384616,0.5,0.8571428571428571,0.0004
759,0.4577166736125946,1.1143215894699097,0.8269230769230769,0.9615384615384616,0.8571428571428571,0.8571428571428571,0.0004
760,0.3628571182489395,1.143389105796814,0.8846153846153846,1.0,0.8571428571428571,0.9285714285714286,0.0004
761,0.43795931339263916,0.9355140924453735,0.8076923076923077,0.9615384615384616,0.9285714285714286,0.8571428571428571,0.0004
762,0.35101553797721863,1.2617332935333252,0.8653846153846154,0.9807692307692307,0.7857142857142857,0.9285714285714286,0.0004
763,0.6586349606513977,1.6349676847457886,0.8653846153846154,0.9615384615384616,0.6428571428571429,0.8571428571428571,0.0004
764,0.417474627494812,1.718026876449585,0.8846153846153846,0.9807692307692307,0.6428571428571429,0.7857142857142857,0.0004
765,0.4055895209312439,1.1901510953903198,0.8076923076923077,1.0,0.8571428571428571,0.8571428571428571,0.0004
766,0.5676851570606232,1.5234730243682861,0.8269230769230769,0.9807692307692307,0.7857142857142857,0.8571428571428571,0.0004
767,0.3161168694496155,1.4447681903839111,0.9230769230769231,1.0,0.7142857142857143,0.9285714285714286,0.0004
768,0.6457575857639313,1.990596890449524,0.7692307692307693,0.9807692307692307,0.5,0.8571428571428571,0.0004
769,0.3334163874387741,1.543872356414795,0.9230769230769231,1.0,0.7142857142857143,0.8571428571428571,0.0004
770,0.38416196405887604,1.1593210697174072,0.8653846153846154,1.0,0.6428571428571429,0.9285714285714286,0.0004
771,0.6457214951515198,1.1890623569488525,0.8269230769230769,0.9615384615384616,0.7857142857142857,0.8571428571428571,0.0004
772,0.6177172660827637,1.709331750869751,0.7692307692307693,0.9807692307692307,0.8571428571428571,0.8571428571428571,0.0004
773,0.32034042477607727,1.3900604248046875,0.8846153846153846,1.0,0.6428571428571429,0.8571428571428571,0.0004
774,0.5043747425079346,2.1109752655029297,0.8653846153846154,0.9615384615384616,0.7142857142857143,0.7857142857142857,0.0004
775,0.5694943517446518,1.5366239547729492,0.8653846153846154,0.9807692307692307,0.5714285714285714,0.9285714285714286,0.0004
776,0.4818069785833359,1.091172218322754,0.8269230769230769,0.9807692307692307,0.7142857142857143,0.9285714285714286,0.0004
777,0.2984362989664078,1.087246298789978,0.9038461538461539,0.9807692307692307,0.7857142857142857,0.9285714285714286,0.0004
778,0.2882479950785637,1.7044925689697266,0.9038461538461539,1.0,0.7142857142857143,0.8571428571428571,0.0004
779,0.39081722497940063,1.3083570003509521,0.8461538461538461,0.9615384615384616,0.8571428571428571,0.9285714285714286,0.0004
780,0.3052722066640854,1.5224623680114746,0.8846153846153846,1.0,0.6428571428571429,0.9285714285714286,0.0004
781,0.560823604464531,1.1524906158447266,0.7884615384615384,0.9615384615384616,0.8571428571428571,0.9285714285714286,0.0004
782,0.45254431664943695,1.1383018493652344,0.8461538461538461,0.9807692307692307,0.7857142857142857,0.9285714285714286,0.0004
783,0.3016110509634018,1.6551599502563477,0.9038461538461539,1.0,0.8571428571428571,0.8571428571428571,0.0004
784,0.7718200087547302,2.121096611022949,0.7884615384615384,0.9230769230769231,0.6428571428571429,0.7857142857142857,0.0004
785,0.392450287938118,1.0388619899749756,0.8653846153846154,0.9807692307692307,0.8571428571428571,0.9285714285714286,0.0004
786,0.526501476764679,1.2342075109481812,0.7692307692307693,1.0,0.8571428571428571,0.9285714285714286,0.0004
787,0.310894638299942,1.3847544193267822,0.8461538461538461,1.0,0.8571428571428571,0.8571428571428571,0.0004
788,0.3052997589111328,1.4173402786254883,0.8846153846153846,0.9807692307692307,0.5,0.9285714285714286,0.0004
789,0.3834289312362671,1.0660940408706665,0.8269230769230769,0.9807692307692307,0.8571428571428571,0.9285714285714286,0.0004
790,0.47443787753582,2.2367031574249268,0.8461538461538461,0.9807692307692307,0.7857142857142857,0.7857142857142857,0.0004
791,0.49110403656959534,2.258373498916626,0.8653846153846154,0.9615384615384616,0.5714285714285714,0.8571428571428571,0.0004
792,0.5313113182783127,1.6294097900390625,0.8461538461538461,0.9807692307692307,0.7142857142857143,0.9285714285714286,0.0004
793,0.4372701942920685,1.5271943807601929,0.8461538461538461,0.9423076923076923,0.6428571428571429,0.7857142857142857,0.0004
794,0.21623431891202927,1.3086938858032227,0.9615384615384616,1.0,0.6428571428571429,0.9285714285714286,0.0004
795,0.4046679586172104,1.7938473224639893,0.8846153846153846,0.9807692307692307,0.5714285714285714,0.9285714285714286,0.0004
796,0.39483165740966797,1.1724145412445068,0.8846153846153846,1.0,0.8571428571428571,0.8571428571428571,0.0004
797,0.43612049520015717,1.226792335510254,0.8846153846153846,0.9230769230769231,0.7857142857142857,0.8571428571428571,0.0004
798,0.45234939455986023,1.8661481142044067,0.8653846153846154,0.9615384615384616,0.7142857142857143,0.8571428571428571,0.0004
799,0.5597342178225517,1.7553905248641968,0.8461538461538461,0.9230769230769231,0.7142857142857143,0.8571428571428571,0.0004
800,0.34718652069568634,1.411675214767456,0.8653846153846154,1.0,0.7142857142857143,0.9285714285714286,0.0004
801,0.4985245317220688,1.7288572788238525,0.8846153846153846,0.9615384615384616,0.6428571428571429,0.8571428571428571,0.0004
802,0.6037144958972931,1.2299983501434326,0.7692307692307693,0.9615384615384616,0.7857142857142857,0.9285714285714286,0.0004
803,0.35164791345596313,1.512521743774414,0.8653846153846154,0.9807692307692307,0.7142857142857143,0.8571428571428571,0.0004
804,0.4642321467399597,1.528259038925171,0.8461538461538461,0.9807692307692307,0.6428571428571429,0.9285714285714286,0.0004
805,0.39565612375736237,1.0609033107757568,0.8076923076923077,1.0,0.8571428571428571,0.9285714285714286,0.0004
806,0.371942862868309,1.5533915758132935,0.8653846153846154,0.9615384615384616,0.7857142857142857,0.9285714285714286,0.0004
807,0.22929735481739044,2.179147720336914,0.9230769230769231,0.9807692307692307,0.7142857142857143,0.7142857142857143,0.0004
808,0.4682699590921402,1.8460946083068848,0.8653846153846154,0.9807692307692307,0.6428571428571429,0.8571428571428571,0.0004
809,0.4417484253644943,1.1242396831512451,0.8269230769230769,1.0,0.8571428571428571,0.8571428571428571,0.0004
810,0.3243294656276703,0.9853861331939697,0.9038461538461539,1.0,0.9285714285714286,0.9285714285714286,0.0004
811,0.5981468260288239,1.4740005731582642,0.7884615384615384,0.9615384615384616,0.7142857142857143,0.9285714285714286,0.0004
812,0.35371769964694977,1.7553691864013672,0.9230769230769231,0.9807692307692307,0.7142857142857143,0.8571428571428571,0.0004
813,0.5456608459353447,1.1833415031433105,0.8653846153846154,0.9615384615384616,0.9285714285714286,0.9285714285714286,0.0004
814,0.2919806092977524,1.303519368171692,0.9038461538461539,0.9615384615384616,0.8571428571428571,0.9285714285714286,0.0004
815,0.5479091852903366,0.9324545860290527,0.8653846153846154,1.0,1.0,0.8571428571428571,0.0004
816,0.8239074200391769,1.716995358467102,0.7692307692307693,0.9230769230769231,0.6428571428571429,0.8571428571428571,0.0004
817,0.4406062066555023,1.7229702472686768,0.9038461538461539,0.9807692307692307,0.6428571428571429,0.8571428571428571,0.0004
818,0.3753775805234909,1.5914881229400635,0.9230769230769231,0.9807692307692307,0.7142857142857143,0.8571428571428571,0.0004
819,0.9578611850738525,1.0627521276474,0.7884615384615384,0.9423076923076923,0.7142857142857143,0.9285714285714286,0.0004
820,0.4375767260789871,2.051598072052002,0.8076923076923077,1.0,0.6428571428571429,0.8571428571428571,0.0004
821,0.40267492830753326,1.808834195137024,0.8653846153846154,0.9807692307692307,0.6428571428571429,0.8571428571428571,0.0004
822,0.2889132648706436,2.1305861473083496,0.8846153846153846,1.0,0.7142857142857143,0.7857142857142857,0.0004
823,0.4222738891839981,1.3339028358459473,0.8846153846153846,1.0,0.7857142857142857,0.9285714285714286,0.0004
824,0.4680057168006897,1.6082316637039185,0.8269230769230769,0.9807692307692307,0.6428571428571429,0.9285714285714286,0.0004
825,0.4204714596271515,1.2138781547546387,0.8653846153846154,0.9807692307692307,0.8571428571428571,0.9285714285714286,0.0004
826,0.5217569470405579,1.9872329235076904,0.8269230769230769,0.9615384615384616,0.7142857142857143,0.8571428571428571,0.0004
827,0.5507790148258209,2.1185142993927,0.75,1.0,0.5714285714285714,0.7857142857142857,0.0004
828,0.49658896028995514,2.340362071990967,0.8653846153846154,0.9615384615384616,0.5714285714285714,0.7857142857142857,0.0004
829,0.36040131747722626,1.3872790336608887,0.9038461538461539,0.9807692307692307,0.7857142857142857,0.9285714285714286,0.0004
830,0.4130893647670746,2.074186086654663,0.8653846153846154,0.9807692307692307,0.5714285714285714,0.7857142857142857,0.0004
831,0.2662895768880844,2.218334197998047,0.9038461538461539,0.9807692307692307,0.5,0.8571428571428571,0.0004
832,0.3746190518140793,1.1987910270690918,0.8846153846153846,0.9807692307692307,0.7142857142857143,0.9285714285714286,0.0004
833,0.2798865884542465,1.2884587049484253,0.9038461538461539,1.0,0.7142857142857143,0.9285714285714286,0.0004
834,0.4824363440275192,1.1938546895980835,0.8269230769230769,0.9807692307692307,0.7857142857142857,0.8571428571428571,0.0004
835,0.28533174842596054,1.1914854049682617,0.8846153846153846,1.0,0.8571428571428571,0.8571428571428571,0.0004
836,0.3113516867160797,1.094116449356079,0.8846153846153846,1.0,0.8571428571428571,0.8571428571428571,0.0004
837,0.6231138855218887,1.3295778036117554,0.8846153846153846,0.9423076923076923,0.7857142857142857,0.8571428571428571,0.0004
838,0.41427284479141235,1.9352426528930664,0.8846153846153846,1.0,0.6428571428571429,0.7857142857142857,0.0004
839,0.3228175640106201,1.050804853439331,0.9038461538461539,1.0,0.7857142857142857,0.8571428571428571,0.0004
840,0.2946246713399887,1.1751353740692139,0.9423076923076923,1.0,0.7857142857142857,0.9285714285714286,0.0004
841,0.4680681377649307,2.0875906944274902,0.8653846153846154,0.9807692307692307,0.5714285714285714,0.8571428571428571,0.0004
842,0.3717071861028671,1.4221923351287842,0.8653846153846154,0.9615384615384616,0.7857142857142857,0.9285714285714286,0.0004
843,0.5863456428050995,1.8720403909683228,0.8269230769230769,0.9423076923076923,0.5714285714285714,0.8571428571428571,0.0004
844,0.26185864210128784,1.352374792098999,0.8653846153846154,1.0,0.7857142857142857,0.8571428571428571,0.0004
845,0.6671652793884277,1.9095556735992432,0.7884615384615384,0.9423076923076923,0.6428571428571429,0.8571428571428571,0.0004
846,0.2438940927386284,1.2803008556365967,0.9230769230769231,1.0,0.7857142857142857,0.9285714285714286,0.0004
847,0.3618880808353424,1.1046736240386963,0.8461538461538461,1.0,0.7857142857142857,0.9285714285714286,0.0004
848,0.35054823756217957,1.015676498413086,0.9038461538461539,0.9807692307692307,0.8571428571428571,0.9285714285714286,0.0004
849,0.4637894332408905,0.8709004521369934,0.8846153846153846,0.9615384615384616,0.7857142857142857,0.9285714285714286,0.0004
850,0.4320325702428818,1.144505262374878,0.8461538461538461,0.9807692307692307,0.7857142857142857,0.9285714285714286,0.0004
851,0.42549706995487213,1.533771276473999,0.8461538461538461,1.0,0.7142857142857143,0.7857142857142857,0.0004
852,0.2195798084139824,1.6608564853668213,0.9230769230769231,1.0,0.6428571428571429,0.8571428571428571,0.0004
853,0.47844503819942474,0.8967562913894653,0.8269230769230769,0.9807692307692307,0.7857142857142857,0.9285714285714286,0.0004
854,0.3221086114645004,1.3144972324371338,0.8653846153846154,1.0,0.7857142857142857,0.8571428571428571,0.0004
855,0.44433748722076416,1.2778782844543457,0.8461538461538461,0.9807692307692307,0.6428571428571429,0.9285714285714286,0.0004
856,0.22019162774085999,1.906123399734497,0.9423076923076923,0.9615384615384616,0.6428571428571429,0.7857142857142857,0.0004
857,0.4396955668926239,1.098915696144104,0.9038461538461539,0.9615384615384616,0.8571428571428571,0.9285714285714286,0.0004
858,0.6829636842012405,2.1159751415252686,0.8076923076923077,0.9230769230769231,0.5714285714285714,0.7857142857142857,0.0004
859,0.35180018097162247,0.8926617503166199,0.8269230769230769,0.9807692307692307,0.7857142857142857,0.8571428571428571,0.0004
860,0.7567936480045319,1.1441214084625244,0.8076923076923077,0.9230769230769231,0.7857142857142857,0.8571428571428571,0.0004
861,0.44554221630096436,1.8382809162139893,0.8269230769230769,1.0,0.7142857142857143,0.8571428571428571,0.0004
862,0.6599133014678955,0.9438850283622742,0.8461538461538461,0.9230769230769231,0.8571428571428571,0.9285714285714286,0.0004
863,0.3921070992946625,1.001620888710022,0.9230769230769231,0.9807692307692307,0.8571428571428571,0.9285714285714286,0.0004
864,0.8741016983985901,1.6499433517456055,0.7884615384615384,0.9615384615384616,0.8571428571428571,0.8571428571428571,0.0004
865,0.591475248336792,1.5837864875793457,0.8269230769230769,0.9615384615384616,0.7142857142857143,0.9285714285714286,0.0004
866,0.3959610164165497,0.9361317753791809,0.9038461538461539,0.9423076923076923,0.8571428571428571,0.8571428571428571,0.0004
867,0.4361106604337692,1.4339256286621094,0.8846153846153846,0.9423076923076923,0.7142857142857143,0.9285714285714286,0.0004
868,0.4146615192294121,1.1236964464187622,0.9038461538461539,0.9807692307692307,0.8571428571428571,0.8571428571428571,0.0004
869,0.39018289744853973,2.305414915084839,0.8653846153846154,0.9615384615384616,0.6428571428571429,0.7857142857142857,0.0004
870,0.6799395531415939,1.893496036529541,0.7884615384615384,0.9807692307692307,0.7857142857142857,0.7857142857142857,0.0004
871,0.32897554337978363,1.1503362655639648,0.8846153846153846,0.9807692307692307,0.8571428571428571,0.9285714285714286,0.0004
872,0.29997286200523376,1.1446549892425537,0.9423076923076923,0.9423076923076923,0.7142857142857143,0.8571428571428571,0.0004
873,0.38853707909584045,1.7005460262298584,0.9038461538461539,0.9807692307692307,0.7142857142857143,0.8571428571428571,0.0004
874,0.5486369431018829,1.806849718093872,0.8461538461538461,0.9423076923076923,0.6428571428571429,0.7857142857142857,0.0004
875,0.3291565179824829,0.9887534379959106,0.8846153846153846,0.9807692307692307,0.8571428571428571,0.9285714285714286,0.0004
876,0.35720397531986237,1.4679481983184814,0.8461538461538461,1.0,0.7142857142857143,0.8571428571428571,0.0004
877,0.3055431544780731,1.8398025035858154,0.9038461538461539,0.9615384615384616,0.6428571428571429,0.7857142857142857,0.0004
878,0.4879751652479172,1.6877187490463257,0.8461538461538461,0.9423076923076923,0.6428571428571429,0.8571428571428571,0.0004
879,0.7900533974170685,0.465106725692749,0.8076923076923077,0.9230769230769231,1.0,0.9285714285714286,0.0004
880,0.38853898644447327,1.0782527923583984,0.8653846153846154,0.9807692307692307,0.7142857142857143,0.8571428571428571,0.0004
881,0.38585011661052704,1.166486382484436,0.8846153846153846,0.9807692307692307,0.8571428571428571,0.8571428571428571,0.0004
882,0.606690913438797,1.6054000854492188,0.75,0.9423076923076923,0.6428571428571429,0.9285714285714286,0.0004
883,0.5368983447551727,1.0047762393951416,0.8076923076923077,0.9615384615384616,0.7857142857142857,0.9285714285714286,0.0004
884,0.45087113976478577,0.8235760927200317,0.8461538461538461,0.9423076923076923,0.8571428571428571,0.9285714285714286,0.0004
885,0.6072221845388412,1.149889349937439,0.8653846153846154,0.9615384615384616,0.7142857142857143,0.8571428571428571,0.0004
886,0.4789896458387375,1.69122314453125,0.8076923076923077,0.9615384615384616,0.7142857142857143,0.8571428571428571,0.0004
887,0.6568512469530106,1.4304237365722656,0.8269230769230769,0.9807692307692307,0.7857142857142857,0.8571428571428571,0.0004
888,0.4648056626319885,1.7082687616348267,0.8269230769230769,1.0,0.7142857142857143,0.8571428571428571,0.0004
889,0.42897929251194,1.0147303342819214,0.8461538461538461,1.0,0.7857142857142857,0.8571428571428571,0.0004
890,0.46543288230895996,1.0129523277282715,0.8461538461538461,0.9615384615384616,0.8571428571428571,0.9285714285714286,0.0004
891,0.49779079109430313,1.079686164855957,0.8846153846153846,0.9615384615384616,0.8571428571428571,0.9285714285714286,0.0004
892,0.5070116519927979,1.045865535736084,0.8846153846153846,0.9615384615384616,0.8571428571428571,0.8571428571428571,0.0004
893,0.385250523686409,1.0380948781967163,0.9038461538461539,0.9615384615384616,0.8571428571428571,0.9285714285714286,0.0004
894,0.3285273388028145,1.554256796836853,0.9230769230769231,0.9615384615384616,0.6428571428571429,0.8571428571428571,0.0004
895,0.6399015188217163,1.3107349872589111,0.8269230769230769,0.9423076923076923,0.7857142857142857,0.9285714285714286,0.0004
896,0.32372503727674484,0.9118524789810181,0.9038461538461539,0.9807692307692307,0.8571428571428571,0.9285714285714286,0.0004
897,0.4240731745958328,1.1776196956634521,0.9230769230769231,0.9615384615384616,0.7857142857142857,0.9285714285714286,0.0004
898,0.44910575449466705,1.0293759107589722,0.9038461538461539,0.9807692307692307,0.9285714285714286,0.9285714285714286,0.0004
899,0.2845064029097557,1.1232683658599854,0.9038461538461539,0.9807692307692307,0.8571428571428571,0.8571428571428571,0.0004
900,0.40583735704421997,1.0890088081359863,0.9038461538461539,1.0,0.7142857142857143,0.9285714285714286,0.0004
901,0.42016610503196716,0.8477391600608826,0.8076923076923077,1.0,0.9285714285714286,0.9285714285714286,0.0004
902,0.5149371176958084,1.1573309898376465,0.8461538461538461,0.9423076923076923,0.7857142857142857,0.9285714285714286,0.0004
903,0.3512883633375168,0.8950330018997192,0.9230769230769231,1.0,0.9285714285714286,0.9285714285714286,0.0004
904,0.3794174864888191,1.5681004524230957,0.8461538461538461,1.0,0.6428571428571429,0.8571428571428571,0.0004
905,0.409489706158638,1.3408695459365845,0.8461538461538461,0.9807692307692307,0.8571428571428571,0.9285714285714286,0.0004
906,0.35805168747901917,1.4333522319793701,0.9423076923076923,0.9615384615384616,0.7142857142857143,0.9285714285714286,0.0004
907,0.36202722042798996,1.428605079650879,0.8653846153846154,0.9807692307692307,0.6428571428571429,0.9285714285714286,0.0004
908,0.4623626545071602,1.799597978591919,0.8653846153846154,1.0,0.5714285714285714,0.9285714285714286,0.0004
909,0.5152810215950012,1.9485260248184204,0.8076923076923077,0.9807692307692307,0.6428571428571429,0.7857142857142857,0.0004
910,0.3980973958969116,2.3475167751312256,0.8461538461538461,0.9807692307692307,0.7857142857142857,0.7142857142857143,0.0004
911,0.5911169946193695,1.367030382156372,0.8461538461538461,0.9615384615384616,0.8571428571428571,0.7857142857142857,0.0004
912,0.8355976343154907,1.1301201581954956,0.7692307692307693,0.9615384615384616,0.7857142857142857,0.9285714285714286,0.0004
913,0.7432005852460861,1.2049976587295532,0.8076923076923077,0.9615384615384616,0.7857142857142857,0.9285714285714286,0.0004
914,0.49836626648902893,1.4149396419525146,0.8653846153846154,0.9807692307692307,0.8571428571428571,0.8571428571428571,0.0004
915,0.4502466320991516,1.0082160234451294,0.8846153846153846,0.9615384615384616,0.8571428571428571,0.9285714285714286,0.0004
916,0.41004277765750885,1.491861343383789,0.8846153846153846,0.9423076923076923,0.7142857142857143,0.8571428571428571,0.0004
917,0.4632284343242645,1.5343022346496582,0.8846153846153846,0.9230769230769231,0.7142857142857143,0.7857142857142857,0.0004
918,0.4896518290042877,1.4707560539245605,0.8846153846153846,0.9038461538461539,0.7142857142857143,0.8571428571428571,0.0004
919,0.41912615299224854,1.640233039855957,0.9038461538461539,0.9807692307692307,0.7857142857142857,0.7857142857142857,0.0004
920,0.5870564877986908,1.3517608642578125,0.8461538461538461,0.9423076923076923,0.5714285714285714,0.8571428571428571,0.0004
921,0.7199927270412445,1.8008183240890503,0.7307692307692307,0.9230769230769231,0.7857142857142857,0.8571428571428571,0.0004
922,0.8059357702732086,0.6167090535163879,0.7307692307692307,0.9423076923076923,0.7857142857142857,1.0,0.0004
923,0.5531396567821503,0.9911998510360718,0.8076923076923077,0.9615384615384616,0.7857142857142857,0.9285714285714286,0.0004
924,0.3038012981414795,0.9922242164611816,0.9038461538461539,1.0,0.7857142857142857,0.8571428571428571,0.0004
925,0.49607524275779724,1.2199649810791016,0.7884615384615384,1.0,0.7857142857142857,0.9285714285714286,0.0004
926,0.4095800444483757,1.5014853477478027,0.8461538461538461,0.9807692307692307,0.7857142857142857,0.8571428571428571,0.0004
927,0.26382314413785934,1.0802814960479736,0.9230769230769231,1.0,0.8571428571428571,0.9285714285714286,0.0004
928,0.5935611128807068,1.1750434637069702,0.8846153846153846,0.9807692307692307,0.8571428571428571,0.9285714285714286,0.0004
929,0.5386708080768585,1.2772531509399414,0.8269230769230769,0.9423076923076923,0.8571428571428571,0.8571428571428571,0.0004
930,0.40525513887405396,1.4703888893127441,0.8846153846153846,1.0,0.7142857142857143,0.8571428571428571,0.0004
931,0.5610630214214325,1.1038274765014648,0.8461538461538461,0.9615384615384616,0.7857142857142857,0.8571428571428571,0.0004
932,0.38727158308029175,0.724172830581665,0.8269230769230769,1.0,0.9285714285714286,0.9285714285714286,0.0004
933,0.42658890783786774,1.1711580753326416,0.9038461538461539,0.9423076923076923,0.8571428571428571,0.9285714285714286,0.0004
934,0.36541491001844406,0.8689948916435242,0.8653846153846154,0.9615384615384616,0.9285714285714286,0.9285714285714286,0.0004
935,0.3527511805295944,1.1808487176895142,0.8461538461538461,0.9807692307692307,0.6428571428571429,0.8571428571428571,0.0004
936,0.31790977716445923,1.8851078748703003,0.9230769230769231,0.9807692307692307,0.5714285714285714,0.7857142857142857,0.0004
937,0.5519258230924606,1.57426917552948,0.8653846153846154,0.9423076923076923,0.7142857142857143,0.8571428571428571,0.0004
938,0.7007158994674683,1.3061906099319458,0.8269230769230769,0.9038461538461539,0.8571428571428571,0.8571428571428571,0.0004
939,0.7840611636638641,0.9358769655227661,0.8076923076923077,0.9807692307692307,0.8571428571428571,0.9285714285714286,0.0004
940,0.6320545971393585,0.9926241636276245,0.75,1.0,0.7857142857142857,0.8571428571428571,0.0004
941,0.7197609543800354,0.9781335592269897,0.8461538461538461,0.9230769230769231,0.7142857142857143,0.8571428571428571,0.0004
942,0.6095039546489716,1.6795170307159424,0.8269230769230769,0.9615384615384616,0.7857142857142857,0.8571428571428571,0.0004
943,0.5654321610927582,1.3184689283370972,0.7884615384615384,0.9615384615384616,0.7142857142857143,0.8571428571428571,0.0004
944,0.6180543303489685,0.4778781533241272,0.7692307692307693,0.9807692307692307,0.8571428571428571,0.8571428571428571,0.0004
945,0.5130479633808136,1.2628564834594727,0.8461538461538461,0.9423076923076923,0.7857142857142857,0.8571428571428571,0.0004
946,0.37233591079711914,1.6669819355010986,0.8846153846153846,0.9807692307692307,0.5714285714285714,0.8571428571428571,0.0004
947,0.5146966576576233,1.9624018669128418,0.8076923076923077,0.9807692307692307,0.5,0.8571428571428571,0.0004
948,0.578741267323494,2.1052310466766357,0.8076923076923077,1.0,0.5714285714285714,0.7142857142857143,0.0004
949,0.69498410820961,0.9057281017303467,0.7884615384615384,0.9615384615384616,0.8571428571428571,0.8571428571428571,0.0004
950,0.34818726032972336,1.692116379737854,0.9038461538461539,0.9807692307692307,0.6428571428571429,0.8571428571428571,0.0004
951,0.7891483902931213,1.264778971672058,0.75,0.9423076923076923,0.8571428571428571,0.9285714285714286,0.0004
952,0.5751847326755524,1.4718739986419678,0.75,0.9807692307692307,0.7142857142857143,0.9285714285714286,0.0004
953,0.4904705733060837,1.5623388290405273,0.8076923076923077,0.9807692307692307,0.7857142857142857,0.8571428571428571,0.0004
954,0.4561334252357483,1.1446706056594849,0.8269230769230769,0.9807692307692307,0.6428571428571429,0.9285714285714286,0.0004
955,0.6105256974697113,1.1670756340026855,0.7692307692307693,0.9807692307692307,0.7857142857142857,0.9285714285714286,0.0004
956,0.39220720529556274,1.0746917724609375,0.9038461538461539,0.9615384615384616,0.6428571428571429,0.9285714285714286,0.0004
957,0.3874034881591797,1.301810383796692,0.8846153846153846,0.9807692307692307,0.9285714285714286,0.8571428571428571,0.0004
958,0.37629133462905884,1.2094225883483887,0.8653846153846154,1.0,0.7142857142857143,0.8571428571428571,0.0004
959,0.5752655565738678,1.2174932956695557,0.8461538461538461,0.9615384615384616,0.7857142857142857,0.8571428571428571,0.0004
960,0.48893770575523376,1.7606538534164429,0.8653846153846154,0.9615384615384616,0.5714285714285714,0.8571428571428571,0.0004
961,0.42439045011997223,1.1573526859283447,0.8653846153846154,0.9807692307692307,0.8571428571428571,0.8571428571428571,0.0004
962,0.44285812973976135,0.8458845615386963,0.8076923076923077,0.9615384615384616,0.8571428571428571,0.9285714285714286,0.0004
963,0.5461820065975189,0.9792526960372925,0.8269230769230769,0.9615384615384616,0.7857142857142857,0.9285714285714286,0.0004
964,0.5597589313983917,0.9319629669189453,0.8076923076923077,0.9615384615384616,0.7857142857142857,0.8571428571428571,0.0004
965,0.44543294608592987,1.1464428901672363,0.8846153846153846,0.9615384615384616,0.8571428571428571,0.9285714285714286,0.0004
966,0.5872191786766052,1.6073601245880127,0.8269230769230769,0.9807692307692307,0.6428571428571429,0.8571428571428571,0.0004
967,0.5275553613901138,1.234839916229248,0.8269230769230769,0.9807692307692307,0.7142857142857143,0.9285714285714286,0.0004
968,0.3866046369075775,2.0350098609924316,0.8461538461538461,0.9423076923076923,0.6428571428571429,0.7857142857142857,0.0004
969,0.5192420184612274,1.7246413230895996,0.7884615384615384,0.9807692307692307,0.6428571428571429,0.8571428571428571,0.0004
970,0.516745537519455,1.149049162864685,0.8269230769230769,0.9615384615384616,0.7857142857142857,0.9285714285714286,0.0004
971,0.44810135662555695,1.292630672454834,0.7692307692307693,1.0,0.6428571428571429,0.8571428571428571,0.0004
972,0.4955030083656311,2.282327651977539,0.8461538461538461,0.9807692307692307,0.6428571428571429,0.8571428571428571,0.0004
973,0.3957308530807495,1.1856632232666016,0.8461538461538461,1.0,0.7857142857142857,0.8571428571428571,0.0004
974,0.5067826956510544,1.345145583152771,0.8461538461538461,0.9615384615384616,0.7142857142857143,0.9285714285714286,0.0004
975,0.4779804199934006,1.953613042831421,0.8269230769230769,1.0,0.6428571428571429,0.8571428571428571,0.0004
976,0.340517520904541,0.7086135745048523,0.9038461538461539,0.9807692307692307,0.8571428571428571,0.9285714285714286,0.0004
977,0.3688448742032051,0.9461451172828674,0.8846153846153846,0.9807692307692307,0.8571428571428571,0.9285714285714286,0.0004
978,0.40568403899669647,1.7799901962280273,0.8653846153846154,0.9615384615384616,0.5,0.7857142857142857,0.0004
979,0.4916377365589142,0.8978812098503113,0.8076923076923077,0.9807692307692307,0.8571428571428571,0.9285714285714286,0.0004
980,0.39946146309375763,1.0149755477905273,0.8846153846153846,1.0,0.7142857142857143,0.9285714285714286,0.0004
981,0.4996073991060257,2.2745327949523926,0.8269230769230769,0.9230769230769231,0.6428571428571429,0.7857142857142857,0.0004
982,0.4968373775482178,1.1168975830078125,0.8461538461538461,0.9615384615384616,0.7857142857142857,0.9285714285714286,0.0004
983,0.49554209411144257,1.0912526845932007,0.8846153846153846,0.9807692307692307,0.7142857142857143,0.9285714285714286,0.0004
984,0.9766620993614197,1.7840690612792969,0.7115384615384616,0.9423076923076923,0.6428571428571429,0.7857142857142857,0.0004
985,0.5057582259178162,1.7299933433532715,0.8846153846153846,0.9807692307692307,0.7857142857142857,0.8571428571428571,0.0004
986,0.259631022810936,1.2610399723052979,0.9423076923076923,1.0,0.8571428571428571,0.7857142857142857,0.0004
987,0.7148438692092896,1.735778570175171,0.8076923076923077,0.9230769230769231,0.7857142857142857,0.8571428571428571,0.0004
988,0.4013025015592575,1.6721969842910767,0.8076923076923077,0.9807692307692307,0.7857142857142857,0.8571428571428571,0.0004
989,0.45196232199668884,1.0911831855773926,0.8653846153846154,0.9807692307692307,0.7857142857142857,0.8571428571428571,0.0004
990,0.48028358817100525,0.7014776468276978,0.8461538461538461,0.9615384615384616,0.7857142857142857,0.9285714285714286,0.0004
991,0.5620820969343185,1.1347105503082275,0.8846153846153846,0.9807692307692307,0.8571428571428571,0.8571428571428571,0.0004
992,0.42871731519699097,1.249558448791504,0.8653846153846154,1.0,0.7857142857142857,0.8571428571428571,0.0004
993,0.4012422561645508,1.4190939664840698,0.8653846153846154,0.9807692307692307,0.8571428571428571,0.9285714285714286,0.0004
994,0.4263104200363159,1.0237046480178833,0.8461538461538461,1.0,0.7857142857142857,0.8571428571428571,0.0004
995,0.4622647762298584,1.493783712387085,0.8461538461538461,0.9807692307692307,0.7142857142857143,0.8571428571428571,0.0004
996,0.38564978539943695,0.6991400718688965,0.8846153846153846,0.9807692307692307,0.9285714285714286,0.9285714285714286,0.0004
