epoch,train_loss,val_loss,train_acc_action,train_acc_status,val_acc_action,val_acc_status,learning_rate
1,1.7198307514190674,1.545667290687561,0.34615384615384615,0.7307692307692307,0.2857142857142857,0.8571428571428571,0.0004
2,1.5860767364501953,1.4326480627059937,0.4230769230769231,0.8269230769230769,0.35714285714285715,0.8571428571428571,0.0004
3,1.585089385509491,1.5425505638122559,0.38461538461538464,0.8269230769230769,0.2857142857142857,0.8571428571428571,0.0004
4,1.5422189235687256,1.5101864337921143,0.40384615384615385,0.8269230769230769,0.21428571428571427,0.8571428571428571,0.0004
5,1.491037368774414,1.5224919319152832,0.36538461538461536,0.8269230769230769,0.21428571428571427,0.8571428571428571,0.0004
6,1.529035210609436,1.5344374179840088,0.40384615384615385,0.8269230769230769,0.35714285714285715,0.8571428571428571,0.0004
7,1.5368648767471313,1.554631233215332,0.4423076923076923,0.8269230769230769,0.2857142857142857,0.8571428571428571,0.0004
8,1.4421616792678833,1.3945324420928955,0.6153846153846154,0.8269230769230769,0.5714285714285714,0.8571428571428571,0.0004
9,1.5427983403205872,1.4485543966293335,0.4230769230769231,0.8269230769230769,0.35714285714285715,0.8571428571428571,0.0004
10,1.4548922181129456,1.5164793729782104,0.4807692307692308,0.8269230769230769,0.35714285714285715,0.8571428571428571,0.0004
11,1.3772196173667908,1.4217438697814941,0.5192307692307693,0.8269230769230769,0.5,0.8571428571428571,0.0004
12,1.3794413208961487,1.5054682493209839,0.46153846153846156,0.8269230769230769,0.35714285714285715,0.8571428571428571,0.0004
13,1.3163619637489319,1.449721336364746,0.5769230769230769,0.8269230769230769,0.35714285714285715,0.8571428571428571,0.0004
14,1.30050528049469,1.2637264728546143,0.6153846153846154,0.8269230769230769,0.5,0.8571428571428571,0.0004
15,1.4158784747123718,1.4839996099472046,0.5961538461538461,0.8269230769230769,0.42857142857142855,0.8571428571428571,0.0004
16,1.3437116146087646,1.2515913248062134,0.5192307692307693,0.8269230769230769,0.6428571428571429,0.8571428571428571,0.0004
17,1.3016039729118347,1.5316201448440552,0.5,0.8269230769230769,0.5,0.8571428571428571,0.0004
18,1.1348245739936829,1.1247081756591797,0.6923076923076923,0.8269230769230769,0.5714285714285714,0.8571428571428571,0.0004
19,1.232185959815979,1.3147857189178467,0.6153846153846154,0.8269230769230769,0.5,0.8571428571428571,0.0004
20,1.1240190267562866,1.2518160343170166,0.6346153846153846,0.8269230769230769,0.5714285714285714,0.8571428571428571,0.0004
21,0.983830988407135,1.3754769563674927,0.6538461538461539,0.8269230769230769,0.42857142857142855,0.8571428571428571,0.0004
22,1.0232105255126953,1.4586167335510254,0.7115384615384616,0.8269230769230769,0.35714285714285715,0.8571428571428571,0.0004
23,1.1019505262374878,1.3908947706222534,0.5961538461538461,0.8653846153846154,0.6428571428571429,0.8571428571428571,0.0004
24,1.131542682647705,0.9997385144233704,0.5961538461538461,0.8653846153846154,0.6428571428571429,0.9285714285714286,0.0004
25,1.0944619178771973,1.030991554260254,0.6346153846153846,0.8846153846153846,0.6428571428571429,0.8571428571428571,0.0004
26,1.085895836353302,1.2391455173492432,0.6346153846153846,0.9615384615384616,0.6428571428571429,0.8571428571428571,0.0004
27,1.100898563861847,1.3982138633728027,0.5961538461538461,0.9230769230769231,0.6428571428571429,0.7857142857142857,0.0004
28,1.1040562391281128,0.8395736813545227,0.6153846153846154,0.9230769230769231,0.8571428571428571,0.8571428571428571,0.0004
29,0.931201308965683,1.0441968441009521,0.6730769230769231,0.9615384615384616,0.7142857142857143,0.8571428571428571,0.0004
30,0.9899415969848633,1.1310476064682007,0.6153846153846154,0.9230769230769231,0.5714285714285714,0.7857142857142857,0.0004
31,1.1649112403392792,1.4116740226745605,0.5961538461538461,0.8846153846153846,0.6428571428571429,0.7857142857142857,0.0004
32,0.9926030337810516,0.8982182741165161,0.6923076923076923,0.9423076923076923,0.7857142857142857,0.8571428571428571,0.0004
33,0.9359202980995178,1.0656890869140625,0.7115384615384616,0.9807692307692307,0.6428571428571429,0.8571428571428571,0.0004
34,0.9798453748226166,1.366827368736267,0.6538461538461539,0.9615384615384616,0.6428571428571429,0.7857142857142857,0.0004
35,0.9833734929561615,1.2114198207855225,0.5769230769230769,0.9423076923076923,0.5714285714285714,0.8571428571428571,0.0004
36,0.9733943343162537,1.2841070890426636,0.6538461538461539,0.9423076923076923,0.7142857142857143,0.8571428571428571,0.0004
37,1.028767168521881,1.5262089967727661,0.6923076923076923,0.9230769230769231,0.5,0.7857142857142857,0.0004
38,0.8690884411334991,1.1796834468841553,0.6730769230769231,1.0,0.7142857142857143,0.8571428571428571,0.0004
39,0.9369705617427826,1.603812575340271,0.6730769230769231,0.9423076923076923,0.5,0.8571428571428571,0.0004
40,0.8428482711315155,1.3001971244812012,0.6923076923076923,0.9615384615384616,0.5,0.8571428571428571,0.0004
41,0.9049935042858124,1.2046027183532715,0.6538461538461539,0.9615384615384616,0.7142857142857143,0.8571428571428571,0.0004
42,0.9959503710269928,0.8283791542053223,0.5192307692307693,0.9615384615384616,0.8571428571428571,0.8571428571428571,0.0004
43,0.8024768829345703,0.7136261463165283,0.6923076923076923,0.9615384615384616,0.8571428571428571,0.9285714285714286,0.0004
44,0.948637992143631,1.0884897708892822,0.6923076923076923,0.9615384615384616,0.8571428571428571,0.8571428571428571,0.0004
45,0.8467430472373962,1.6778432130813599,0.7307692307692307,0.9230769230769231,0.5,0.7857142857142857,0.0004
46,0.7779102921485901,0.9257790446281433,0.75,0.9615384615384616,0.7142857142857143,0.9285714285714286,0.0004
47,0.9074737429618835,1.00673246383667,0.6923076923076923,0.9615384615384616,0.7857142857142857,0.9285714285714286,0.0004
48,0.9144023656845093,1.0060006380081177,0.7307692307692307,0.9230769230769231,0.7142857142857143,0.9285714285714286,0.0004
49,0.8215307593345642,1.708214282989502,0.6730769230769231,0.9615384615384616,0.5714285714285714,0.7857142857142857,0.0004
50,0.8473348915576935,1.8100266456604004,0.7115384615384616,0.9615384615384616,0.6428571428571429,0.7142857142857143,0.0004
51,0.9040115177631378,0.9781148433685303,0.6923076923076923,0.9615384615384616,0.5714285714285714,0.9285714285714286,4e-05
52,0.9963760673999786,0.9244132041931152,0.6346153846153846,0.9423076923076923,0.7857142857142857,0.9285714285714286,4e-05
53,0.9143064618110657,1.5643807649612427,0.6538461538461539,0.9423076923076923,0.5,0.7857142857142857,4e-05
54,0.9348842203617096,1.0683374404907227,0.6538461538461539,0.9423076923076923,0.7142857142857143,0.8571428571428571,4e-05
55,0.8042729496955872,1.1536668539047241,0.7884615384615384,0.9423076923076923,0.6428571428571429,0.8571428571428571,4e-05
56,0.808076947927475,1.0866702795028687,0.75,0.9615384615384616,0.6428571428571429,0.9285714285714286,4e-05
57,0.8287460207939148,1.0730085372924805,0.6730769230769231,0.9807692307692307,0.7142857142857143,0.9285714285714286,4e-05
58,0.9853036999702454,1.470900535583496,0.5576923076923077,0.9615384615384616,0.5,0.8571428571428571,4e-05
59,0.6919483244419098,1.3347935676574707,0.8846153846153846,0.9807692307692307,0.7142857142857143,0.8571428571428571,4e-05
60,0.913098931312561,1.1795285940170288,0.6538461538461539,0.9807692307692307,0.6428571428571429,0.8571428571428571,4e-05
61,0.7187823355197906,1.2938599586486816,0.7307692307692307,0.9615384615384616,0.5,0.8571428571428571,4e-05
62,0.8312146961688995,1.3477321863174438,0.6346153846153846,0.9807692307692307,0.5714285714285714,0.8571428571428571,4e-05
63,1.0543732047080994,1.4332894086837769,0.6538461538461539,0.9423076923076923,0.5,0.8571428571428571,4e-05
64,0.9105310440063477,1.0739398002624512,0.7115384615384616,0.9615384615384616,0.5714285714285714,0.9285714285714286,4e-05
65,0.9550682902336121,1.6550877094268799,0.6346153846153846,0.9615384615384616,0.5714285714285714,0.8571428571428571,4e-05
66,1.2086716294288635,1.3561019897460938,0.5961538461538461,0.9423076923076923,0.5714285714285714,0.8571428571428571,4e-05
67,0.9226212799549103,0.9467718005180359,0.6923076923076923,0.9615384615384616,0.5714285714285714,0.9285714285714286,4e-05
68,0.9179902672767639,1.3115204572677612,0.7692307692307693,0.9230769230769231,0.6428571428571429,0.8571428571428571,4e-05
69,0.9452232122421265,1.4190030097961426,0.7307692307692307,0.9423076923076923,0.6428571428571429,0.7142857142857143,4e-05
70,0.8919733166694641,1.2285478115081787,0.6346153846153846,0.9615384615384616,0.7142857142857143,0.8571428571428571,4e-05
71,0.9221756160259247,1.1208759546279907,0.6730769230769231,0.9423076923076923,0.6428571428571429,0.9285714285714286,4e-05
72,0.7918592989444733,1.2102530002593994,0.7307692307692307,0.9807692307692307,0.7857142857142857,0.7857142857142857,4e-05
73,0.7823295593261719,1.2881627082824707,0.7115384615384616,1.0,0.7857142857142857,0.8571428571428571,4e-05
74,0.7862862944602966,0.8797305226325989,0.7307692307692307,0.9423076923076923,0.7857142857142857,0.9285714285714286,4e-05
75,0.7120951116085052,0.831146240234375,0.7115384615384616,0.9807692307692307,0.7142857142857143,0.9285714285714286,4e-05
76,0.726809948682785,0.7947638034820557,0.8269230769230769,0.9807692307692307,0.8571428571428571,0.9285714285714286,4e-05
77,0.6605185866355896,0.7069008350372314,0.7884615384615384,0.9615384615384616,0.8571428571428571,0.9285714285714286,4e-05
78,0.8498695492744446,0.8072541356086731,0.75,0.9807692307692307,0.8571428571428571,0.9285714285714286,4e-05
79,0.7908064126968384,1.2940195798873901,0.75,0.9807692307692307,0.7142857142857143,0.8571428571428571,4e-05
80,0.830314427614212,0.9936294555664062,0.6923076923076923,0.9615384615384616,0.7142857142857143,0.9285714285714286,4e-05
81,0.7854594588279724,0.7781132459640503,0.75,0.9807692307692307,0.9285714285714286,0.9285714285714286,4e-05
82,0.8381870090961456,0.9452157020568848,0.7307692307692307,0.9807692307692307,0.7142857142857143,0.9285714285714286,4e-05
83,0.9465256333351135,1.3700720071792603,0.6923076923076923,0.9230769230769231,0.7142857142857143,0.8571428571428571,4e-05
84,0.8757435083389282,1.222283124923706,0.75,0.9615384615384616,0.7857142857142857,0.8571428571428571,4e-05
85,0.7859054207801819,1.4412134885787964,0.6346153846153846,1.0,0.7142857142857143,0.8571428571428571,4e-05
86,0.8344005942344666,1.0110499858856201,0.6923076923076923,0.9615384615384616,0.8571428571428571,0.8571428571428571,4e-05
87,0.9617010951042175,1.0083775520324707,0.6730769230769231,0.9230769230769231,0.7857142857142857,0.8571428571428571,4e-05
88,0.7029200792312622,1.2438244819641113,0.7307692307692307,1.0,0.5714285714285714,0.8571428571428571,4e-05
89,0.8528263568878174,1.3296194076538086,0.6538461538461539,0.9615384615384616,0.5714285714285714,0.9285714285714286,4e-05
90,0.9153827130794525,1.2305045127868652,0.6153846153846154,0.9423076923076923,0.5714285714285714,0.8571428571428571,4e-05
91,0.8652540743350983,0.9443351030349731,0.75,0.9615384615384616,0.7142857142857143,0.9285714285714286,4e-05
92,0.7378136515617371,1.3490241765975952,0.75,1.0,0.6428571428571429,0.8571428571428571,4e-05
93,0.7355144321918488,0.8375324010848999,0.8076923076923077,0.9615384615384616,0.8571428571428571,0.9285714285714286,4e-05
94,0.8042678833007812,1.1207516193389893,0.75,0.9615384615384616,0.6428571428571429,0.9285714285714286,4e-05
95,0.8456160128116608,1.1846860647201538,0.7307692307692307,0.9615384615384616,0.7857142857142857,0.8571428571428571,4e-05
96,0.7976822257041931,0.9241738319396973,0.7307692307692307,0.9615384615384616,0.7857142857142857,0.9285714285714286,4e-05
97,0.7369569540023804,1.7554676532745361,0.8076923076923077,0.9615384615384616,0.35714285714285715,0.7857142857142857,4e-05
98,0.8142547011375427,0.7911407947540283,0.6730769230769231,0.9615384615384616,0.9285714285714286,0.9285714285714286,4e-05
99,0.7774637639522552,1.7899494171142578,0.7307692307692307,0.9423076923076923,0.6428571428571429,0.7857142857142857,4e-05
100,0.7724652886390686,1.8584575653076172,0.6730769230769231,0.9807692307692307,0.6428571428571429,0.7857142857142857,4e-05
101,0.6435479819774628,0.6172796487808228,0.75,1.0,0.9285714285714286,0.9285714285714286,4.000000000000001e-06
102,0.8425474464893341,2.1277222633361816,0.7115384615384616,0.9615384615384616,0.35714285714285715,0.7857142857142857,4.000000000000001e-06
103,1.1738641858100891,0.9955352544784546,0.7115384615384616,0.9038461538461539,0.7142857142857143,0.9285714285714286,4.000000000000001e-06
104,0.7773558497428894,1.3760268688201904,0.7692307692307693,0.9423076923076923,0.5,0.8571428571428571,4.000000000000001e-06
105,0.6875467300415039,0.901482105255127,0.7307692307692307,1.0,0.7142857142857143,0.9285714285714286,4.000000000000001e-06
106,0.7837492525577545,1.5036194324493408,0.7115384615384616,0.9807692307692307,0.7142857142857143,0.7857142857142857,4.000000000000001e-06
107,0.72207972407341,0.7848232984542847,0.7115384615384616,0.9807692307692307,0.7857142857142857,0.9285714285714286,4.000000000000001e-06
108,0.9266799688339233,1.4982330799102783,0.75,0.9615384615384616,0.7142857142857143,0.8571428571428571,4.000000000000001e-06
109,0.7428399920463562,0.8749035596847534,0.6538461538461539,1.0,0.7142857142857143,0.9285714285714286,4.000000000000001e-06
110,0.6334124803543091,1.0812010765075684,0.8076923076923077,0.9807692307692307,0.7857142857142857,0.8571428571428571,4.000000000000001e-06
111,0.6565413773059845,0.9655647277832031,0.75,0.9807692307692307,0.6428571428571429,0.9285714285714286,4.000000000000001e-06
112,0.651449054479599,0.8120805621147156,0.75,1.0,0.7142857142857143,0.9285714285714286,4.000000000000001e-06
113,0.6961219608783722,1.6673246622085571,0.7115384615384616,1.0,0.5714285714285714,0.7857142857142857,4.000000000000001e-06
114,0.9949342310428619,1.1282715797424316,0.6730769230769231,0.9230769230769231,0.7142857142857143,0.8571428571428571,4.000000000000001e-06
115,0.8053021430969238,1.376929759979248,0.75,0.9615384615384616,0.6428571428571429,0.7857142857142857,4.000000000000001e-06
116,0.8037111461162567,0.948090672492981,0.7307692307692307,0.9807692307692307,0.7142857142857143,0.9285714285714286,4.000000000000001e-06
117,0.7044646739959717,0.90028977394104,0.7307692307692307,0.9807692307692307,0.7857142857142857,0.9285714285714286,4.000000000000001e-06
118,0.6455660760402679,0.7269642949104309,0.75,1.0,0.9285714285714286,0.9285714285714286,4.000000000000001e-06
119,1.036189615726471,1.409835934638977,0.7307692307692307,0.9423076923076923,0.5714285714285714,0.8571428571428571,4.000000000000001e-06
120,0.8631320893764496,0.9157235622406006,0.6730769230769231,0.9807692307692307,0.8571428571428571,0.9285714285714286,4.000000000000001e-06
121,0.8042001724243164,1.5329235792160034,0.7115384615384616,0.9615384615384616,0.5714285714285714,0.7857142857142857,4.000000000000001e-06
122,0.776419460773468,1.3931773900985718,0.7307692307692307,0.9615384615384616,0.6428571428571429,0.8571428571428571,4.000000000000001e-06
123,0.8247684240341187,0.8134750127792358,0.7307692307692307,0.9615384615384616,0.7857142857142857,0.9285714285714286,4.000000000000001e-06
124,0.6348892748355865,0.9489350318908691,0.7884615384615384,1.0,0.8571428571428571,0.9285714285714286,4.000000000000001e-06
125,0.9423956573009491,0.9237106442451477,0.7115384615384616,0.9423076923076923,0.7142857142857143,0.9285714285714286,4.000000000000001e-06
126,0.7935611605644226,1.4869844913482666,0.75,0.9230769230769231,0.6428571428571429,0.7857142857142857,4.000000000000001e-06
127,0.8756816387176514,1.1187381744384766,0.7692307692307693,0.9423076923076923,0.7142857142857143,0.8571428571428571,4.000000000000001e-06
128,0.8930139541625977,1.456291675567627,0.6923076923076923,0.9038461538461539,0.7142857142857143,0.8571428571428571,4.000000000000001e-06
129,0.7886729836463928,2.040100574493408,0.7115384615384616,0.9615384615384616,0.5714285714285714,0.7142857142857143,4.000000000000001e-06
130,1.0113317668437958,0.8800011873245239,0.5961538461538461,0.9615384615384616,0.7857142857142857,0.9285714285714286,4.000000000000001e-06
131,0.6400272250175476,1.5846725702285767,0.7692307692307693,1.0,0.5714285714285714,0.8571428571428571,4.000000000000001e-06
132,0.7793588638305664,1.2171229124069214,0.6730769230769231,0.9615384615384616,0.7142857142857143,0.8571428571428571,4.000000000000001e-06
133,0.7541644275188446,1.3228392601013184,0.6730769230769231,1.0,0.7142857142857143,0.8571428571428571,4.000000000000001e-06
134,0.7953956127166748,1.228657603263855,0.6923076923076923,0.9423076923076923,0.5714285714285714,0.9285714285714286,4.000000000000001e-06
135,0.8468055129051208,1.6204307079315186,0.75,0.9807692307692307,0.5,0.8571428571428571,4.000000000000001e-06
136,0.8586745858192444,1.057260513305664,0.7115384615384616,0.9807692307692307,0.5714285714285714,0.7857142857142857,4.000000000000001e-06
137,0.7813389599323273,1.3750183582305908,0.7115384615384616,0.9807692307692307,0.6428571428571429,0.7857142857142857,4.000000000000001e-06
138,0.8296331763267517,0.7868270874023438,0.6923076923076923,0.9615384615384616,0.8571428571428571,0.9285714285714286,4.000000000000001e-06
139,0.7635686099529266,1.6124286651611328,0.8076923076923077,0.9615384615384616,0.6428571428571429,0.7857142857142857,4.000000000000001e-06
140,0.6717790961265564,1.1248674392700195,0.7884615384615384,0.9615384615384616,0.8571428571428571,0.7142857142857143,4.000000000000001e-06
141,0.6991839110851288,1.0846035480499268,0.8076923076923077,0.9615384615384616,0.7857142857142857,0.8571428571428571,4.000000000000001e-06
142,1.0144772827625275,1.2804834842681885,0.7115384615384616,0.9230769230769231,0.5,0.8571428571428571,4.000000000000001e-06
143,0.7957793474197388,1.7710998058319092,0.8076923076923077,0.9230769230769231,0.6428571428571429,0.8571428571428571,4.000000000000001e-06
144,0.927354097366333,1.1378271579742432,0.6538461538461539,0.9423076923076923,0.7857142857142857,0.8571428571428571,4.000000000000001e-06
145,0.5709417015314102,0.7395504713058472,0.7884615384615384,0.9807692307692307,0.7857142857142857,0.9285714285714286,4.000000000000001e-06
146,0.7480299174785614,0.8017370700836182,0.7692307692307693,0.9615384615384616,0.7142857142857143,0.9285714285714286,4.000000000000001e-06
147,0.7608897984027863,1.2944414615631104,0.7884615384615384,0.9615384615384616,0.6428571428571429,0.8571428571428571,4.000000000000001e-06
148,0.9896029531955719,1.5241267681121826,0.6538461538461539,0.9230769230769231,0.5714285714285714,0.8571428571428571,4.000000000000001e-06
149,0.7529356479644775,1.265025019645691,0.7692307692307693,0.9423076923076923,0.7142857142857143,0.7857142857142857,4.000000000000001e-06
150,0.7198542058467865,0.8811537027359009,0.7692307692307693,0.9615384615384616,0.8571428571428571,0.9285714285714286,4.000000000000001e-06
151,0.7691604495048523,1.2134000062942505,0.75,0.9807692307692307,0.7142857142857143,0.9285714285714286,4.000000000000001e-07
