epoch,train_loss,val_loss,train_acc_action,train_acc_status,val_acc_action,val_acc_status,learning_rate
1,1.6756535172462463,1.649482011795044,0.34615384615384615,0.8269230769230769,0.21428571428571427,0.8571428571428571,0.0004
2,1.592981994152069,1.6073009967803955,0.36538461538461536,0.8269230769230769,0.21428571428571427,0.8571428571428571,0.0004
3,1.55205637216568,1.5331664085388184,0.36538461538461536,0.8269230769230769,0.21428571428571427,0.8571428571428571,0.0004
4,1.5477307438850403,1.5134711265563965,0.38461538461538464,0.8269230769230769,0.2857142857142857,0.8571428571428571,0.0004
5,1.5479770302772522,1.503726840019226,0.3076923076923077,0.8269230769230769,0.42857142857142855,0.8571428571428571,0.0004
6,1.5656139850616455,1.5204637050628662,0.34615384615384615,0.8269230769230769,0.21428571428571427,0.8571428571428571,0.0004
7,1.5723378658294678,1.5458728075027466,0.3076923076923077,0.8269230769230769,0.21428571428571427,0.8571428571428571,0.0004
8,1.5544784665107727,1.5569398403167725,0.36538461538461536,0.8269230769230769,0.21428571428571427,0.8571428571428571,0.0004
9,1.5827426314353943,1.5588070154190063,0.36538461538461536,0.8269230769230769,0.21428571428571427,0.8571428571428571,0.0004
10,1.5844035148620605,1.5360682010650635,0.36538461538461536,0.8269230769230769,0.21428571428571427,0.8571428571428571,0.0004
11,1.5651475191116333,1.518440842628479,0.38461538461538464,0.8269230769230769,0.2857142857142857,0.8571428571428571,0.0004
12,1.548743188381195,1.4967347383499146,0.23076923076923078,0.8269230769230769,0.35714285714285715,0.8571428571428571,0.0004
13,1.5344368815422058,1.5066490173339844,0.3269230769230769,0.8269230769230769,0.35714285714285715,0.8571428571428571,0.0004
14,1.5409599542617798,1.5149341821670532,0.38461538461538464,0.8269230769230769,0.2857142857142857,0.8571428571428571,0.0004
15,1.567402720451355,1.523668646812439,0.2692307692307692,0.8269230769230769,0.2857142857142857,0.8571428571428571,0.0004
16,1.5460973381996155,1.5455275774002075,0.38461538461538464,0.8269230769230769,0.21428571428571427,0.8571428571428571,0.0004
17,1.5187026858329773,1.5691606998443604,0.40384615384615385,0.8269230769230769,0.21428571428571427,0.8571428571428571,0.0004
18,1.5459359288215637,1.5782222747802734,0.36538461538461536,0.8269230769230769,0.21428571428571427,0.8571428571428571,0.0004
19,1.5465742349624634,1.5944229364395142,0.36538461538461536,0.8269230769230769,0.21428571428571427,0.8571428571428571,0.0004
20,1.5662655234336853,1.5773173570632935,0.36538461538461536,0.8269230769230769,0.21428571428571427,0.8571428571428571,0.0004
21,1.5755783319473267,1.5649343729019165,0.36538461538461536,0.8269230769230769,0.21428571428571427,0.8571428571428571,0.0004
22,1.5411138534545898,1.5231294631958008,0.36538461538461536,0.8269230769230769,0.21428571428571427,0.8571428571428571,0.0004
23,1.53188157081604,1.5162293910980225,0.46153846153846156,0.8269230769230769,0.5714285714285714,0.8571428571428571,0.0004
24,1.5495362281799316,1.505615472793579,0.4423076923076923,0.8269230769230769,0.42857142857142855,0.8571428571428571,0.0004
25,1.5511274337768555,1.4869742393493652,0.34615384615384615,0.8269230769230769,0.35714285714285715,0.8571428571428571,0.0004
26,1.590681791305542,1.4996620416641235,0.3076923076923077,0.8269230769230769,0.42857142857142855,0.8571428571428571,0.0004
27,1.5578540563583374,1.5081236362457275,0.3076923076923077,0.8269230769230769,0.35714285714285715,0.8571428571428571,0.0004
28,1.5418583154678345,1.518174648284912,0.28846153846153844,0.8269230769230769,0.35714285714285715,0.8571428571428571,0.0004
29,1.5466704368591309,1.5341289043426514,0.38461538461538464,0.8269230769230769,0.42857142857142855,0.8571428571428571,0.0004
30,1.567773699760437,1.5430240631103516,0.5384615384615384,0.8269230769230769,0.2857142857142857,0.8571428571428571,0.0004
31,1.5773622393608093,1.5299276113510132,0.4230769230769231,0.8269230769230769,0.2857142857142857,0.8571428571428571,0.0004
32,1.542486310005188,1.528817892074585,0.5961538461538461,0.8269230769230769,0.2857142857142857,0.8571428571428571,0.0004
33,1.5402592420578003,1.5205614566802979,0.40384615384615385,0.8269230769230769,0.35714285714285715,0.8571428571428571,0.0004
34,1.5850030183792114,1.492246389389038,0.40384615384615385,0.8269230769230769,0.42857142857142855,0.8571428571428571,0.0004
35,1.5050705075263977,1.5111949443817139,0.5,0.8269230769230769,0.2857142857142857,0.8571428571428571,0.0004
36,1.5454716682434082,1.4462816715240479,0.4423076923076923,0.8269230769230769,0.5714285714285714,0.8571428571428571,0.0004
37,1.5196110010147095,1.5465457439422607,0.5,0.8269230769230769,0.35714285714285715,0.8571428571428571,0.0004
38,1.4926444292068481,1.5279985666275024,0.5192307692307693,0.8269230769230769,0.5,0.8571428571428571,0.0004
39,1.509429931640625,1.52267587184906,0.5,0.8269230769230769,0.35714285714285715,0.8571428571428571,0.0004
40,1.468231201171875,1.4324218034744263,0.5576923076923077,0.8269230769230769,0.5,0.8571428571428571,0.0004
41,1.4377769231796265,1.5144929885864258,0.5384615384615384,0.8269230769230769,0.35714285714285715,0.8571428571428571,0.0004
42,1.4882193803787231,1.388345718383789,0.46153846153846156,0.8269230769230769,0.42857142857142855,0.8571428571428571,0.0004
43,1.3990880250930786,1.449809193611145,0.5384615384615384,0.8269230769230769,0.5,0.8571428571428571,0.0004
44,1.438151776790619,1.4669551849365234,0.4807692307692308,0.8269230769230769,0.5,0.8571428571428571,0.0004
45,1.4345969557762146,1.5191823244094849,0.4807692307692308,0.8269230769230769,0.5714285714285714,0.8571428571428571,0.0004
46,1.513887643814087,1.4661438465118408,0.4807692307692308,0.8269230769230769,0.5,0.8571428571428571,0.0004
47,1.5470091700553894,1.4747718572616577,0.38461538461538464,0.8269230769230769,0.5714285714285714,0.8571428571428571,0.0004
48,1.4234268069267273,1.4089275598526,0.4807692307692308,0.8269230769230769,0.5714285714285714,0.8571428571428571,0.0004
49,1.4173478484153748,1.4135295152664185,0.5576923076923077,0.8269230769230769,0.2857142857142857,0.8571428571428571,0.0004
50,1.3801721334457397,1.4013562202453613,0.5192307692307693,0.8269230769230769,0.5,0.8571428571428571,0.0004
51,1.416275441646576,1.5449225902557373,0.5769230769230769,0.8269230769230769,0.35714285714285715,0.8571428571428571,0.0004
52,1.4434335231781006,1.5602234601974487,0.5769230769230769,0.8269230769230769,0.42857142857142855,0.8571428571428571,0.0004
53,1.3250645995140076,1.535550832748413,0.5384615384615384,0.8269230769230769,0.35714285714285715,0.8571428571428571,0.0004
54,1.435361385345459,1.6750943660736084,0.5384615384615384,0.8269230769230769,0.35714285714285715,0.8571428571428571,0.0004
55,1.409720242023468,1.6134048700332642,0.5961538461538461,0.8269230769230769,0.35714285714285715,0.8571428571428571,0.0004
56,1.3994126319885254,1.4982855319976807,0.5192307692307693,0.8269230769230769,0.5,0.8571428571428571,0.0004
57,1.4396507143974304,1.467132568359375,0.46153846153846156,0.8269230769230769,0.35714285714285715,0.8571428571428571,0.0004
58,1.3416077494621277,1.3161485195159912,0.5384615384615384,0.8269230769230769,0.35714285714285715,0.8571428571428571,0.0004
59,1.3407803177833557,1.4083878993988037,0.5961538461538461,0.8269230769230769,0.5,0.8571428571428571,0.0004
60,1.307331621646881,1.2823646068572998,0.5192307692307693,0.8269230769230769,0.5714285714285714,0.8571428571428571,0.0004
61,1.365458905696869,1.564732551574707,0.5961538461538461,0.8269230769230769,0.2857142857142857,0.8571428571428571,0.0004
62,1.3553820252418518,1.5513724088668823,0.5769230769230769,0.8269230769230769,0.35714285714285715,0.8571428571428571,0.0004
63,1.2703617215156555,1.3005174398422241,0.5769230769230769,0.8269230769230769,0.5,0.8571428571428571,0.0004
64,1.2747933864593506,1.4541116952896118,0.5576923076923077,0.8269230769230769,0.42857142857142855,0.8571428571428571,0.0004
65,1.3879896402359009,1.4852063655853271,0.4807692307692308,0.8269230769230769,0.35714285714285715,0.8571428571428571,0.0004
66,1.3876199126243591,1.3600594997406006,0.5,0.8269230769230769,0.5,0.8571428571428571,0.0004
67,1.3858091831207275,1.3976502418518066,0.5192307692307693,0.8269230769230769,0.5,0.8571428571428571,0.0004
68,1.362991213798523,1.3590071201324463,0.5,0.8269230769230769,0.6428571428571429,0.8571428571428571,0.0004
69,1.3985581994056702,1.3345355987548828,0.46153846153846156,0.8269230769230769,0.5,0.8571428571428571,0.0004
70,1.3286787867546082,1.500274658203125,0.4807692307692308,0.8269230769230769,0.42857142857142855,0.8571428571428571,0.0004
71,1.356798529624939,1.3251423835754395,0.5384615384615384,0.8269230769230769,0.42857142857142855,0.8571428571428571,0.0004
72,1.3836877942085266,1.2350226640701294,0.5384615384615384,0.8269230769230769,0.6428571428571429,0.8571428571428571,0.0004
73,1.255555510520935,1.3265299797058105,0.5769230769230769,0.8269230769230769,0.42857142857142855,0.8571428571428571,0.0004
74,1.3678122162818909,1.4495112895965576,0.4807692307692308,0.8269230769230769,0.21428571428571427,0.8571428571428571,0.0004
75,1.432892918586731,1.3360694646835327,0.5769230769230769,0.8269230769230769,0.6428571428571429,0.8571428571428571,0.0004
76,1.291815996170044,1.559605360031128,0.5576923076923077,0.8269230769230769,0.35714285714285715,0.8571428571428571,0.0004
77,1.372477948665619,1.3818445205688477,0.5384615384615384,0.8269230769230769,0.35714285714285715,0.8571428571428571,0.0004
78,1.3261184692382812,1.4385361671447754,0.6153846153846154,0.8269230769230769,0.5,0.8571428571428571,0.0004
79,1.383054256439209,1.4568395614624023,0.5576923076923077,0.8269230769230769,0.35714285714285715,0.8571428571428571,0.0004
80,1.2692366242408752,1.3689770698547363,0.5961538461538461,0.8269230769230769,0.5,0.8571428571428571,0.0004
81,1.4270226955413818,1.4140801429748535,0.46153846153846156,0.8269230769230769,0.35714285714285715,0.8571428571428571,0.0004
82,1.3352063298225403,1.464754581451416,0.5192307692307693,0.8269230769230769,0.2857142857142857,0.8571428571428571,0.0004
83,1.3181178569793701,1.2580971717834473,0.5,0.8269230769230769,0.5,0.8571428571428571,0.0004
84,1.3486574292182922,1.3920347690582275,0.5769230769230769,0.8269230769230769,0.42857142857142855,0.8571428571428571,0.0004
85,1.2781838178634644,1.3227698802947998,0.5576923076923077,0.8269230769230769,0.42857142857142855,0.8571428571428571,0.0004
86,1.3972825407981873,1.2558364868164062,0.5384615384615384,0.8269230769230769,0.6428571428571429,0.8571428571428571,0.0004
87,1.409178912639618,1.5072178840637207,0.5,0.8269230769230769,0.2857142857142857,0.8571428571428571,0.0004
88,1.3589515089988708,1.3121910095214844,0.5192307692307693,0.8269230769230769,0.5714285714285714,0.8571428571428571,0.0004
89,1.3412139415740967,1.5205339193344116,0.5769230769230769,0.8269230769230769,0.42857142857142855,0.8571428571428571,0.0004
90,1.4002416729927063,1.370363473892212,0.5576923076923077,0.8269230769230769,0.5714285714285714,0.8571428571428571,0.0004
91,1.3459776639938354,1.5282397270202637,0.5192307692307693,0.8269230769230769,0.35714285714285715,0.8571428571428571,0.0004
92,1.3167619705200195,1.411895751953125,0.5961538461538461,0.8269230769230769,0.42857142857142855,0.8571428571428571,0.0004
93,1.2999452948570251,1.419966697692871,0.5769230769230769,0.8269230769230769,0.42857142857142855,0.8571428571428571,0.0004
94,1.300516426563263,1.1423544883728027,0.6153846153846154,0.8269230769230769,0.5714285714285714,0.8571428571428571,0.0004
95,1.3401777148246765,1.4430996179580688,0.5192307692307693,0.8269230769230769,0.5,0.8571428571428571,0.0004
96,1.3293433785438538,1.2342529296875,0.5769230769230769,0.8269230769230769,0.6428571428571429,0.8571428571428571,0.0004
97,1.3850408792495728,1.2884670495986938,0.5576923076923077,0.8269230769230769,0.6428571428571429,0.8571428571428571,0.0004
98,1.4662615060806274,1.4701826572418213,0.5,0.8269230769230769,0.42857142857142855,0.8571428571428571,0.0004
99,1.246394395828247,1.5361984968185425,0.6346153846153846,0.8269230769230769,0.2857142857142857,0.8571428571428571,0.0004
100,1.3160939812660217,1.5729212760925293,0.5576923076923077,0.8269230769230769,0.42857142857142855,0.8571428571428571,0.0004
101,1.4519242644309998,1.2069827318191528,0.46153846153846156,0.8269230769230769,0.5,0.8571428571428571,0.0004
102,1.321642518043518,1.2679566144943237,0.5961538461538461,0.8269230769230769,0.42857142857142855,0.8571428571428571,0.0004
103,1.2892786264419556,1.343442678451538,0.5384615384615384,0.8269230769230769,0.42857142857142855,0.8571428571428571,0.0004
104,1.2319639921188354,1.4413143396377563,0.5576923076923077,0.8269230769230769,0.35714285714285715,0.8571428571428571,0.0004
105,1.3076330423355103,1.5889252424240112,0.6538461538461539,0.8076923076923077,0.42857142857142855,0.8571428571428571,0.0004
106,1.2531810998916626,1.3143649101257324,0.5576923076923077,0.8269230769230769,0.42857142857142855,0.8571428571428571,0.0004
107,1.2614794373512268,1.4312021732330322,0.5384615384615384,0.8269230769230769,0.35714285714285715,0.8571428571428571,0.0004
108,1.2888065576553345,1.3680522441864014,0.6730769230769231,0.8076923076923077,0.5,0.8571428571428571,0.0004
109,1.2930301427841187,1.2647769451141357,0.6346153846153846,0.8076923076923077,0.5714285714285714,0.8571428571428571,0.0004
110,1.2426870465278625,1.404827356338501,0.5576923076923077,0.8269230769230769,0.5,0.8571428571428571,0.0004
111,1.259918212890625,1.5945465564727783,0.5384615384615384,0.8076923076923077,0.42857142857142855,0.7857142857142857,0.0004
112,1.3221388459205627,1.4546244144439697,0.6538461538461539,0.8269230769230769,0.42857142857142855,0.8571428571428571,0.0004
113,1.3130336999893188,1.4736149311065674,0.5769230769230769,0.8076923076923077,0.5,0.7857142857142857,0.0004
114,1.2208560109138489,1.7091805934906006,0.6153846153846154,0.8461538461538461,0.42857142857142855,0.7857142857142857,0.0004
115,1.2801364064216614,1.4293994903564453,0.6538461538461539,0.8269230769230769,0.42857142857142855,0.7857142857142857,0.0004
116,1.2793539762496948,1.6285560131072998,0.6730769230769231,0.8461538461538461,0.5,0.6428571428571429,0.0004
117,1.4403864741325378,1.5299503803253174,0.5576923076923077,0.8269230769230769,0.5,0.7857142857142857,0.0004
118,1.3396726846694946,1.4328304529190063,0.5192307692307693,0.8269230769230769,0.5,0.7857142857142857,0.0004
119,1.262604534626007,1.3387646675109863,0.5769230769230769,0.8269230769230769,0.5,0.7857142857142857,0.0004
120,1.1802971959114075,1.3080734014511108,0.5961538461538461,0.8269230769230769,0.7142857142857143,0.7857142857142857,0.0004
121,1.2036267518997192,1.3986698389053345,0.6346153846153846,0.8461538461538461,0.5714285714285714,0.7857142857142857,0.0004
122,1.1924177408218384,1.1429054737091064,0.7115384615384616,0.8846153846153846,0.7142857142857143,0.8571428571428571,0.0004
123,1.263279914855957,1.564293384552002,0.5769230769230769,0.8269230769230769,0.42857142857142855,0.8571428571428571,0.0004
124,1.2734888195991516,1.0537132024765015,0.5961538461538461,0.8269230769230769,0.7142857142857143,0.7857142857142857,0.0004
125,1.4171971678733826,1.4704395532608032,0.5,0.8076923076923077,0.5,0.8571428571428571,0.0004
126,1.3033471703529358,1.4200713634490967,0.5769230769230769,0.8269230769230769,0.42857142857142855,0.8571428571428571,0.0004
127,1.1572780013084412,1.4606868028640747,0.6346153846153846,0.8653846153846154,0.35714285714285715,0.8571428571428571,0.0004
128,1.2959070205688477,1.0328612327575684,0.5576923076923077,0.8269230769230769,0.7142857142857143,0.7857142857142857,0.0004
129,1.3477691411972046,1.4528095722198486,0.6153846153846154,0.8269230769230769,0.5714285714285714,0.7857142857142857,0.0004
130,1.2418091297149658,1.3171427249908447,0.6538461538461539,0.8076923076923077,0.42857142857142855,0.8571428571428571,0.0004
131,1.1370102167129517,1.188464641571045,0.5769230769230769,0.8461538461538461,0.6428571428571429,0.7142857142857143,0.0004
132,1.2210496664047241,1.350757360458374,0.5961538461538461,0.8269230769230769,0.5714285714285714,0.7857142857142857,0.0004
133,1.3368828296661377,1.5053428411483765,0.5769230769230769,0.8269230769230769,0.5,0.8571428571428571,0.0004
134,1.2411003708839417,1.2620450258255005,0.6153846153846154,0.8269230769230769,0.6428571428571429,0.7857142857142857,0.0004
135,1.3102205395698547,1.7709026336669922,0.6153846153846154,0.8269230769230769,0.35714285714285715,0.7857142857142857,0.0004
136,1.2807002663612366,1.6825615167617798,0.6730769230769231,0.8653846153846154,0.42857142857142855,0.7857142857142857,0.0004
137,1.4432629346847534,1.2839299440383911,0.4807692307692308,0.8076923076923077,0.5714285714285714,0.7857142857142857,0.0004
138,1.303446352481842,1.5397038459777832,0.5384615384615384,0.8461538461538461,0.42857142857142855,0.7857142857142857,0.0004
139,1.3889046907424927,1.355488896369934,0.5192307692307693,0.8461538461538461,0.42857142857142855,0.8571428571428571,0.0004
140,1.4689769744873047,1.2897783517837524,0.46153846153846156,0.7692307692307693,0.6428571428571429,0.7857142857142857,0.0004
141,1.33970046043396,1.4187548160552979,0.5769230769230769,0.7884615384615384,0.5,0.7857142857142857,0.0004
142,1.2455108165740967,1.2705377340316772,0.5769230769230769,0.8461538461538461,0.5714285714285714,0.7857142857142857,0.0004
143,1.3559263348579407,1.171763300895691,0.5192307692307693,0.8461538461538461,0.5,0.7142857142857143,0.0004
144,1.2579357624053955,1.0706284046173096,0.6346153846153846,0.8461538461538461,0.7142857142857143,0.7857142857142857,0.0004
145,1.3548166751861572,1.1462723016738892,0.5,0.8076923076923077,0.6428571428571429,0.7857142857142857,0.0004
146,1.338973045349121,1.3595225811004639,0.5769230769230769,0.8461538461538461,0.42857142857142855,0.7857142857142857,0.0004
147,1.3453214168548584,1.4628078937530518,0.5576923076923077,0.8269230769230769,0.5,0.7857142857142857,0.0004
148,1.2391793727874756,1.4980100393295288,0.6538461538461539,0.8269230769230769,0.35714285714285715,0.8571428571428571,0.0004
149,1.2763100862503052,1.5235023498535156,0.5769230769230769,0.8269230769230769,0.35714285714285715,0.7857142857142857,0.0004
150,1.336133360862732,1.3175773620605469,0.5769230769230769,0.8269230769230769,0.5714285714285714,0.7857142857142857,0.0004
151,1.258880078792572,1.4031953811645508,0.6538461538461539,0.8269230769230769,0.42857142857142855,0.8571428571428571,0.0004
152,1.2572270631790161,1.720579981803894,0.6346153846153846,0.8269230769230769,0.2857142857142857,0.7142857142857143,0.0004
153,1.162764847278595,1.2221521139144897,0.6730769230769231,0.8653846153846154,0.6428571428571429,0.7142857142857143,0.0004
154,1.2403030395507812,1.1137025356292725,0.5576923076923077,0.8269230769230769,0.7857142857142857,0.7142857142857143,0.0004
155,1.2201846837997437,1.2696348428726196,0.5961538461538461,0.8653846153846154,0.5,0.8571428571428571,0.0004
156,1.207931935787201,1.3019548654556274,0.6153846153846154,0.8461538461538461,0.6428571428571429,0.8571428571428571,0.0004
157,1.253601849079132,1.1174321174621582,0.6346153846153846,0.8461538461538461,0.6428571428571429,0.7857142857142857,0.0004
158,1.0539337992668152,1.3403191566467285,0.7115384615384616,0.8846153846153846,0.42857142857142855,0.8571428571428571,0.0004
159,1.3531949520111084,1.276970624923706,0.5769230769230769,0.8076923076923077,0.5,0.8571428571428571,0.0004
160,1.2834812998771667,1.1228123903274536,0.5384615384615384,0.8461538461538461,0.5714285714285714,0.7857142857142857,0.0004
161,1.2179767489433289,1.33778715133667,0.6538461538461539,0.8461538461538461,0.6428571428571429,0.6428571428571429,0.0004
162,1.1093456149101257,1.065124750137329,0.6730769230769231,0.8269230769230769,0.7142857142857143,0.7142857142857143,0.0004
163,1.2114626169204712,1.3488945960998535,0.6923076923076923,0.8076923076923077,0.5,0.8571428571428571,0.0004
164,1.3322799801826477,1.5798556804656982,0.5384615384615384,0.8076923076923077,0.42857142857142855,0.7857142857142857,0.0004
165,1.3586717247962952,1.560463786125183,0.5769230769230769,0.8461538461538461,0.5,0.7857142857142857,0.0004
166,1.3734606504440308,1.5718015432357788,0.5384615384615384,0.8461538461538461,0.5,0.7857142857142857,0.0004
167,1.1287596225738525,1.4895235300064087,0.6538461538461539,0.8461538461538461,0.5714285714285714,0.7142857142857143,0.0004
168,1.1532560586929321,1.455281376838684,0.7115384615384616,0.8461538461538461,0.42857142857142855,0.8571428571428571,0.0004
169,1.1352330446243286,1.4589587450027466,0.6538461538461539,0.8461538461538461,0.42857142857142855,0.7857142857142857,0.0004
170,1.2494342923164368,1.8060123920440674,0.6153846153846154,0.8076923076923077,0.2857142857142857,0.7857142857142857,0.0004
171,1.3261898756027222,1.0340087413787842,0.5384615384615384,0.8269230769230769,0.7142857142857143,0.8571428571428571,0.0004
172,1.4392594695091248,1.3631038665771484,0.5,0.8461538461538461,0.35714285714285715,0.8571428571428571,0.0004
173,1.231663465499878,1.0787932872772217,0.6346153846153846,0.8269230769230769,0.7142857142857143,0.7857142857142857,0.0004
174,1.2724727988243103,1.3107447624206543,0.5961538461538461,0.8076923076923077,0.42857142857142855,0.8571428571428571,0.0004
175,1.3602861166000366,1.2598419189453125,0.5961538461538461,0.8076923076923077,0.6428571428571429,0.7857142857142857,0.0004
176,1.3431580066680908,1.439243197441101,0.6346153846153846,0.8269230769230769,0.5714285714285714,0.8571428571428571,0.0004
177,1.2420233488082886,1.1119563579559326,0.6538461538461539,0.8076923076923077,0.6428571428571429,0.7142857142857143,0.0004
178,1.1797356009483337,1.213091254234314,0.6538461538461539,0.7884615384615384,0.5714285714285714,0.7142857142857143,0.0004
179,1.3786563873291016,1.4935588836669922,0.5769230769230769,0.8461538461538461,0.42857142857142855,0.7857142857142857,0.0004
180,1.1231476664543152,1.2591450214385986,0.6730769230769231,0.8269230769230769,0.42857142857142855,0.8571428571428571,0.0004
181,1.3957873582839966,1.2686655521392822,0.5192307692307693,0.8269230769230769,0.5,0.8571428571428571,0.0004
182,1.5438605546951294,1.502515196800232,0.5,0.8076923076923077,0.35714285714285715,0.7857142857142857,0.0004
183,1.367080569267273,1.2897063493728638,0.5769230769230769,0.8269230769230769,0.5,0.8571428571428571,0.0004
184,1.3287934064865112,1.5074443817138672,0.5576923076923077,0.8269230769230769,0.42857142857142855,0.8571428571428571,0.0004
185,1.3418281078338623,1.0889794826507568,0.5576923076923077,0.8269230769230769,0.5714285714285714,0.7857142857142857,0.0004
186,1.1063825488090515,1.4055885076522827,0.7692307692307693,0.8461538461538461,0.5,0.7857142857142857,0.0004
187,1.246733009815216,1.645485758781433,0.6346153846153846,0.8269230769230769,0.35714285714285715,0.8571428571428571,0.0004
188,1.2371673583984375,1.1488693952560425,0.6153846153846154,0.8461538461538461,0.7142857142857143,0.8571428571428571,0.0004
189,1.0899096727371216,1.4732990264892578,0.6538461538461539,0.8269230769230769,0.42857142857142855,0.8571428571428571,0.0004
190,1.2120015025138855,1.227107048034668,0.6923076923076923,0.8269230769230769,0.5714285714285714,0.8571428571428571,0.0004
191,1.2978622317314148,1.3817576169967651,0.5769230769230769,0.8269230769230769,0.5,0.7142857142857143,0.0004
192,1.3235533237457275,1.4699292182922363,0.5576923076923077,0.8269230769230769,0.5,0.7857142857142857,0.0004
193,1.1259113550186157,1.289039134979248,0.6923076923076923,0.8653846153846154,0.5714285714285714,0.7857142857142857,0.0004
194,1.1440765857696533,1.279184103012085,0.6346153846153846,0.8653846153846154,0.5,0.8571428571428571,0.0004
195,1.2516717314720154,1.1967802047729492,0.6346153846153846,0.8461538461538461,0.6428571428571429,0.6428571428571429,0.0004
196,1.2261000871658325,1.2684310674667358,0.6538461538461539,0.8269230769230769,0.5,0.8571428571428571,0.0004
197,1.0611132383346558,1.1697906255722046,0.7307692307692307,0.8076923076923077,0.6428571428571429,0.8571428571428571,0.0004
198,1.2008168697357178,1.3410019874572754,0.6923076923076923,0.7884615384615384,0.5,0.8571428571428571,0.0004
199,1.214834451675415,1.493817925453186,0.5576923076923077,0.8653846153846154,0.35714285714285715,0.9285714285714286,0.0004
200,1.1429763436317444,1.231516718864441,0.6346153846153846,0.8076923076923077,0.5714285714285714,0.8571428571428571,0.0004
201,1.0645885467529297,1.2720930576324463,0.7307692307692307,0.8461538461538461,0.5714285714285714,0.6428571428571429,0.0004
202,1.0654773712158203,1.6313838958740234,0.6923076923076923,0.8076923076923077,0.42857142857142855,0.8571428571428571,0.0004
203,1.297264575958252,0.9624556303024292,0.5769230769230769,0.8269230769230769,0.7857142857142857,0.6428571428571429,0.0004
204,1.1706000566482544,1.2757411003112793,0.6730769230769231,0.8076923076923077,0.42857142857142855,0.8571428571428571,0.0004
205,1.2785664796829224,1.0900623798370361,0.6153846153846154,0.8076923076923077,0.7142857142857143,0.8571428571428571,0.0004
206,1.1056067943572998,1.0806747674942017,0.6538461538461539,0.8076923076923077,0.6428571428571429,0.7857142857142857,0.0004
207,1.132022202014923,1.6205363273620605,0.6923076923076923,0.8269230769230769,0.35714285714285715,0.8571428571428571,0.0004
208,1.3344674110412598,1.3221852779388428,0.5384615384615384,0.8269230769230769,0.5,0.7857142857142857,0.0004
209,1.1448401808738708,1.3824561834335327,0.6730769230769231,0.8076923076923077,0.5,0.7857142857142857,0.0004
210,1.3115370273590088,1.421828031539917,0.6538461538461539,0.8461538461538461,0.5,0.7857142857142857,0.0004
211,1.3019267320632935,1.5472263097763062,0.5576923076923077,0.8269230769230769,0.35714285714285715,0.7857142857142857,0.0004
212,1.4345577359199524,1.661978006362915,0.5384615384615384,0.8076923076923077,0.5,0.5714285714285714,0.0004
213,1.1534807682037354,1.3107287883758545,0.6730769230769231,0.8461538461538461,0.5714285714285714,0.7857142857142857,0.0004
214,1.130400836467743,1.4212881326675415,0.6730769230769231,0.7884615384615384,0.5,0.7142857142857143,0.0004
215,1.0641052424907684,0.9531126618385315,0.7692307692307693,0.8269230769230769,0.7857142857142857,0.5,0.0004
216,1.1172640919685364,1.7057385444641113,0.6346153846153846,0.9038461538461539,0.2857142857142857,0.8571428571428571,0.0004
217,1.118750274181366,1.7474660873413086,0.6538461538461539,0.8653846153846154,0.35714285714285715,0.7142857142857143,0.0004
218,1.2481408715248108,1.4726662635803223,0.5576923076923077,0.8461538461538461,0.5,0.6428571428571429,0.0004
219,1.126781940460205,1.2447295188903809,0.6538461538461539,0.8076923076923077,0.42857142857142855,0.7857142857142857,0.0004
220,1.4065056443214417,1.3524506092071533,0.5769230769230769,0.8269230769230769,0.5714285714285714,0.7857142857142857,0.0004
221,1.2559470534324646,1.2376207113265991,0.6346153846153846,0.8653846153846154,0.5,0.8571428571428571,0.0004
222,1.3300812244415283,1.224645972251892,0.5961538461538461,0.8076923076923077,0.5,0.7857142857142857,0.0004
223,1.1173323392868042,1.370904564857483,0.6346153846153846,0.8653846153846154,0.5,0.7142857142857143,0.0004
224,1.337182343006134,1.5739552974700928,0.5576923076923077,0.8269230769230769,0.2857142857142857,0.7857142857142857,0.0004
225,1.3096513152122498,1.3688219785690308,0.5769230769230769,0.8269230769230769,0.5714285714285714,0.7857142857142857,0.0004
226,1.0350006222724915,1.182348608970642,0.6923076923076923,0.8653846153846154,0.6428571428571429,0.8571428571428571,0.0004
227,1.1312702298164368,1.3726752996444702,0.6923076923076923,0.8461538461538461,0.42857142857142855,0.7142857142857143,0.0004
228,1.1519080996513367,1.3643462657928467,0.6153846153846154,0.8653846153846154,0.5,0.7857142857142857,0.0004
229,1.165047287940979,1.5905206203460693,0.6346153846153846,0.8076923076923077,0.5,0.7142857142857143,0.0004
230,1.2798789143562317,1.2838356494903564,0.6346153846153846,0.8076923076923077,0.7142857142857143,0.7142857142857143,0.0004
231,1.0650130212306976,1.1570664644241333,0.6730769230769231,0.8653846153846154,0.7142857142857143,0.7857142857142857,0.0004
232,1.2102136611938477,1.1340192556381226,0.5961538461538461,0.8269230769230769,0.6428571428571429,0.7142857142857143,0.0004
233,1.2546454071998596,1.4545395374298096,0.5576923076923077,0.8461538461538461,0.5,0.7857142857142857,0.0004
234,1.1476845741271973,1.3543918132781982,0.5769230769230769,0.8461538461538461,0.6428571428571429,0.7857142857142857,0.0004
235,1.3583608269691467,1.2673207521438599,0.5769230769230769,0.7884615384615384,0.5,0.7857142857142857,0.0004
236,1.225956380367279,1.1058121919631958,0.6346153846153846,0.7692307692307693,0.5714285714285714,0.8571428571428571,0.0004
237,1.39878648519516,1.185369849205017,0.5384615384615384,0.8269230769230769,0.7142857142857143,0.7857142857142857,0.0004
238,1.0473906993865967,1.622793436050415,0.6923076923076923,0.8461538461538461,0.5,0.7142857142857143,0.0004
239,1.2455663084983826,1.809443712234497,0.5384615384615384,0.8269230769230769,0.35714285714285715,0.7857142857142857,0.0004
240,1.2750762104988098,1.3479106426239014,0.5576923076923077,0.8076923076923077,0.5,0.7857142857142857,0.0004
241,1.099785953760147,1.6038057804107666,0.6538461538461539,0.8461538461538461,0.42857142857142855,0.7142857142857143,0.0004
242,1.1113287210464478,1.4557476043701172,0.6538461538461539,0.8653846153846154,0.5714285714285714,0.7857142857142857,0.0004
243,1.3285271525382996,1.5891481637954712,0.5961538461538461,0.7692307692307693,0.42857142857142855,0.6428571428571429,0.0004
244,1.2817816734313965,1.8859894275665283,0.6153846153846154,0.75,0.21428571428571427,0.7142857142857143,0.0004
245,1.115062415599823,1.3850346803665161,0.6730769230769231,0.9038461538461539,0.5714285714285714,0.7857142857142857,0.0004
246,1.2985665798187256,1.360007643699646,0.6346153846153846,0.7692307692307693,0.5,0.7857142857142857,0.0004
247,1.3010588884353638,1.3288798332214355,0.6346153846153846,0.7692307692307693,0.5714285714285714,0.7142857142857143,0.0004
248,1.2532178163528442,0.9509813785552979,0.5576923076923077,0.8653846153846154,0.7857142857142857,0.7142857142857143,0.0004
249,1.117795467376709,1.2108547687530518,0.6923076923076923,0.8846153846153846,0.6428571428571429,0.7142857142857143,0.0004
250,1.2820902466773987,0.9534072875976562,0.5576923076923077,0.8076923076923077,0.7857142857142857,0.7857142857142857,0.0004
251,1.222293198108673,1.4461240768432617,0.6346153846153846,0.8269230769230769,0.5714285714285714,0.7142857142857143,0.0004
252,1.160079836845398,1.2286789417266846,0.7115384615384616,0.8461538461538461,0.5714285714285714,0.7142857142857143,0.0004
253,1.1413365602493286,1.2263596057891846,0.6346153846153846,0.8653846153846154,0.5714285714285714,0.8571428571428571,0.0004
254,1.2695133686065674,1.5710625648498535,0.5769230769230769,0.8076923076923077,0.42857142857142855,0.7857142857142857,0.0004
255,1.11069917678833,1.520749807357788,0.6923076923076923,0.8076923076923077,0.2857142857142857,0.7857142857142857,0.0004
256,1.22665935754776,1.4172834157943726,0.5961538461538461,0.8076923076923077,0.35714285714285715,0.7857142857142857,0.0004
257,1.162360429763794,1.340618371963501,0.6153846153846154,0.7884615384615384,0.5714285714285714,0.7857142857142857,0.0004
258,1.1980329751968384,1.2705508470535278,0.5961538461538461,0.8461538461538461,0.6428571428571429,0.7142857142857143,0.0004
259,1.2766473889350891,1.0918534994125366,0.5769230769230769,0.8269230769230769,0.7142857142857143,0.7142857142857143,0.0004
260,1.2719618678092957,1.1060538291931152,0.5961538461538461,0.8076923076923077,0.7857142857142857,0.7142857142857143,0.0004
261,1.2265188694000244,1.2618887424468994,0.5769230769230769,0.7884615384615384,0.5714285714285714,0.8571428571428571,0.0004
262,1.2262811660766602,1.1789790391921997,0.5961538461538461,0.8269230769230769,0.5,0.8571428571428571,0.0004
263,1.1855309009552002,1.133000135421753,0.6538461538461539,0.8269230769230769,0.5714285714285714,0.8571428571428571,0.0004
264,1.0733991265296936,1.046010971069336,0.6730769230769231,0.8461538461538461,0.7857142857142857,0.8571428571428571,0.0004
265,1.0995119214057922,1.5623334646224976,0.6923076923076923,0.8269230769230769,0.35714285714285715,0.8571428571428571,0.0004
266,1.0161315500736237,1.311353087425232,0.6923076923076923,0.8269230769230769,0.6428571428571429,0.8571428571428571,0.0004
267,1.1089813709259033,1.7501177787780762,0.6346153846153846,0.8269230769230769,0.35714285714285715,0.7857142857142857,0.0004
268,1.2900570034980774,1.1143455505371094,0.5769230769230769,0.8269230769230769,0.8571428571428571,0.7142857142857143,0.0004
269,1.215755820274353,1.2101691961288452,0.6538461538461539,0.8269230769230769,0.5,0.7857142857142857,0.0004
270,1.1607160568237305,1.5262011289596558,0.6346153846153846,0.8461538461538461,0.42857142857142855,0.8571428571428571,0.0004
271,1.1142919659614563,1.3168954849243164,0.6923076923076923,0.8269230769230769,0.5714285714285714,0.7857142857142857,0.0004
272,1.370495855808258,1.3410029411315918,0.5961538461538461,0.8076923076923077,0.5714285714285714,0.7142857142857143,0.0004
273,1.0823493599891663,1.370351791381836,0.6730769230769231,0.8269230769230769,0.5714285714285714,0.6428571428571429,0.0004
274,1.3298175930976868,1.2843290567398071,0.6153846153846154,0.8653846153846154,0.5,0.6428571428571429,0.0004
275,1.2439102530479431,1.284639835357666,0.5769230769230769,0.8461538461538461,0.5,0.8571428571428571,0.0004
276,1.0794724822044373,0.7613774538040161,0.6923076923076923,0.8461538461538461,0.9285714285714286,0.7142857142857143,0.0004
277,1.4602172374725342,1.3691132068634033,0.4807692307692308,0.8076923076923077,0.5,0.7857142857142857,0.0004
278,1.197022795677185,0.9111584424972534,0.6923076923076923,0.8269230769230769,0.8571428571428571,0.7142857142857143,0.0004
279,1.164504587650299,1.3189187049865723,0.6730769230769231,0.8269230769230769,0.5714285714285714,0.6428571428571429,0.0004
280,1.1298142075538635,1.2258275747299194,0.6730769230769231,0.8461538461538461,0.5,0.7142857142857143,0.0004
281,1.016182690858841,1.0854755640029907,0.7115384615384616,0.8653846153846154,0.5,0.8571428571428571,0.0004
282,1.0776021480560303,1.426392674446106,0.6730769230769231,0.8461538461538461,0.5714285714285714,0.7857142857142857,0.0004
283,1.0414867401123047,1.6273894309997559,0.6730769230769231,0.8269230769230769,0.42857142857142855,0.7857142857142857,0.0004
284,1.179370403289795,1.2498235702514648,0.5961538461538461,0.8269230769230769,0.5,0.7857142857142857,0.0004
285,1.1319594383239746,1.340070366859436,0.7115384615384616,0.8653846153846154,0.5,0.7857142857142857,0.0004
286,1.2086529731750488,1.1202584505081177,0.6153846153846154,0.8461538461538461,0.6428571428571429,0.7142857142857143,0.0004
287,1.273368775844574,1.5767709016799927,0.5769230769230769,0.8269230769230769,0.42857142857142855,0.7857142857142857,0.0004
288,1.1517634391784668,1.5203280448913574,0.6346153846153846,0.8653846153846154,0.42857142857142855,0.7857142857142857,0.0004
289,1.117044746875763,1.1499013900756836,0.6153846153846154,0.8269230769230769,0.5714285714285714,0.7857142857142857,0.0004
290,1.079630434513092,1.2578521966934204,0.6346153846153846,0.8461538461538461,0.6428571428571429,0.7142857142857143,0.0004
291,1.1154215335845947,0.8290587067604065,0.6346153846153846,0.8846153846153846,0.7857142857142857,0.7857142857142857,0.0004
292,1.1323367357254028,1.0672564506530762,0.6153846153846154,0.8846153846153846,0.7142857142857143,0.7142857142857143,0.0004
293,1.0836215317249298,1.023677945137024,0.6153846153846154,0.8846153846153846,0.5714285714285714,0.7857142857142857,0.0004
294,1.3886648416519165,1.55629301071167,0.5576923076923077,0.8653846153846154,0.5,0.7142857142857143,0.0004
295,1.3027746081352234,1.3430135250091553,0.6153846153846154,0.8076923076923077,0.42857142857142855,0.7857142857142857,0.0004
296,1.0708396136760712,1.4362640380859375,0.6923076923076923,0.8269230769230769,0.42857142857142855,0.8571428571428571,0.0004
297,1.0740121603012085,1.5341994762420654,0.6730769230769231,0.8269230769230769,0.5,0.6428571428571429,0.0004
298,1.402334749698639,1.6236628293991089,0.5192307692307693,0.7884615384615384,0.42857142857142855,0.7857142857142857,0.0004
299,1.1571359038352966,1.5499355792999268,0.5961538461538461,0.8653846153846154,0.42857142857142855,0.7142857142857143,0.0004
300,1.336399257183075,1.4345402717590332,0.4807692307692308,0.8461538461538461,0.5,0.6428571428571429,0.0004
301,1.255962073802948,1.4277913570404053,0.5192307692307693,0.8269230769230769,0.5,0.7857142857142857,0.0004
302,1.2379688620567322,1.0402406454086304,0.6153846153846154,0.8269230769230769,0.6428571428571429,0.7857142857142857,0.0004
303,1.0900518298149109,1.3131258487701416,0.6153846153846154,0.8461538461538461,0.5714285714285714,0.8571428571428571,0.0004
304,1.059249997138977,1.3690577745437622,0.6923076923076923,0.8653846153846154,0.42857142857142855,0.7857142857142857,0.0004
305,1.2536489367485046,1.3936505317687988,0.5961538461538461,0.8076923076923077,0.5,0.7142857142857143,0.0004
306,1.3883137106895447,1.7763539552688599,0.5961538461538461,0.8653846153846154,0.42857142857142855,0.7142857142857143,0.0004
307,1.4322112202644348,1.17592453956604,0.5384615384615384,0.8076923076923077,0.5714285714285714,0.7857142857142857,0.0004
308,1.2302589416503906,1.5166666507720947,0.5384615384615384,0.8461538461538461,0.21428571428571427,0.8571428571428571,0.0004
309,1.2046655416488647,1.1836574077606201,0.5384615384615384,0.8461538461538461,0.6428571428571429,0.7857142857142857,0.0004
310,1.265543520450592,1.3598685264587402,0.5961538461538461,0.8461538461538461,0.5,0.7142857142857143,0.0004
311,1.288099467754364,1.0815558433532715,0.5192307692307693,0.8461538461538461,0.7142857142857143,0.7142857142857143,0.0004
312,1.286925196647644,1.4788051843643188,0.6153846153846154,0.8461538461538461,0.5,0.8571428571428571,0.0004
313,1.0853052139282227,1.8459700345993042,0.6730769230769231,0.8269230769230769,0.35714285714285715,0.8571428571428571,0.0004
314,1.2846602201461792,1.6665902137756348,0.5961538461538461,0.8269230769230769,0.42857142857142855,0.7142857142857143,0.0004
315,1.209338128566742,1.7299046516418457,0.6153846153846154,0.8076923076923077,0.2857142857142857,0.7857142857142857,0.0004
316,1.1446610689163208,1.5247864723205566,0.5769230769230769,0.8653846153846154,0.5,0.7857142857142857,0.0004
317,1.0955017507076263,1.7357146739959717,0.6538461538461539,0.8269230769230769,0.2857142857142857,0.7857142857142857,0.0004
318,1.1451689004898071,1.4752699136734009,0.6153846153846154,0.8653846153846154,0.5,0.8571428571428571,0.0004
319,1.029338002204895,1.6203410625457764,0.6923076923076923,0.8461538461538461,0.42857142857142855,0.7857142857142857,0.0004
320,1.3762136697769165,1.2591211795806885,0.5576923076923077,0.8076923076923077,0.7142857142857143,0.5714285714285714,0.0004
321,1.1138824224472046,1.3629481792449951,0.6346153846153846,0.8461538461538461,0.5,0.7142857142857143,0.0004
322,1.2057797312736511,1.2839508056640625,0.6538461538461539,0.7884615384615384,0.6428571428571429,0.7142857142857143,0.0004
323,1.141450047492981,1.2956538200378418,0.6538461538461539,0.8653846153846154,0.5714285714285714,0.7857142857142857,0.0004
324,1.344752311706543,1.379334568977356,0.5769230769230769,0.75,0.5,0.8571428571428571,0.0004
325,1.0723510384559631,1.7393317222595215,0.6538461538461539,0.8846153846153846,0.35714285714285715,0.7857142857142857,0.0004
326,1.14523184299469,1.5262699127197266,0.6538461538461539,0.8653846153846154,0.5,0.7142857142857143,0.0004
327,1.2765920758247375,1.0745062828063965,0.6538461538461539,0.8461538461538461,0.7142857142857143,0.7857142857142857,0.0004
328,1.2466624975204468,1.5155744552612305,0.5769230769230769,0.8653846153846154,0.5,0.7142857142857143,0.0004
329,1.1762292683124542,1.534562587738037,0.6153846153846154,0.8461538461538461,0.2857142857142857,0.8571428571428571,0.0004
330,1.1545108556747437,1.1710565090179443,0.6153846153846154,0.8076923076923077,0.6428571428571429,0.7857142857142857,0.0004
331,1.0594261288642883,1.6241183280944824,0.75,0.8461538461538461,0.5,0.6428571428571429,0.0004
332,1.2302929162979126,1.2995781898498535,0.6346153846153846,0.8846153846153846,0.5714285714285714,0.7857142857142857,0.0004
333,0.9724587798118591,1.4563076496124268,0.6923076923076923,0.8269230769230769,0.5,0.7142857142857143,0.0004
334,1.2856788635253906,1.1784992218017578,0.5576923076923077,0.7692307692307693,0.5714285714285714,0.7857142857142857,0.0004
335,1.088631510734558,1.3136498928070068,0.6153846153846154,0.8846153846153846,0.5714285714285714,0.8571428571428571,0.0004
336,0.8990123867988586,1.3785150051116943,0.7692307692307693,0.8653846153846154,0.42857142857142855,0.9285714285714286,0.0004
337,0.9853807687759399,1.5389862060546875,0.6730769230769231,0.9038461538461539,0.35714285714285715,0.7857142857142857,0.0004
338,1.099097490310669,1.3109451532363892,0.6538461538461539,0.8653846153846154,0.5714285714285714,0.8571428571428571,0.0004
339,1.0753685235977173,1.729048252105713,0.6538461538461539,0.8653846153846154,0.2857142857142857,0.7857142857142857,0.0004
340,1.0536615550518036,1.18446683883667,0.6923076923076923,0.9038461538461539,0.5714285714285714,0.7857142857142857,0.0004
341,1.064073920249939,1.5593712329864502,0.75,0.8269230769230769,0.5714285714285714,0.5,0.0004
342,1.1830868124961853,1.3888553380966187,0.6538461538461539,0.8076923076923077,0.42857142857142855,0.6428571428571429,0.0004
343,1.16683030128479,1.0381031036376953,0.6538461538461539,0.8653846153846154,0.7857142857142857,0.7142857142857143,0.0004
344,0.9167159199714661,1.0961098670959473,0.7307692307692307,0.8846153846153846,0.6428571428571429,0.7142857142857143,0.0004
345,1.1314255893230438,1.351356029510498,0.6730769230769231,0.8269230769230769,0.7857142857142857,0.6428571428571429,0.0004
346,1.1606752276420593,1.155229091644287,0.6730769230769231,0.8846153846153846,0.5714285714285714,0.7857142857142857,0.0004
347,1.2447888255119324,1.4117382764816284,0.5961538461538461,0.8269230769230769,0.5714285714285714,0.6428571428571429,0.0004
348,1.087437391281128,1.592536449432373,0.5769230769230769,0.9038461538461539,0.42857142857142855,0.7142857142857143,0.0004
349,1.1304839253425598,1.262872576713562,0.6730769230769231,0.8269230769230769,0.35714285714285715,0.8571428571428571,0.0004
350,0.9157242774963379,1.4641172885894775,0.7307692307692307,0.8653846153846154,0.5,0.7857142857142857,0.0004
351,0.9539543390274048,1.197019100189209,0.7115384615384616,0.9038461538461539,0.42857142857142855,1.0,0.0004
352,1.005408614873886,1.3948628902435303,0.7307692307692307,0.8653846153846154,0.35714285714285715,0.7142857142857143,0.0004
353,1.0377628803253174,1.351762294769287,0.7307692307692307,0.9038461538461539,0.42857142857142855,0.7142857142857143,0.0004
354,1.1312408447265625,1.3723161220550537,0.6538461538461539,0.8653846153846154,0.42857142857142855,0.8571428571428571,0.0004
355,1.0735418498516083,1.2731192111968994,0.6538461538461539,0.8461538461538461,0.7142857142857143,0.7142857142857143,0.0004
356,1.0392522513866425,1.42819344997406,0.5961538461538461,0.8846153846153846,0.5,0.6428571428571429,0.0004
357,1.268915057182312,1.6827356815338135,0.6153846153846154,0.8269230769230769,0.35714285714285715,0.5714285714285714,0.0004
358,1.0891529321670532,1.4736926555633545,0.6923076923076923,0.8269230769230769,0.5,0.5714285714285714,0.0004
359,1.1214525699615479,1.4037736654281616,0.6923076923076923,0.8653846153846154,0.5,0.6428571428571429,0.0004
360,1.073211133480072,1.2104976177215576,0.7307692307692307,0.8461538461538461,0.5,0.8571428571428571,0.0004
361,0.9584526121616364,1.6636579036712646,0.6346153846153846,0.8269230769230769,0.5,0.6428571428571429,0.0004
362,1.1375590562820435,1.2798364162445068,0.6730769230769231,0.8653846153846154,0.42857142857142855,0.9285714285714286,0.0004
363,1.2655816674232483,1.5725891590118408,0.6538461538461539,0.8269230769230769,0.5,0.7142857142857143,0.0004
364,1.292739450931549,1.6205084323883057,0.5961538461538461,0.7692307692307693,0.35714285714285715,0.8571428571428571,0.0004
365,0.9512808918952942,1.548189401626587,0.75,0.8653846153846154,0.35714285714285715,0.7142857142857143,0.0004
366,0.9934715926647186,1.3890982866287231,0.6538461538461539,0.8076923076923077,0.5,0.7142857142857143,0.0004
367,1.0349479019641876,1.5074268579483032,0.6923076923076923,0.8269230769230769,0.42857142857142855,0.8571428571428571,0.0004
368,1.267343819141388,1.673344612121582,0.6153846153846154,0.8269230769230769,0.35714285714285715,0.7142857142857143,0.0004
369,1.2084273099899292,1.6466346979141235,0.6923076923076923,0.7884615384615384,0.5714285714285714,0.6428571428571429,0.0004
370,1.2147418856620789,1.4090607166290283,0.5961538461538461,0.8269230769230769,0.5,0.6428571428571429,0.0004
371,1.1734519600868225,1.9006600379943848,0.6538461538461539,0.7884615384615384,0.5,0.42857142857142855,0.0004
372,1.2224695682525635,1.6737360954284668,0.5769230769230769,0.8461538461538461,0.42857142857142855,0.7857142857142857,0.0004
373,1.2087861895561218,1.4102895259857178,0.6346153846153846,0.8076923076923077,0.5,0.7857142857142857,0.0004
374,1.3774983286857605,1.7699980735778809,0.5576923076923077,0.75,0.5,0.5714285714285714,0.0004
375,1.1798142194747925,1.7917473316192627,0.6153846153846154,0.8461538461538461,0.35714285714285715,0.7142857142857143,0.0004
376,1.244748592376709,1.6520887613296509,0.5576923076923077,0.7692307692307693,0.35714285714285715,0.6428571428571429,0.0004
377,1.1471363306045532,1.7556413412094116,0.6923076923076923,0.8269230769230769,0.35714285714285715,0.5714285714285714,0.0004
378,1.0354533195495605,1.4115879535675049,0.6346153846153846,0.8269230769230769,0.42857142857142855,0.7142857142857143,0.0004
379,1.2017500400543213,1.490785002708435,0.5769230769230769,0.8653846153846154,0.35714285714285715,0.7857142857142857,0.0004
380,1.1575738191604614,1.3612788915634155,0.6538461538461539,0.8269230769230769,0.5,0.8571428571428571,0.0004
381,1.102325201034546,1.594689130783081,0.6153846153846154,0.8653846153846154,0.42857142857142855,0.7857142857142857,0.0004
382,1.0703604817390442,1.4927401542663574,0.6923076923076923,0.8653846153846154,0.42857142857142855,0.8571428571428571,0.0004
383,1.1238454580307007,1.4882012605667114,0.6153846153846154,0.8653846153846154,0.42857142857142855,0.7857142857142857,0.0004
384,1.0721558332443237,1.4077982902526855,0.6538461538461539,0.8461538461538461,0.42857142857142855,0.7142857142857143,0.0004
385,1.1718934178352356,1.6975277662277222,0.5961538461538461,0.8653846153846154,0.35714285714285715,0.7857142857142857,0.0004
386,1.1254262030124664,1.578957438468933,0.6923076923076923,0.8461538461538461,0.5,0.7857142857142857,0.0004
387,1.0075881481170654,1.6601170301437378,0.6923076923076923,0.8653846153846154,0.5,0.7142857142857143,0.0004
388,1.089220404624939,1.7737016677856445,0.7307692307692307,0.8461538461538461,0.42857142857142855,0.7857142857142857,0.0004
389,1.1251425445079803,1.5340557098388672,0.6730769230769231,0.8269230769230769,0.35714285714285715,0.7857142857142857,0.0004
390,1.216585636138916,1.4452424049377441,0.6346153846153846,0.8461538461538461,0.5,0.7857142857142857,0.0004
391,1.10565984249115,1.7698540687561035,0.6538461538461539,0.8461538461538461,0.35714285714285715,0.6428571428571429,0.0004
392,1.2961010932922363,1.8104615211486816,0.5961538461538461,0.8653846153846154,0.35714285714285715,0.42857142857142855,0.0004
393,1.0042214095592499,1.516003131866455,0.75,0.8076923076923077,0.5,0.6428571428571429,0.0004
394,0.9479612708091736,1.527606725692749,0.7307692307692307,0.8461538461538461,0.42857142857142855,0.7857142857142857,0.0004
395,0.9858466386795044,1.8042690753936768,0.6923076923076923,0.8653846153846154,0.42857142857142855,0.7857142857142857,0.0004
396,1.1157259941101074,1.8454368114471436,0.6730769230769231,0.8653846153846154,0.42857142857142855,0.6428571428571429,0.0004
397,1.163536250591278,1.3361035585403442,0.6153846153846154,0.8846153846153846,0.42857142857142855,0.7142857142857143,0.0004
398,1.0635035037994385,1.409775972366333,0.6538461538461539,0.8269230769230769,0.5,0.7142857142857143,0.0004
399,1.0215728878974915,1.4538520574569702,0.6923076923076923,0.8846153846153846,0.42857142857142855,0.7857142857142857,0.0004
400,1.1296876072883606,1.6267591714859009,0.7115384615384616,0.8076923076923077,0.5,0.7142857142857143,0.0004
401,1.0953209400177002,1.7210817337036133,0.6538461538461539,0.8846153846153846,0.42857142857142855,0.5714285714285714,0.0004
402,0.9262228608131409,1.6785078048706055,0.75,0.9038461538461539,0.5,0.6428571428571429,0.0004
403,0.9649641513824463,1.6545525789260864,0.75,0.8653846153846154,0.5714285714285714,0.6428571428571429,0.0004
404,0.9472842216491699,1.3014789819717407,0.7884615384615384,0.8461538461538461,0.6428571428571429,0.7142857142857143,0.0004
405,1.209886074066162,1.6557855606079102,0.6538461538461539,0.8269230769230769,0.5,0.8571428571428571,0.0004
406,1.212926983833313,1.552049160003662,0.6538461538461539,0.8269230769230769,0.5,0.7142857142857143,0.0004
407,0.9365655183792114,1.690961480140686,0.75,0.8653846153846154,0.35714285714285715,0.7857142857142857,0.0004
408,1.031741440296173,1.4628074169158936,0.6923076923076923,0.8461538461538461,0.42857142857142855,0.7142857142857143,0.0004
409,0.9956094622612,1.5409510135650635,0.75,0.8653846153846154,0.5,0.7142857142857143,0.0004
410,0.9746044278144836,1.7466950416564941,0.75,0.8653846153846154,0.42857142857142855,0.6428571428571429,0.0004
411,0.9931188821792603,1.51498281955719,0.7307692307692307,0.8461538461538461,0.35714285714285715,0.7142857142857143,0.0004
412,1.1604165434837341,1.7805383205413818,0.5769230769230769,0.8461538461538461,0.5,0.7142857142857143,0.0004
413,1.0788185000419617,1.9088621139526367,0.6346153846153846,0.8653846153846154,0.35714285714285715,0.7857142857142857,0.0004
414,1.0811774730682373,1.3357889652252197,0.6730769230769231,0.8269230769230769,0.5,0.7142857142857143,0.0004
415,1.027235209941864,1.6916351318359375,0.6730769230769231,0.8653846153846154,0.35714285714285715,0.7857142857142857,0.0004
416,0.889965683221817,1.5864534378051758,0.75,0.8269230769230769,0.42857142857142855,0.7142857142857143,0.0004
417,0.996847927570343,1.938896894454956,0.7115384615384616,0.9038461538461539,0.35714285714285715,0.6428571428571429,0.0004
418,1.1282562613487244,1.7765511274337769,0.6538461538461539,0.8653846153846154,0.35714285714285715,0.7142857142857143,0.0004
419,0.9955915212631226,1.6275990009307861,0.6923076923076923,0.8653846153846154,0.35714285714285715,0.6428571428571429,0.0004
420,1.0603068172931671,1.340570330619812,0.7307692307692307,0.8461538461538461,0.5,0.7857142857142857,0.0004
421,0.8581001162528992,1.529242992401123,0.7307692307692307,0.9038461538461539,0.42857142857142855,0.7142857142857143,0.0004
422,0.9152261912822723,1.3435662984848022,0.6923076923076923,0.8653846153846154,0.5714285714285714,0.8571428571428571,0.0004
423,0.7891336381435394,1.2740641832351685,0.7884615384615384,0.8846153846153846,0.5714285714285714,0.6428571428571429,0.0004
424,1.1151982545852661,1.699544906616211,0.6153846153846154,0.8461538461538461,0.35714285714285715,0.7857142857142857,0.0004
425,1.0942700803279877,1.7979854345321655,0.6730769230769231,0.9038461538461539,0.35714285714285715,0.7142857142857143,0.0004
426,0.8232258856296539,1.8547649383544922,0.75,0.8846153846153846,0.5,0.6428571428571429,0.0004
427,0.9798983633518219,1.8034372329711914,0.6538461538461539,0.8846153846153846,0.42857142857142855,0.6428571428571429,0.0004
428,0.9486375749111176,1.5647342205047607,0.7115384615384616,0.8461538461538461,0.2857142857142857,0.7857142857142857,0.0004
429,1.028069794178009,1.8808324337005615,0.6923076923076923,0.8461538461538461,0.42857142857142855,0.7142857142857143,0.0004
430,0.8956572413444519,1.8944506645202637,0.6923076923076923,0.8846153846153846,0.42857142857142855,0.5714285714285714,0.0004
431,1.0738980770111084,1.8443273305892944,0.6730769230769231,0.8653846153846154,0.5,0.42857142857142855,0.0004
432,1.0212986469268799,1.2193288803100586,0.75,0.8846153846153846,0.5,0.8571428571428571,0.0004
433,1.075473040342331,1.516394019126892,0.7307692307692307,0.8076923076923077,0.42857142857142855,0.8571428571428571,0.0004
434,0.9596060514450073,1.7576745748519897,0.6923076923076923,0.8269230769230769,0.42857142857142855,0.5714285714285714,0.0004
435,1.0865768790245056,2.059669017791748,0.75,0.8076923076923077,0.35714285714285715,0.5714285714285714,0.0004
436,0.9105480909347534,1.681309461593628,0.7115384615384616,0.8653846153846154,0.42857142857142855,0.6428571428571429,0.0004
437,0.94849693775177,1.0783065557479858,0.6346153846153846,0.8846153846153846,0.6428571428571429,0.7857142857142857,0.0004
438,0.9397245347499847,1.3738083839416504,0.7115384615384616,0.8653846153846154,0.5,0.7142857142857143,0.0004
439,1.3395259380340576,1.12012779712677,0.4807692307692308,0.8269230769230769,0.6428571428571429,0.7857142857142857,0.0004
440,1.0415923297405243,1.9105868339538574,0.7115384615384616,0.8653846153846154,0.42857142857142855,0.7142857142857143,0.0004
441,1.1156103014945984,1.9854068756103516,0.5961538461538461,0.8461538461538461,0.42857142857142855,0.5714285714285714,0.0004
442,0.9812787473201752,1.6597529649734497,0.6538461538461539,0.8076923076923077,0.42857142857142855,0.6428571428571429,0.0004
443,0.9513576030731201,1.7152776718139648,0.7307692307692307,0.8269230769230769,0.5,0.6428571428571429,0.0004
444,0.907089501619339,1.6864197254180908,0.7115384615384616,0.8461538461538461,0.35714285714285715,0.7142857142857143,0.0004
445,1.0083120465278625,1.6028919219970703,0.6923076923076923,0.8653846153846154,0.5714285714285714,0.6428571428571429,0.0004
446,0.8310812413692474,1.792468786239624,0.75,0.9230769230769231,0.42857142857142855,0.7142857142857143,0.0004
447,0.9669851362705231,2.101516008377075,0.7115384615384616,0.8269230769230769,0.42857142857142855,0.42857142857142855,0.0004
448,0.9416005611419678,1.9826149940490723,0.6923076923076923,0.8846153846153846,0.35714285714285715,0.5714285714285714,0.0004
449,1.0373354256153107,1.4319809675216675,0.6923076923076923,0.8269230769230769,0.5,0.6428571428571429,0.0004
450,1.0442660748958588,1.7715716361999512,0.6346153846153846,0.9230769230769231,0.5714285714285714,0.5,0.0004
451,0.8568362891674042,1.4061641693115234,0.75,0.9038461538461539,0.5714285714285714,0.6428571428571429,0.0004
452,1.1370217204093933,1.8683984279632568,0.6346153846153846,0.8461538461538461,0.5,0.42857142857142855,0.0004
453,0.9540584087371826,1.5921144485473633,0.6730769230769231,0.9038461538461539,0.5,0.6428571428571429,0.0004
454,0.9267250895500183,1.634582757949829,0.7115384615384616,0.9038461538461539,0.5714285714285714,0.7857142857142857,0.0004
455,0.9795534312725067,1.7258052825927734,0.7115384615384616,0.8653846153846154,0.35714285714285715,0.6428571428571429,0.0004
456,1.0963124930858612,1.418597936630249,0.6346153846153846,0.8461538461538461,0.5,0.7857142857142857,0.0004
457,0.9814121723175049,1.7338085174560547,0.6923076923076923,0.8653846153846154,0.35714285714285715,0.6428571428571429,0.0004
458,1.0236629247665405,1.2065798044204712,0.6923076923076923,0.8653846153846154,0.5,0.7142857142857143,0.0004
459,1.0369214713573456,1.212435245513916,0.6730769230769231,0.8846153846153846,0.5714285714285714,0.9285714285714286,0.0004
460,1.0920772552490234,1.3251137733459473,0.75,0.8653846153846154,0.42857142857142855,0.8571428571428571,0.0004
461,0.8550710082054138,1.3800268173217773,0.75,0.8846153846153846,0.42857142857142855,0.9285714285714286,0.0004
462,0.9164232313632965,1.7863965034484863,0.6923076923076923,0.9038461538461539,0.2857142857142857,0.7142857142857143,0.0004
463,1.0063334703445435,2.002051830291748,0.7115384615384616,0.9038461538461539,0.42857142857142855,0.7142857142857143,0.0004
464,1.094887912273407,1.7885289192199707,0.6538461538461539,0.8076923076923077,0.42857142857142855,0.6428571428571429,0.0004
465,0.8901224732398987,1.597649097442627,0.7307692307692307,0.8846153846153846,0.5,0.7142857142857143,0.0004
466,1.3169694542884827,1.5965828895568848,0.6538461538461539,0.8461538461538461,0.42857142857142855,0.7142857142857143,0.0004
467,0.917225569486618,1.9408360719680786,0.6923076923076923,0.8846153846153846,0.42857142857142855,0.6428571428571429,0.0004
468,1.035291701555252,1.88248872756958,0.7115384615384616,0.8269230769230769,0.42857142857142855,0.5714285714285714,0.0004
469,1.1569453477859497,2.159510850906372,0.6923076923076923,0.7884615384615384,0.42857142857142855,0.42857142857142855,0.0004
470,0.8809392154216766,1.4859874248504639,0.6923076923076923,0.9038461538461539,0.5,0.7857142857142857,0.0004
471,0.939530223608017,1.6449203491210938,0.6730769230769231,0.8653846153846154,0.5,0.7142857142857143,0.0004
472,0.969184398651123,1.4974614381790161,0.6923076923076923,0.9230769230769231,0.5714285714285714,0.7857142857142857,0.0004
473,0.8477809429168701,1.5617527961730957,0.75,0.8461538461538461,0.42857142857142855,0.7857142857142857,0.0004
474,0.9242114722728729,1.2963526248931885,0.75,0.8653846153846154,0.42857142857142855,0.7857142857142857,0.0004
475,1.2042887806892395,1.4839050769805908,0.6730769230769231,0.8846153846153846,0.35714285714285715,0.9285714285714286,0.0004
476,1.0209290385246277,1.8153986930847168,0.6538461538461539,0.8653846153846154,0.35714285714285715,0.6428571428571429,0.0004
477,1.2786974906921387,1.4883615970611572,0.6153846153846154,0.8461538461538461,0.5,0.7142857142857143,0.0004
478,0.9424385130405426,1.8449006080627441,0.7115384615384616,0.8653846153846154,0.42857142857142855,0.7142857142857143,0.0004
479,0.941850483417511,1.7522914409637451,0.7115384615384616,0.8653846153846154,0.5,0.5714285714285714,0.0004
480,1.1030068099498749,1.6706936359405518,0.5961538461538461,0.9038461538461539,0.6428571428571429,0.5714285714285714,0.0004
481,0.9786638021469116,1.361330509185791,0.75,0.8653846153846154,0.5714285714285714,0.7142857142857143,0.0004
482,1.2207311391830444,1.682823896408081,0.6153846153846154,0.8461538461538461,0.42857142857142855,0.7142857142857143,0.0004
483,0.9003222286701202,1.559291124343872,0.7115384615384616,0.8653846153846154,0.35714285714285715,0.8571428571428571,0.0004
484,0.9403471052646637,1.5657377243041992,0.6923076923076923,0.9038461538461539,0.42857142857142855,0.7857142857142857,0.0004
485,0.9146113395690918,1.545496940612793,0.7307692307692307,0.8653846153846154,0.5714285714285714,0.6428571428571429,0.0004
486,0.9947640299797058,2.473437786102295,0.7115384615384616,0.8461538461538461,0.2857142857142857,0.5,0.0004
487,0.7898227572441101,2.0272397994995117,0.7115384615384616,0.9615384615384616,0.35714285714285715,0.5,0.0004
488,0.9517031013965607,1.9971073865890503,0.6153846153846154,0.9038461538461539,0.42857142857142855,0.5,0.0004
489,1.157426118850708,1.5515592098236084,0.7307692307692307,0.8461538461538461,0.5,0.6428571428571429,0.0004
490,1.1860412955284119,1.9249377250671387,0.5961538461538461,0.8269230769230769,0.42857142857142855,0.5714285714285714,0.0004
491,1.0603827834129333,1.4942361116409302,0.6923076923076923,0.8269230769230769,0.5714285714285714,0.7142857142857143,0.0004
492,0.8576442003250122,1.9951484203338623,0.7115384615384616,0.8846153846153846,0.5,0.5,0.0004
493,1.0450066328048706,2.0015816688537598,0.6538461538461539,0.8653846153846154,0.42857142857142855,0.5714285714285714,0.0004
494,1.1634993255138397,2.3965582847595215,0.5961538461538461,0.8076923076923077,0.2857142857142857,0.42857142857142855,0.0004
495,1.1573073267936707,2.1872220039367676,0.6346153846153846,0.8846153846153846,0.2857142857142857,0.6428571428571429,0.0004
496,1.0917310118675232,1.6515617370605469,0.6538461538461539,0.7884615384615384,0.42857142857142855,0.7857142857142857,0.0004
497,0.9134054183959961,1.362161636352539,0.6923076923076923,0.9038461538461539,0.42857142857142855,0.7857142857142857,0.0004
498,0.9626469612121582,1.8230533599853516,0.7307692307692307,0.8269230769230769,0.14285714285714285,0.8571428571428571,0.0004
499,0.9376634955406189,1.4676532745361328,0.7115384615384616,0.8461538461538461,0.35714285714285715,0.8571428571428571,0.0004
500,1.222932517528534,1.8612844944000244,0.6346153846153846,0.8269230769230769,0.42857142857142855,0.6428571428571429,0.0004
501,1.3029788136482239,1.619863510131836,0.5384615384615384,0.8653846153846154,0.2857142857142857,0.8571428571428571,0.0004
502,1.2361578345298767,1.7118818759918213,0.6153846153846154,0.8269230769230769,0.35714285714285715,0.7142857142857143,0.0004
503,1.0534752011299133,1.7421237230300903,0.6730769230769231,0.8653846153846154,0.2857142857142857,0.7142857142857143,0.0004
504,0.8926593363285065,1.631218433380127,0.7307692307692307,0.8269230769230769,0.2857142857142857,0.7857142857142857,0.0004
505,1.1140938699245453,1.5115731954574585,0.7307692307692307,0.8269230769230769,0.42857142857142855,0.8571428571428571,0.0004
506,1.2862437069416046,1.3381760120391846,0.5769230769230769,0.8269230769230769,0.5,0.7857142857142857,0.0004
507,1.0435976386070251,1.9621745347976685,0.7307692307692307,0.8846153846153846,0.2857142857142857,0.7142857142857143,0.0004
508,1.0525572299957275,1.2637133598327637,0.6538461538461539,0.8846153846153846,0.5,0.7142857142857143,0.0004
509,1.071710228919983,1.4850209951400757,0.6346153846153846,0.8846153846153846,0.35714285714285715,0.8571428571428571,0.0004
510,1.279570996761322,1.901723027229309,0.5961538461538461,0.8076923076923077,0.35714285714285715,0.7142857142857143,0.0004
511,1.0487868189811707,1.5230947732925415,0.6730769230769231,0.8653846153846154,0.42857142857142855,0.7857142857142857,0.0004
512,0.8726977705955505,1.8428622484207153,0.7692307692307693,0.8653846153846154,0.42857142857142855,0.6428571428571429,0.0004
513,0.9647057056427002,1.7691459655761719,0.6730769230769231,0.9230769230769231,0.42857142857142855,0.7142857142857143,0.0004
514,1.0600943565368652,1.8004541397094727,0.6923076923076923,0.8461538461538461,0.35714285714285715,0.6428571428571429,0.0004
515,0.9254165887832642,1.3180302381515503,0.7115384615384616,0.8653846153846154,0.5,0.8571428571428571,0.0004
516,1.0531335473060608,1.5285834074020386,0.6923076923076923,0.8461538461538461,0.5,0.7142857142857143,0.0004
517,1.2238420248031616,1.255324125289917,0.6538461538461539,0.8653846153846154,0.5,0.7857142857142857,0.0004
518,1.2591726183891296,1.2284109592437744,0.5769230769230769,0.8269230769230769,0.6428571428571429,0.6428571428571429,0.0004
519,1.285162091255188,1.3699430227279663,0.6153846153846154,0.8653846153846154,0.5714285714285714,0.7857142857142857,0.0004
520,1.1436032056808472,1.9524588584899902,0.6730769230769231,0.8653846153846154,0.42857142857142855,0.5,0.0004
521,1.0488654375076294,1.7276064157485962,0.6730769230769231,0.8461538461538461,0.5,0.5,0.0004
522,0.9060819149017334,1.8758240938186646,0.7692307692307693,0.8846153846153846,0.42857142857142855,0.42857142857142855,0.0004
523,0.997168242931366,2.0245561599731445,0.7115384615384616,0.8653846153846154,0.5,0.42857142857142855,0.0004
524,0.8738419413566589,1.8721437454223633,0.6538461538461539,0.9230769230769231,0.5,0.5,0.0004
525,1.2702553868293762,1.532167911529541,0.5576923076923077,0.8461538461538461,0.5714285714285714,0.6428571428571429,0.0004
526,0.9737177193164825,1.7467308044433594,0.6346153846153846,0.9038461538461539,0.42857142857142855,0.6428571428571429,0.0004
527,0.9369097948074341,1.2632927894592285,0.7115384615384616,0.9038461538461539,0.5,0.9285714285714286,0.0004
528,1.0175408720970154,1.6103482246398926,0.6923076923076923,0.8269230769230769,0.42857142857142855,0.7142857142857143,0.0004
529,0.8781549334526062,1.7538858652114868,0.7307692307692307,0.8653846153846154,0.42857142857142855,0.6428571428571429,0.0004
530,1.0194261372089386,1.8905675411224365,0.6923076923076923,0.8461538461538461,0.35714285714285715,0.5,0.0004
531,0.8691866099834442,1.2342214584350586,0.7692307692307693,0.8653846153846154,0.7142857142857143,0.7142857142857143,0.0004
532,0.9953179955482483,1.3400589227676392,0.75,0.7884615384615384,0.5,0.7857142857142857,0.0004
533,1.0343647301197052,1.460301399230957,0.6346153846153846,0.8846153846153846,0.5714285714285714,0.7857142857142857,0.0004
534,1.0700815916061401,1.8210419416427612,0.6730769230769231,0.8461538461538461,0.35714285714285715,0.7142857142857143,0.0004
535,1.0746869444847107,1.80442214012146,0.6923076923076923,0.8461538461538461,0.42857142857142855,0.6428571428571429,0.0004
536,1.0004883110523224,1.4548925161361694,0.6923076923076923,0.8846153846153846,0.5714285714285714,0.6428571428571429,0.0004
537,0.9714476466178894,1.5035910606384277,0.6730769230769231,0.8653846153846154,0.5,0.7142857142857143,0.0004
538,0.8801157176494598,1.5794475078582764,0.7307692307692307,0.8653846153846154,0.2857142857142857,0.7142857142857143,0.0004
539,0.8098090291023254,1.2706871032714844,0.7884615384615384,0.8846153846153846,0.5,0.7857142857142857,0.0004
540,1.0525059401988983,1.4412437677383423,0.6923076923076923,0.8846153846153846,0.42857142857142855,0.8571428571428571,0.0004
541,0.8812414407730103,1.7027260065078735,0.7115384615384616,0.8461538461538461,0.5,0.6428571428571429,0.0004
542,1.06598299741745,1.9576131105422974,0.7115384615384616,0.8461538461538461,0.42857142857142855,0.5714285714285714,0.0004
543,0.9957461357116699,1.2982534170150757,0.7115384615384616,0.8846153846153846,0.5714285714285714,0.7857142857142857,0.0004
544,1.0750012397766113,1.3098088502883911,0.6923076923076923,0.9038461538461539,0.6428571428571429,0.7142857142857143,0.0004
545,0.8547299802303314,1.272684097290039,0.75,0.8269230769230769,0.6428571428571429,0.6428571428571429,0.0004
546,1.005116879940033,1.4920653104782104,0.7115384615384616,0.8653846153846154,0.5,0.7857142857142857,0.0004
547,1.0378279983997345,1.6928317546844482,0.5961538461538461,0.8461538461538461,0.5,0.5,0.0004
548,0.8871268630027771,1.4017462730407715,0.7692307692307693,0.8461538461538461,0.5,0.8571428571428571,0.0004
549,0.8983579874038696,1.615635871887207,0.7307692307692307,0.8653846153846154,0.5,0.7142857142857143,0.0004
550,1.2093361616134644,1.661854863166809,0.6538461538461539,0.7884615384615384,0.5,0.7857142857142857,0.0004
551,1.1109905242919922,1.5371078252792358,0.6730769230769231,0.8076923076923077,0.42857142857142855,0.8571428571428571,0.0004
552,1.0255690813064575,1.5559115409851074,0.7307692307692307,0.8846153846153846,0.42857142857142855,0.7142857142857143,0.0004
553,1.160448968410492,1.743100881576538,0.6538461538461539,0.8269230769230769,0.5,0.7142857142857143,0.0004
554,1.0238468647003174,1.7962076663970947,0.6923076923076923,0.8653846153846154,0.42857142857142855,0.6428571428571429,0.0004
555,0.84566730260849,1.6013104915618896,0.6923076923076923,0.9423076923076923,0.42857142857142855,0.7142857142857143,0.0004
556,0.9724348485469818,1.6844950914382935,0.7115384615384616,0.8846153846153846,0.5,0.5,0.0004
557,0.8195637166500092,1.6160871982574463,0.75,0.8461538461538461,0.42857142857142855,0.7142857142857143,0.0004
558,1.2021035552024841,1.531510591506958,0.6538461538461539,0.8846153846153846,0.5,0.7142857142857143,0.0004
559,0.8742228746414185,1.3864128589630127,0.6730769230769231,0.9038461538461539,0.5,0.7857142857142857,0.0004
560,0.9535576403141022,1.9068291187286377,0.7115384615384616,0.8653846153846154,0.5714285714285714,0.5714285714285714,0.0004
561,0.9281060099601746,1.4860305786132812,0.75,0.8076923076923077,0.5,0.7857142857142857,0.0004
562,0.9719045162200928,1.7525360584259033,0.6730769230769231,0.9038461538461539,0.5714285714285714,0.42857142857142855,0.0004
563,0.9760885238647461,2.046316385269165,0.6538461538461539,0.8846153846153846,0.42857142857142855,0.42857142857142855,0.0004
564,0.9853434562683105,1.8607103824615479,0.7692307692307693,0.8846153846153846,0.5,0.5,0.0004
565,0.7489646077156067,1.6984398365020752,0.8269230769230769,0.8846153846153846,0.42857142857142855,0.6428571428571429,0.0004
566,0.8654718101024628,2.0958359241485596,0.7307692307692307,0.8846153846153846,0.42857142857142855,0.5,0.0004
567,0.8849710822105408,2.093600034713745,0.75,0.9423076923076923,0.5,0.35714285714285715,0.0004
568,0.8510854840278625,1.7186148166656494,0.7692307692307693,0.8846153846153846,0.42857142857142855,0.5714285714285714,0.0004
569,1.0367672443389893,1.9480247497558594,0.7307692307692307,0.8653846153846154,0.42857142857142855,0.5,0.0004
570,0.8782541751861572,1.6308284997940063,0.7692307692307693,0.8653846153846154,0.5,0.7142857142857143,0.0004
571,1.0067911744117737,1.79838228225708,0.7115384615384616,0.9038461538461539,0.42857142857142855,0.5,0.0004
572,0.9048213362693787,1.919290542602539,0.6730769230769231,0.8653846153846154,0.42857142857142855,0.5,0.0004
573,1.0157636106014252,1.8614559173583984,0.6923076923076923,0.8653846153846154,0.42857142857142855,0.6428571428571429,0.0004
574,0.6640005111694336,1.9295823574066162,0.8461538461538461,0.9038461538461539,0.42857142857142855,0.7142857142857143,0.0004
575,1.024438053369522,1.9093109369277954,0.6730769230769231,0.8461538461538461,0.2857142857142857,0.7857142857142857,0.0004
576,0.9046526849269867,1.8962301015853882,0.7692307692307693,0.7884615384615384,0.35714285714285715,0.7142857142857143,0.0004
577,0.8774492740631104,1.3622369766235352,0.7115384615384616,0.8653846153846154,0.5714285714285714,0.7142857142857143,0.0004
578,1.0884734988212585,1.5204558372497559,0.6538461538461539,0.8653846153846154,0.5,0.6428571428571429,0.0004
579,1.0138013064861298,1.695770025253296,0.7307692307692307,0.8653846153846154,0.42857142857142855,0.7857142857142857,0.0004
580,0.6948463916778564,1.9806610345840454,0.8076923076923077,0.9038461538461539,0.5,0.6428571428571429,0.0004
581,1.133977234363556,1.5850701332092285,0.6730769230769231,0.9038461538461539,0.42857142857142855,0.7857142857142857,0.0004
582,1.033274531364441,1.6285011768341064,0.6153846153846154,0.9038461538461539,0.5,0.7142857142857143,0.0004
583,1.0090504586696625,1.4776055812835693,0.6538461538461539,0.9230769230769231,0.42857142857142855,0.7857142857142857,0.0004
584,1.0673020780086517,1.868473768234253,0.6346153846153846,0.8653846153846154,0.5,0.6428571428571429,0.0004
585,0.987387478351593,1.8610657453536987,0.75,0.8076923076923077,0.5,0.42857142857142855,0.0004
586,1.0525292456150055,1.7417097091674805,0.6923076923076923,0.8461538461538461,0.5,0.6428571428571429,0.0004
587,0.9484374821186066,1.3189369440078735,0.75,0.8269230769230769,0.5714285714285714,0.7857142857142857,0.0004
588,1.0347256064414978,1.3287538290023804,0.7115384615384616,0.8846153846153846,0.5,0.7857142857142857,0.0004
589,1.1176153123378754,1.5185185670852661,0.6346153846153846,0.8461538461538461,0.5,0.7857142857142857,0.0004
590,0.8189622461795807,2.0295419692993164,0.7115384615384616,0.9038461538461539,0.35714285714285715,0.6428571428571429,0.0004
591,0.9572097659111023,1.5189234018325806,0.6538461538461539,0.8846153846153846,0.2857142857142857,0.8571428571428571,0.0004
592,0.937081515789032,1.9471144676208496,0.75,0.8653846153846154,0.35714285714285715,0.8571428571428571,0.0004
593,1.1591129899024963,2.1173715591430664,0.6153846153846154,0.8653846153846154,0.42857142857142855,0.6428571428571429,0.0004
594,0.9039180874824524,1.8308086395263672,0.7692307692307693,0.8653846153846154,0.42857142857142855,0.7857142857142857,0.0004
595,1.1027065515518188,1.6970453262329102,0.6923076923076923,0.8461538461538461,0.35714285714285715,0.7857142857142857,0.0004
596,0.9518713355064392,1.9651968479156494,0.75,0.8461538461538461,0.35714285714285715,0.5714285714285714,0.0004
597,1.0303005576133728,1.5829253196716309,0.6538461538461539,0.8461538461538461,0.35714285714285715,0.7857142857142857,0.0004
598,1.2944421768188477,1.5253840684890747,0.5961538461538461,0.8461538461538461,0.5,0.7857142857142857,0.0004
599,1.271552324295044,1.3259270191192627,0.6538461538461539,0.8076923076923077,0.5,0.7857142857142857,0.0004
600,0.9827632904052734,1.5638892650604248,0.6730769230769231,0.9038461538461539,0.42857142857142855,0.7142857142857143,0.0004
601,1.2331613898277283,1.971360683441162,0.6923076923076923,0.8269230769230769,0.42857142857142855,0.7142857142857143,0.0004
602,0.8370636999607086,1.9950649738311768,0.6923076923076923,0.9615384615384616,0.42857142857142855,0.6428571428571429,0.0004
603,0.9432350993156433,1.7472108602523804,0.7115384615384616,0.8461538461538461,0.42857142857142855,0.6428571428571429,0.0004
604,1.054059237241745,1.6305149793624878,0.7307692307692307,0.8461538461538461,0.5,0.7142857142857143,0.0004
605,1.050764411687851,1.734011173248291,0.75,0.8846153846153846,0.5714285714285714,0.6428571428571429,0.0004
606,1.183056652545929,1.72568678855896,0.5384615384615384,0.8269230769230769,0.2857142857142857,0.7142857142857143,0.0004
607,1.1128201484680176,1.367780327796936,0.6346153846153846,0.8653846153846154,0.5,0.7857142857142857,0.0004
608,1.0532415509223938,1.836430311203003,0.6923076923076923,0.8846153846153846,0.42857142857142855,0.5714285714285714,0.0004
609,1.110120266675949,1.2410740852355957,0.6730769230769231,0.8269230769230769,0.6428571428571429,0.6428571428571429,0.0004
610,0.8534100949764252,1.0375975370407104,0.7884615384615384,0.8653846153846154,0.7142857142857143,0.7857142857142857,0.0004
611,1.1591371893882751,1.3904985189437866,0.75,0.7884615384615384,0.6428571428571429,0.7857142857142857,0.0004
612,1.1262619495391846,1.4007439613342285,0.6730769230769231,0.8269230769230769,0.5,0.7142857142857143,0.0004
613,1.1076499223709106,1.2048420906066895,0.6538461538461539,0.9038461538461539,0.5,0.6428571428571429,0.0004
614,0.9309593737125397,0.9813970327377319,0.75,0.8076923076923077,0.7142857142857143,0.7857142857142857,0.0004
615,0.9036648571491241,1.4644558429718018,0.75,0.8269230769230769,0.35714285714285715,0.7857142857142857,0.0004
616,0.9266200959682465,1.309072494506836,0.6730769230769231,0.8846153846153846,0.5,0.9285714285714286,0.0004
617,0.9785791039466858,1.6282857656478882,0.7115384615384616,0.8653846153846154,0.42857142857142855,0.7857142857142857,0.0004
618,0.7925589084625244,1.488481879234314,0.8269230769230769,0.8653846153846154,0.5,0.8571428571428571,0.0004
619,0.9293666779994965,1.6956031322479248,0.7692307692307693,0.9038461538461539,0.42857142857142855,0.6428571428571429,0.0004
620,1.0394288003444672,1.9891562461853027,0.6538461538461539,0.8461538461538461,0.42857142857142855,0.7142857142857143,0.0004
621,0.8532235622406006,2.4844980239868164,0.75,0.9038461538461539,0.35714285714285715,0.42857142857142855,0.0004
622,0.9128823578357697,2.1771810054779053,0.7307692307692307,0.8846153846153846,0.42857142857142855,0.5,0.0004
623,0.9863696992397308,1.6764700412750244,0.7307692307692307,0.8846153846153846,0.5714285714285714,0.6428571428571429,0.0004
624,1.1441025137901306,2.2773044109344482,0.7307692307692307,0.7884615384615384,0.42857142857142855,0.5,0.0004
625,0.9826494455337524,2.0659403800964355,0.7115384615384616,0.9230769230769231,0.5,0.42857142857142855,0.0004
626,1.2490990161895752,1.6945390701293945,0.6346153846153846,0.8269230769230769,0.5,0.6428571428571429,0.0004
627,0.9807994961738586,1.7007317543029785,0.7115384615384616,0.8653846153846154,0.42857142857142855,0.7142857142857143,0.0004
628,0.7695033550262451,1.8975467681884766,0.75,0.9230769230769231,0.35714285714285715,0.5714285714285714,0.0004
629,0.7067277431488037,1.580766201019287,0.8076923076923077,0.9038461538461539,0.2857142857142857,0.7857142857142857,0.0004
630,0.8880965709686279,2.1346018314361572,0.6730769230769231,0.8653846153846154,0.35714285714285715,0.5714285714285714,0.0004
631,0.8062487840652466,1.8847832679748535,0.8076923076923077,0.8846153846153846,0.5,0.6428571428571429,0.0004
632,0.7669267058372498,1.5766115188598633,0.75,0.8846153846153846,0.2857142857142857,0.7857142857142857,0.0004
633,1.064420223236084,1.5367989540100098,0.7115384615384616,0.8846153846153846,0.21428571428571427,0.8571428571428571,0.0004
634,0.8937684297561646,1.2833746671676636,0.7307692307692307,0.8653846153846154,0.42857142857142855,0.8571428571428571,0.0004
635,1.0600886642932892,1.7414430379867554,0.6730769230769231,0.8461538461538461,0.42857142857142855,0.7142857142857143,0.0004
636,0.893518328666687,1.6854112148284912,0.7115384615384616,0.9423076923076923,0.35714285714285715,0.6428571428571429,0.0004
637,1.1491752862930298,1.8701521158218384,0.6538461538461539,0.8076923076923077,0.5,0.5714285714285714,0.0004
638,1.1032243967056274,1.4302234649658203,0.7115384615384616,0.8653846153846154,0.5714285714285714,0.6428571428571429,0.0004
639,0.8520171046257019,1.9677958488464355,0.6730769230769231,0.9423076923076923,0.42857142857142855,0.5,0.0004
640,0.8962969481945038,1.157318353652954,0.6923076923076923,0.8461538461538461,0.6428571428571429,0.7857142857142857,0.0004
641,0.9005591869354248,1.0427190065383911,0.7884615384615384,0.9038461538461539,0.7142857142857143,0.8571428571428571,0.0004
642,1.0782431662082672,2.1877694129943848,0.6538461538461539,0.8461538461538461,0.2857142857142857,0.5714285714285714,0.0004
643,0.957980215549469,1.4695382118225098,0.7307692307692307,0.8846153846153846,0.42857142857142855,0.7857142857142857,0.0004
644,0.898794025182724,2.115424394607544,0.75,0.8461538461538461,0.42857142857142855,0.5,0.0004
645,0.9972497522830963,1.8974754810333252,0.7115384615384616,0.8461538461538461,0.42857142857142855,0.7142857142857143,0.0004
646,0.918548971414566,1.9026731252670288,0.75,0.8846153846153846,0.42857142857142855,0.7857142857142857,0.0004
647,0.7557120025157928,1.7328131198883057,0.7692307692307693,0.9038461538461539,0.35714285714285715,0.8571428571428571,0.0004
648,0.9619676470756531,1.7843339443206787,0.7115384615384616,0.9230769230769231,0.42857142857142855,0.7857142857142857,0.0004
649,1.0580626726150513,1.2903382778167725,0.6538461538461539,0.9038461538461539,0.5714285714285714,0.8571428571428571,0.0004
650,1.218650460243225,2.0225915908813477,0.6538461538461539,0.8653846153846154,0.5,0.5,0.0004
651,0.8921235203742981,1.6811519861221313,0.7307692307692307,0.8269230769230769,0.5714285714285714,0.5,0.0004
652,0.8969526588916779,1.7149754762649536,0.75,0.9038461538461539,0.5,0.6428571428571429,0.0004
653,0.9994338750839233,2.173457145690918,0.6730769230769231,0.9038461538461539,0.5,0.6428571428571429,0.0004
654,0.8571942746639252,2.0375125408172607,0.7692307692307693,0.8269230769230769,0.5,0.42857142857142855,0.0004
655,1.0382205843925476,2.123497247695923,0.7307692307692307,0.8076923076923077,0.35714285714285715,0.5714285714285714,0.0004
656,1.0727657675743103,1.777282476425171,0.6730769230769231,0.8076923076923077,0.5,0.6428571428571429,0.0004
657,1.1029739379882812,1.9277973175048828,0.6923076923076923,0.7884615384615384,0.2857142857142857,0.7142857142857143,0.0004
658,1.0861021876335144,1.6427199840545654,0.6538461538461539,0.8461538461538461,0.5,0.6428571428571429,0.0004
659,1.04547119140625,1.2547506093978882,0.6538461538461539,0.8653846153846154,0.5,0.9285714285714286,0.0004
660,0.8778947591781616,1.5287556648254395,0.7307692307692307,0.9038461538461539,0.2857142857142857,0.8571428571428571,0.0004
661,1.006939947605133,1.675691843032837,0.7692307692307693,0.7884615384615384,0.35714285714285715,0.7142857142857143,0.0004
662,0.901668131351471,1.2772853374481201,0.7307692307692307,0.9230769230769231,0.6428571428571429,0.7142857142857143,0.0004
663,1.1842551827430725,0.8807865381240845,0.6153846153846154,0.8269230769230769,0.7142857142857143,0.9285714285714286,0.0004
664,0.8986791372299194,1.7313309907913208,0.6538461538461539,0.9038461538461539,0.5,0.7857142857142857,0.0004
665,0.986065536737442,1.3134976625442505,0.7115384615384616,0.8846153846153846,0.5,0.7857142857142857,0.0004
666,1.0147430300712585,1.4273639917373657,0.6923076923076923,0.9038461538461539,0.6428571428571429,0.7142857142857143,0.0004
667,1.09830242395401,1.393394947052002,0.6730769230769231,0.8076923076923077,0.5,0.8571428571428571,0.0004
668,0.9605759978294373,1.2746813297271729,0.6538461538461539,0.9230769230769231,0.5,0.7142857142857143,0.0004
669,0.97087162733078,1.495429515838623,0.7307692307692307,0.9038461538461539,0.5,0.6428571428571429,0.0004
670,0.8497564494609833,1.531305193901062,0.75,0.8653846153846154,0.5714285714285714,0.6428571428571429,0.0004
671,1.1094014048576355,2.0435447692871094,0.6538461538461539,0.8269230769230769,0.42857142857142855,0.5,0.0004
672,0.8327442407608032,1.7862941026687622,0.7115384615384616,0.9230769230769231,0.5,0.6428571428571429,0.0004
673,0.9097928106784821,1.9502995014190674,0.7307692307692307,0.9038461538461539,0.5,0.5,0.0004
674,0.9754424095153809,1.5243804454803467,0.6923076923076923,0.9038461538461539,0.5,0.7142857142857143,0.0004
675,1.0133381485939026,1.806389331817627,0.6538461538461539,0.9038461538461539,0.35714285714285715,0.6428571428571429,0.0004
676,0.9162149429321289,1.6231108903884888,0.7692307692307693,0.8653846153846154,0.42857142857142855,0.7857142857142857,0.0004
677,1.134641408920288,1.8100130558013916,0.5769230769230769,0.8846153846153846,0.35714285714285715,0.6428571428571429,0.0004
678,0.8974722325801849,1.9976592063903809,0.6730769230769231,0.8846153846153846,0.42857142857142855,0.5,0.0004
679,0.9299439787864685,1.814880609512329,0.7115384615384616,0.9038461538461539,0.35714285714285715,0.5714285714285714,0.0004
680,1.0288709700107574,1.750774621963501,0.6923076923076923,0.8653846153846154,0.5,0.5714285714285714,0.0004
681,0.9400618076324463,1.8532865047454834,0.7115384615384616,0.8653846153846154,0.5714285714285714,0.5714285714285714,0.0004
682,0.9275278449058533,1.9558371305465698,0.5576923076923077,0.9230769230769231,0.5,0.5714285714285714,0.0004
683,0.7905623316764832,2.2730884552001953,0.8076923076923077,0.8846153846153846,0.5,0.42857142857142855,0.0004
684,1.0006325840950012,1.9394197463989258,0.7307692307692307,0.8461538461538461,0.42857142857142855,0.6428571428571429,0.0004
685,0.9122671186923981,1.3437849283218384,0.7115384615384616,0.9038461538461539,0.7142857142857143,0.5714285714285714,0.0004
686,0.8141713440418243,1.9115524291992188,0.7692307692307693,0.9038461538461539,0.5714285714285714,0.42857142857142855,0.0004
687,1.15465646982193,1.7207016944885254,0.7115384615384616,0.8846153846153846,0.42857142857142855,0.6428571428571429,0.0004
688,1.2844584584236145,1.6691248416900635,0.6346153846153846,0.8269230769230769,0.35714285714285715,0.7857142857142857,0.0004
689,0.9128601551055908,1.9613862037658691,0.6153846153846154,0.9615384615384616,0.42857142857142855,0.5714285714285714,0.0004
690,0.9817476868629456,1.9526222944259644,0.7307692307692307,0.8269230769230769,0.42857142857142855,0.7142857142857143,0.0004
691,1.06655952334404,2.2580833435058594,0.6923076923076923,0.8846153846153846,0.5,0.5714285714285714,0.0004
692,0.9445691406726837,1.876664638519287,0.7307692307692307,0.8461538461538461,0.42857142857142855,0.6428571428571429,0.0004
693,1.2020397782325745,2.0471725463867188,0.6346153846153846,0.8461538461538461,0.35714285714285715,0.5714285714285714,0.0004
694,0.8848798871040344,1.4472334384918213,0.7115384615384616,0.8846153846153846,0.5714285714285714,0.7142857142857143,0.0004
695,0.8890020251274109,1.519752025604248,0.7115384615384616,0.8653846153846154,0.5,0.7142857142857143,0.0004
696,1.0509496927261353,1.574761152267456,0.6346153846153846,0.8653846153846154,0.5714285714285714,0.7857142857142857,0.0004
697,1.3127350509166718,1.4669582843780518,0.6730769230769231,0.8269230769230769,0.5714285714285714,0.7142857142857143,0.0004
698,1.0075696110725403,2.036668300628662,0.7307692307692307,0.8461538461538461,0.42857142857142855,0.5714285714285714,0.0004
699,0.8549742996692657,1.5586134195327759,0.7307692307692307,0.9038461538461539,0.5714285714285714,0.8571428571428571,0.0004
700,0.9740450084209442,1.580583095550537,0.6923076923076923,0.8461538461538461,0.5,0.7142857142857143,0.0004
701,1.0324249267578125,1.615166187286377,0.7115384615384616,0.9038461538461539,0.5714285714285714,0.5714285714285714,0.0004
702,1.006108045578003,1.7878990173339844,0.7115384615384616,0.9230769230769231,0.2857142857142857,0.7142857142857143,0.0004
703,0.9741749167442322,1.7265422344207764,0.6923076923076923,0.9230769230769231,0.42857142857142855,0.7142857142857143,0.0004
704,1.081824004650116,1.7772525548934937,0.6346153846153846,0.8653846153846154,0.42857142857142855,0.5714285714285714,0.0004
705,0.774944543838501,1.5435986518859863,0.7307692307692307,0.9230769230769231,0.5,0.7857142857142857,0.0004
706,1.0228204429149628,1.4201182126998901,0.7115384615384616,0.8461538461538461,0.5,0.7857142857142857,0.0004
707,0.8011333346366882,2.1839540004730225,0.7692307692307693,0.8846153846153846,0.21428571428571427,0.5714285714285714,0.0004
708,0.9997174143791199,1.7263598442077637,0.7307692307692307,0.8653846153846154,0.42857142857142855,0.7142857142857143,0.0004
709,1.046638548374176,1.8170053958892822,0.6346153846153846,0.9038461538461539,0.2857142857142857,0.7857142857142857,0.0004
710,0.7305875420570374,1.351474642753601,0.8653846153846154,0.8846153846153846,0.42857142857142855,0.7857142857142857,0.0004
711,1.1159629225730896,2.1249709129333496,0.6538461538461539,0.8653846153846154,0.42857142857142855,0.42857142857142855,0.0004
712,1.022749125957489,1.8832855224609375,0.6730769230769231,0.9038461538461539,0.42857142857142855,0.6428571428571429,0.0004
713,0.8838118612766266,1.2666738033294678,0.7692307692307693,0.8653846153846154,0.6428571428571429,0.7142857142857143,0.0004
714,1.0277676582336426,1.315821647644043,0.6538461538461539,0.8653846153846154,0.5714285714285714,0.7857142857142857,0.0004
715,1.0738325119018555,2.0894241333007812,0.7115384615384616,0.8076923076923077,0.35714285714285715,0.5714285714285714,0.0004
716,1.1176450848579407,1.7447859048843384,0.6153846153846154,0.8461538461538461,0.5714285714285714,0.6428571428571429,0.0004
717,0.9115204811096191,1.7881361246109009,0.7307692307692307,0.8653846153846154,0.35714285714285715,0.7142857142857143,0.0004
718,0.9087039530277252,1.7009669542312622,0.75,0.8653846153846154,0.42857142857142855,0.6428571428571429,0.0004
719,1.0211578607559204,1.5678367614746094,0.75,0.9038461538461539,0.42857142857142855,0.7142857142857143,0.0004
720,0.8314894437789917,1.281705617904663,0.75,0.9038461538461539,0.5,0.7857142857142857,0.0004
721,0.6506783366203308,1.3135225772857666,0.8076923076923077,0.9038461538461539,0.5,0.8571428571428571,0.0004
722,1.1202709078788757,1.4346723556518555,0.6346153846153846,0.8653846153846154,0.42857142857142855,0.7857142857142857,0.0004
723,1.0976656079292297,1.4310505390167236,0.6346153846153846,0.8653846153846154,0.42857142857142855,0.7857142857142857,0.0004
724,0.9432242810726166,1.65349543094635,0.7115384615384616,0.9038461538461539,0.35714285714285715,0.6428571428571429,0.0004
725,0.9047836661338806,1.782749891281128,0.7115384615384616,0.8653846153846154,0.5,0.5714285714285714,0.0004
726,1.1193791031837463,1.4470915794372559,0.5769230769230769,0.8653846153846154,0.5,0.7142857142857143,0.0004
727,0.907848984003067,1.4268684387207031,0.7692307692307693,0.9230769230769231,0.6428571428571429,0.7142857142857143,0.0004
728,0.8816240429878235,1.4734179973602295,0.6730769230769231,0.9038461538461539,0.5,0.7857142857142857,0.0004
729,1.0436508059501648,1.0044734477996826,0.6730769230769231,0.8269230769230769,0.5,1.0,0.0004
730,1.2144813537597656,1.5249825716018677,0.6153846153846154,0.8653846153846154,0.42857142857142855,0.7857142857142857,0.0004
731,1.0023297667503357,1.496443271636963,0.6923076923076923,0.8846153846153846,0.5,0.6428571428571429,0.0004
732,0.9035284519195557,1.551742434501648,0.7115384615384616,0.9230769230769231,0.21428571428571427,0.7857142857142857,0.0004
733,0.9411302804946899,1.5053191184997559,0.6730769230769231,0.8653846153846154,0.42857142857142855,0.9285714285714286,0.0004
734,1.1853142082691193,1.7498853206634521,0.6153846153846154,0.7884615384615384,0.2857142857142857,0.7857142857142857,0.0004
735,1.0104316174983978,1.5664207935333252,0.6153846153846154,0.9230769230769231,0.5,0.5714285714285714,0.0004
736,0.9359329044818878,1.4184232950210571,0.7115384615384616,0.8846153846153846,0.35714285714285715,0.7857142857142857,0.0004
737,1.2010098695755005,1.738715410232544,0.75,0.8269230769230769,0.5,0.7142857142857143,0.0004
738,0.9919593930244446,1.2845704555511475,0.6923076923076923,0.9230769230769231,0.5714285714285714,0.8571428571428571,0.0004
739,1.0473236441612244,1.7042953968048096,0.6346153846153846,0.9230769230769231,0.35714285714285715,0.7857142857142857,0.0004
740,0.9741659760475159,1.3213918209075928,0.6346153846153846,0.9423076923076923,0.42857142857142855,0.8571428571428571,0.0004
741,0.7997531592845917,1.947462797164917,0.7692307692307693,0.8846153846153846,0.35714285714285715,0.6428571428571429,0.0004
742,0.9869446158409119,1.7983217239379883,0.7307692307692307,0.8653846153846154,0.5714285714285714,0.7142857142857143,0.0004
743,1.0626841187477112,1.6266508102416992,0.7115384615384616,0.8846153846153846,0.42857142857142855,0.7857142857142857,0.0004
744,0.8633436560630798,1.6219465732574463,0.7307692307692307,0.8653846153846154,0.5,0.7857142857142857,0.0004
745,1.074958622455597,1.4671895503997803,0.7115384615384616,0.8461538461538461,0.5,0.7142857142857143,0.0004
746,0.8260793089866638,1.396772861480713,0.6923076923076923,0.9038461538461539,0.5,0.7142857142857143,0.0004
747,0.8818473219871521,1.6195979118347168,0.7307692307692307,0.9423076923076923,0.5,0.7142857142857143,0.0004
748,0.7432738542556763,1.3608715534210205,0.75,0.8846153846153846,0.5,0.7857142857142857,0.0004
749,0.9873723685741425,1.6435010433197021,0.6153846153846154,0.9423076923076923,0.5,0.7857142857142857,0.0004
750,0.7315047085285187,1.1474095582962036,0.7884615384615384,0.8653846153846154,0.7857142857142857,0.7142857142857143,0.0004
751,0.9998880326747894,1.5156621932983398,0.7115384615384616,0.8269230769230769,0.5,0.7142857142857143,0.0004
752,0.993645042181015,1.7579265832901,0.7115384615384616,0.8461538461538461,0.35714285714285715,0.7857142857142857,0.0004
753,0.8787202835083008,1.6459310054779053,0.75,0.8653846153846154,0.5,0.5,0.0004
754,0.9068278074264526,1.3952546119689941,0.7692307692307693,0.8846153846153846,0.35714285714285715,0.8571428571428571,0.0004
755,0.918830156326294,1.7539362907409668,0.6538461538461539,0.9230769230769231,0.5,0.5714285714285714,0.0004
756,0.6221439838409424,1.4598970413208008,0.8461538461538461,0.9038461538461539,0.5714285714285714,0.7142857142857143,0.0004
757,1.1643502712249756,1.4871180057525635,0.6153846153846154,0.8461538461538461,0.5714285714285714,0.7857142857142857,0.0004
758,1.0976045727729797,1.755899429321289,0.7115384615384616,0.8653846153846154,0.42857142857142855,0.7142857142857143,0.0004
759,0.993460088968277,1.4553420543670654,0.7115384615384616,0.9038461538461539,0.5714285714285714,0.6428571428571429,0.0004
760,1.12478506565094,1.7453469038009644,0.6923076923076923,0.8653846153846154,0.35714285714285715,0.5714285714285714,0.0004
761,1.0607094764709473,1.664802074432373,0.6730769230769231,0.8461538461538461,0.5,0.7857142857142857,0.0004
762,0.8385219573974609,1.1657752990722656,0.6538461538461539,0.9230769230769231,0.5,0.7857142857142857,0.0004
763,0.9070083498954773,1.3654390573501587,0.6538461538461539,0.8846153846153846,0.6428571428571429,0.7857142857142857,0.0004
764,0.833782821893692,1.6031923294067383,0.7115384615384616,0.9423076923076923,0.42857142857142855,0.7857142857142857,0.0004
765,1.1566757559776306,1.5757009983062744,0.6923076923076923,0.8076923076923077,0.42857142857142855,0.7142857142857143,0.0004
766,0.878730058670044,1.48777174949646,0.8461538461538461,0.7884615384615384,0.35714285714285715,0.9285714285714286,0.0004
767,1.101117730140686,1.4958032369613647,0.7307692307692307,0.8076923076923077,0.5714285714285714,0.7142857142857143,0.0004
768,0.7689459323883057,1.7474730014801025,0.8269230769230769,0.9038461538461539,0.42857142857142855,0.6428571428571429,0.0004
769,0.8875462114810944,1.792048692703247,0.7307692307692307,0.9423076923076923,0.35714285714285715,0.7142857142857143,0.0004
770,1.0122525691986084,1.725386381149292,0.7884615384615384,0.8461538461538461,0.5,0.6428571428571429,0.0004
771,1.0138794779777527,1.5230607986450195,0.7692307692307693,0.8076923076923077,0.35714285714285715,0.7857142857142857,0.0004
772,0.9655495285987854,1.6477162837982178,0.75,0.8461538461538461,0.2857142857142857,0.8571428571428571,0.0004
773,0.9067200124263763,1.5034476518630981,0.7692307692307693,0.9230769230769231,0.42857142857142855,0.8571428571428571,0.0004
774,0.9433189630508423,1.2608803510665894,0.7115384615384616,0.9038461538461539,0.5,0.8571428571428571,0.0004
775,0.8874384164810181,1.6943097114562988,0.7115384615384616,0.9230769230769231,0.42857142857142855,0.6428571428571429,0.0004
776,0.9614270329475403,1.1711771488189697,0.7307692307692307,0.9230769230769231,0.7142857142857143,0.6428571428571429,0.0004
777,0.9664754867553711,1.6623435020446777,0.75,0.8846153846153846,0.6428571428571429,0.7857142857142857,0.0004
778,1.1035298109054565,2.0541837215423584,0.6346153846153846,0.8653846153846154,0.35714285714285715,0.5,0.0004
779,0.8714450895786285,1.4782018661499023,0.75,0.8269230769230769,0.42857142857142855,0.7857142857142857,0.0004
780,0.8490196764469147,1.0882110595703125,0.75,0.9230769230769231,0.7857142857142857,0.7142857142857143,0.0004
781,0.9235180914402008,1.4217411279678345,0.75,0.8846153846153846,0.42857142857142855,0.8571428571428571,0.0004
782,0.8007564544677734,1.7311346530914307,0.75,0.9230769230769231,0.5,0.6428571428571429,0.0004
783,0.8947023749351501,1.6164028644561768,0.7692307692307693,0.8846153846153846,0.5,0.6428571428571429,0.0004
784,0.8662385046482086,1.5409998893737793,0.6923076923076923,0.9423076923076923,0.5,0.7142857142857143,0.0004
785,0.8483098745346069,1.915832757949829,0.6923076923076923,0.9230769230769231,0.35714285714285715,0.7857142857142857,0.0004
786,0.9803011417388916,1.9790351390838623,0.6730769230769231,0.8076923076923077,0.35714285714285715,0.6428571428571429,0.0004
787,1.0136102735996246,1.7770990133285522,0.75,0.8269230769230769,0.5,0.7142857142857143,0.0004
788,0.9914877414703369,2.0537590980529785,0.6730769230769231,0.8846153846153846,0.5,0.6428571428571429,0.0004
789,0.8388414084911346,2.2840070724487305,0.7115384615384616,0.9038461538461539,0.42857142857142855,0.5,0.0004
790,0.9541651010513306,1.9325987100601196,0.6923076923076923,0.8269230769230769,0.2857142857142857,0.6428571428571429,0.0004
791,1.0097576379776,1.5520658493041992,0.6346153846153846,0.8846153846153846,0.5,0.7857142857142857,0.0004
792,0.7886461317539215,1.866811752319336,0.7692307692307693,0.8653846153846154,0.2857142857142857,0.7857142857142857,0.0004
793,1.013936311006546,1.6381990909576416,0.7884615384615384,0.8653846153846154,0.42857142857142855,0.7857142857142857,0.0004
794,0.9736759960651398,1.9014734029769897,0.6730769230769231,0.9038461538461539,0.35714285714285715,0.7142857142857143,0.0004
795,1.1677669882774353,2.0670385360717773,0.6538461538461539,0.8846153846153846,0.5,0.6428571428571429,0.0004
796,0.9405902028083801,1.9862303733825684,0.7307692307692307,0.9230769230769231,0.35714285714285715,0.5714285714285714,0.0004
797,1.0166242122650146,1.6883840560913086,0.7307692307692307,0.8653846153846154,0.42857142857142855,0.7142857142857143,0.0004
798,0.8763051331043243,1.0896704196929932,0.75,0.9615384615384616,0.7142857142857143,0.7857142857142857,0.0004
799,0.9494853913784027,1.248148798942566,0.6923076923076923,0.8846153846153846,0.7142857142857143,0.7142857142857143,0.0004
800,0.6984695196151733,0.9416447877883911,0.75,0.8846153846153846,0.5714285714285714,0.8571428571428571,0.0004
801,1.01816064119339,1.182795763015747,0.75,0.8269230769230769,0.35714285714285715,0.7142857142857143,0.0004
802,1.0749847292900085,1.5130136013031006,0.6923076923076923,0.8846153846153846,0.5714285714285714,0.6428571428571429,0.0004
803,0.9828693270683289,1.8409910202026367,0.7692307692307693,0.8653846153846154,0.5,0.5,0.0004
804,0.8263910710811615,1.9068899154663086,0.75,0.8846153846153846,0.42857142857142855,0.5714285714285714,0.0004
805,0.8840739727020264,1.7848405838012695,0.6923076923076923,0.8653846153846154,0.5714285714285714,0.6428571428571429,0.0004
806,1.0499786138534546,1.9314837455749512,0.7307692307692307,0.8653846153846154,0.5,0.5714285714285714,0.0004
807,1.032095491886139,1.5120811462402344,0.6730769230769231,0.8653846153846154,0.5,0.7142857142857143,0.0004
808,0.9668709635734558,1.6285645961761475,0.6730769230769231,0.8846153846153846,0.42857142857142855,0.7142857142857143,0.0004
809,1.0063847303390503,1.5988667011260986,0.6538461538461539,0.8653846153846154,0.5714285714285714,0.5714285714285714,0.0004
810,1.2657799124717712,1.5724432468414307,0.6923076923076923,0.8269230769230769,0.35714285714285715,0.7857142857142857,0.0004
811,0.9713380634784698,1.5931715965270996,0.75,0.9230769230769231,0.42857142857142855,0.7142857142857143,0.0004
812,0.8043049573898315,1.3932404518127441,0.7307692307692307,0.8846153846153846,0.6428571428571429,0.7857142857142857,0.0004
813,1.031107097864151,1.236159086227417,0.6346153846153846,0.8846153846153846,0.5714285714285714,0.7142857142857143,0.0004
814,0.8344359695911407,1.4670462608337402,0.75,0.8653846153846154,0.42857142857142855,0.8571428571428571,0.0004
815,1.0020842552185059,1.9791291952133179,0.7115384615384616,0.8461538461538461,0.42857142857142855,0.5,0.0004
816,1.0615569949150085,1.9295847415924072,0.6730769230769231,0.8461538461538461,0.5,0.5,0.0004
817,1.026938647031784,1.8836965560913086,0.6923076923076923,0.8653846153846154,0.42857142857142855,0.5714285714285714,0.0004
818,1.0778430700302124,1.889651894569397,0.6923076923076923,0.8653846153846154,0.5714285714285714,0.42857142857142855,0.0004
819,0.9966683983802795,1.702347993850708,0.7115384615384616,0.8653846153846154,0.5,0.7142857142857143,0.0004
820,1.0015396773815155,1.9158567190170288,0.7692307692307693,0.9038461538461539,0.42857142857142855,0.5714285714285714,0.0004
821,0.8549361824989319,1.7595150470733643,0.7692307692307693,0.8846153846153846,0.5714285714285714,0.5714285714285714,0.0004
822,0.7200524806976318,2.102001428604126,0.7884615384615384,0.9423076923076923,0.42857142857142855,0.42857142857142855,0.0004
823,1.0342726111412048,1.6913418769836426,0.6346153846153846,0.8846153846153846,0.5714285714285714,0.5714285714285714,0.0004
824,1.054389625787735,1.6889770030975342,0.7307692307692307,0.8269230769230769,0.5,0.7142857142857143,0.0004
825,1.1955331563949585,1.3462610244750977,0.6346153846153846,0.8461538461538461,0.5714285714285714,0.7857142857142857,0.0004
826,0.9825286865234375,2.0162322521209717,0.6538461538461539,0.9038461538461539,0.35714285714285715,0.7857142857142857,0.0004
827,1.1361727714538574,1.608843207359314,0.6923076923076923,0.8461538461538461,0.42857142857142855,0.7142857142857143,0.0004
828,0.9677671790122986,1.1863210201263428,0.75,0.8653846153846154,0.6428571428571429,0.7857142857142857,0.0004
829,0.9075269997119904,2.3063528537750244,0.6730769230769231,0.8846153846153846,0.42857142857142855,0.5,0.0004
830,0.7911992073059082,1.9057962894439697,0.75,0.9230769230769231,0.35714285714285715,0.7857142857142857,0.0004
831,0.7705259323120117,0.9231290817260742,0.7884615384615384,0.9230769230769231,0.7142857142857143,0.7857142857142857,0.0004
832,0.9893006086349487,1.5974094867706299,0.6538461538461539,0.9230769230769231,0.6428571428571429,0.7142857142857143,0.0004
833,0.803411602973938,1.29542875289917,0.7307692307692307,0.9230769230769231,0.6428571428571429,0.6428571428571429,0.0004
834,0.8584379851818085,1.098007321357727,0.7307692307692307,0.8846153846153846,0.6428571428571429,0.8571428571428571,0.0004
835,0.9841198921203613,1.944591760635376,0.7115384615384616,0.9038461538461539,0.42857142857142855,0.7857142857142857,0.0004
836,0.9116218090057373,1.580617070198059,0.7884615384615384,0.8846153846153846,0.42857142857142855,0.6428571428571429,0.0004
837,0.7941987216472626,1.6849024295806885,0.7115384615384616,0.9038461538461539,0.5714285714285714,0.6428571428571429,0.0004
838,0.8357531428337097,1.9244433641433716,0.6923076923076923,0.9230769230769231,0.35714285714285715,0.7857142857142857,0.0004
839,0.8779606521129608,1.6811861991882324,0.75,0.9230769230769231,0.42857142857142855,0.7857142857142857,0.0004
840,0.8482010662555695,1.7874835729599,0.6923076923076923,0.8653846153846154,0.5,0.7142857142857143,0.0004
841,0.9957766234874725,1.8496259450912476,0.6538461538461539,0.8653846153846154,0.5,0.6428571428571429,0.0004
842,1.0755062997341156,2.2769765853881836,0.6730769230769231,0.8653846153846154,0.35714285714285715,0.5714285714285714,0.0004
843,0.7850111126899719,2.370424270629883,0.7884615384615384,0.8269230769230769,0.42857142857142855,0.6428571428571429,0.0004
844,1.2236459255218506,2.6023120880126953,0.6730769230769231,0.8269230769230769,0.35714285714285715,0.5714285714285714,0.0004
845,1.1256230473518372,2.8347597122192383,0.6538461538461539,0.8653846153846154,0.5,0.42857142857142855,0.0004
846,1.108558028936386,1.9040677547454834,0.7115384615384616,0.8846153846153846,0.42857142857142855,0.7142857142857143,0.0004
847,1.1992568671703339,1.3437682390213013,0.7307692307692307,0.8269230769230769,0.5714285714285714,0.8571428571428571,0.0004
848,0.8686681389808655,1.2507548332214355,0.6730769230769231,0.9230769230769231,0.5714285714285714,0.7857142857142857,0.0004
849,1.1202569603919983,1.3012802600860596,0.6730769230769231,0.8846153846153846,0.5,0.7857142857142857,0.0004
850,1.1393920183181763,1.6368744373321533,0.6346153846153846,0.8461538461538461,0.5714285714285714,0.5714285714285714,0.0004
851,0.861312985420227,1.9470760822296143,0.6923076923076923,0.9230769230769231,0.5,0.6428571428571429,0.0004
852,1.0540151000022888,1.750693678855896,0.6153846153846154,0.9615384615384616,0.42857142857142855,0.6428571428571429,0.0004
853,0.8155348300933838,1.5103498697280884,0.6730769230769231,0.9038461538461539,0.42857142857142855,0.7857142857142857,0.0004
854,1.012122243642807,1.538050889968872,0.6153846153846154,0.8461538461538461,0.7142857142857143,0.6428571428571429,0.0004
855,0.8788183927536011,1.0857670307159424,0.6923076923076923,0.9230769230769231,0.7142857142857143,0.7857142857142857,0.0004
856,0.8193518817424774,1.4102809429168701,0.7692307692307693,0.8653846153846154,0.5,0.7142857142857143,0.0004
857,1.0927044749259949,1.6386573314666748,0.6730769230769231,0.8461538461538461,0.5,0.6428571428571429,0.0004
858,0.9082687795162201,1.7194149494171143,0.7115384615384616,0.8461538461538461,0.5714285714285714,0.6428571428571429,0.0004
859,0.7794103622436523,1.3823829889297485,0.75,0.8653846153846154,0.5,0.7857142857142857,0.0004
860,0.9873977899551392,1.5705664157867432,0.6346153846153846,0.8653846153846154,0.5,0.7142857142857143,0.0004
861,0.9133788645267487,1.2394804954528809,0.75,0.9423076923076923,0.6428571428571429,0.7142857142857143,0.0004
862,0.8655479252338409,1.2878798246383667,0.75,0.9038461538461539,0.5,0.7142857142857143,0.0004
863,0.9845298528671265,1.8836541175842285,0.6538461538461539,0.9615384615384616,0.5714285714285714,0.5,0.0004
864,0.7881902754306793,1.5570622682571411,0.75,1.0,0.35714285714285715,0.7857142857142857,0.0004
865,0.8308380842208862,1.725693702697754,0.8076923076923077,0.8846153846153846,0.42857142857142855,0.7142857142857143,0.0004
866,0.9627648591995239,1.2909750938415527,0.6730769230769231,0.9038461538461539,0.5,0.8571428571428571,0.0004
867,0.8512644171714783,1.4810271263122559,0.75,0.8653846153846154,0.5,0.7857142857142857,0.0004
868,1.0652735829353333,1.4090652465820312,0.6923076923076923,0.8461538461538461,0.5714285714285714,0.7857142857142857,0.0004
869,0.6845934092998505,1.1034045219421387,0.8076923076923077,0.9423076923076923,0.7142857142857143,0.7857142857142857,0.0004
870,0.9188345670700073,1.5935587882995605,0.7115384615384616,0.8653846153846154,0.6428571428571429,0.7142857142857143,0.0004
871,1.209881454706192,1.545508861541748,0.6538461538461539,0.8653846153846154,0.7142857142857143,0.5714285714285714,0.0004
872,0.6914511322975159,1.248464822769165,0.8076923076923077,0.9038461538461539,0.6428571428571429,0.7142857142857143,0.0004
873,0.824333518743515,1.6947922706604004,0.8269230769230769,0.8269230769230769,0.5,0.7142857142857143,0.0004
874,0.8790780305862427,0.8344367146492004,0.7307692307692307,0.9038461538461539,0.6428571428571429,0.9285714285714286,0.0004
875,0.8137677609920502,1.4958654642105103,0.7307692307692307,0.9038461538461539,0.35714285714285715,0.8571428571428571,0.0004
876,0.9975877404212952,2.027127742767334,0.7115384615384616,0.8653846153846154,0.42857142857142855,0.5,0.0004
877,0.9581200182437897,1.5645942687988281,0.7115384615384616,0.8461538461538461,0.42857142857142855,0.7142857142857143,0.0004
878,0.8406274318695068,1.4525978565216064,0.7307692307692307,0.9038461538461539,0.5,0.7142857142857143,0.0004
879,0.8661919236183167,1.4096314907073975,0.6923076923076923,0.9038461538461539,0.5,0.7857142857142857,0.0004
880,0.9373163282871246,1.4685766696929932,0.6923076923076923,0.8269230769230769,0.5714285714285714,0.7857142857142857,0.0004
881,0.8684537708759308,1.425668478012085,0.8076923076923077,0.8653846153846154,0.5,0.7857142857142857,0.0004
882,0.7180129289627075,1.5944104194641113,0.7884615384615384,0.9423076923076923,0.5,0.8571428571428571,0.0004
883,0.8247102499008179,1.6958835124969482,0.75,0.9038461538461539,0.5714285714285714,0.7142857142857143,0.0004
884,1.050544559955597,1.2150654792785645,0.6153846153846154,0.8846153846153846,0.5,0.8571428571428571,0.0004
885,1.195462554693222,1.9077680110931396,0.6923076923076923,0.8461538461538461,0.42857142857142855,0.5714285714285714,0.0004
886,0.8287738561630249,1.5661522150039673,0.7884615384615384,0.8846153846153846,0.5,0.7142857142857143,0.0004
887,1.0979876518249512,1.846686601638794,0.6730769230769231,0.8269230769230769,0.35714285714285715,0.7142857142857143,0.0004
888,0.9474654793739319,1.379819393157959,0.6730769230769231,0.8846153846153846,0.5,0.7857142857142857,0.0004
889,0.9830192029476166,2.0023677349090576,0.6923076923076923,0.8653846153846154,0.2857142857142857,0.7142857142857143,0.0004
890,1.0274690985679626,2.0723485946655273,0.75,0.8461538461538461,0.42857142857142855,0.6428571428571429,0.0004
891,0.6579257249832153,1.569835901260376,0.8269230769230769,0.9038461538461539,0.5,0.7857142857142857,0.0004
892,0.9740050137042999,1.8486449718475342,0.6923076923076923,0.8846153846153846,0.42857142857142855,0.5714285714285714,0.0004
893,0.9414228796958923,1.790372610092163,0.6923076923076923,0.8461538461538461,0.35714285714285715,0.7142857142857143,0.0004
894,0.8187337517738342,1.7449119091033936,0.75,0.9230769230769231,0.5,0.7142857142857143,0.0004
895,1.068115234375,1.9734821319580078,0.6153846153846154,0.8653846153846154,0.35714285714285715,0.6428571428571429,0.0004
896,0.7489376664161682,1.0241059064865112,0.7692307692307693,0.8653846153846154,0.6428571428571429,0.7857142857142857,0.0004
897,0.921226978302002,1.6787866353988647,0.7692307692307693,0.8461538461538461,0.5,0.7142857142857143,0.0004
898,0.9806175231933594,1.3672270774841309,0.7692307692307693,0.8461538461538461,0.5,0.7142857142857143,0.0004
899,0.9851459562778473,1.5697588920593262,0.6730769230769231,0.9038461538461539,0.42857142857142855,0.8571428571428571,0.0004
900,0.8995605707168579,1.674586534500122,0.7692307692307693,0.9230769230769231,0.35714285714285715,0.6428571428571429,0.0004
901,0.8121678233146667,1.8895740509033203,0.7692307692307693,0.8653846153846154,0.42857142857142855,0.5,0.0004
902,1.090957224369049,1.9688314199447632,0.6538461538461539,0.8653846153846154,0.5714285714285714,0.5,0.0004
903,0.8201996386051178,1.4411516189575195,0.7692307692307693,0.9038461538461539,0.5714285714285714,0.7142857142857143,0.0004
904,0.9692875146865845,1.4410512447357178,0.6538461538461539,0.9230769230769231,0.6428571428571429,0.6428571428571429,0.0004
905,0.7315374314785004,2.1715588569641113,0.8269230769230769,0.9038461538461539,0.42857142857142855,0.5,0.0004
906,0.6285536289215088,1.1901458501815796,0.8076923076923077,0.9615384615384616,0.5,0.7142857142857143,0.0004
907,0.9074494540691376,1.4318594932556152,0.7307692307692307,0.8653846153846154,0.5714285714285714,0.7857142857142857,0.0004
908,0.697375476360321,1.2047373056411743,0.7884615384615384,0.9423076923076923,0.6428571428571429,0.8571428571428571,0.0004
909,0.7707280814647675,1.4957506656646729,0.7115384615384616,0.9038461538461539,0.42857142857142855,0.7857142857142857,0.0004
910,0.9222270250320435,1.3610856533050537,0.75,0.8846153846153846,0.42857142857142855,0.9285714285714286,0.0004
911,0.6810812652111053,1.646729588508606,0.8653846153846154,0.8461538461538461,0.5,0.7142857142857143,0.0004
912,0.7442345321178436,2.6325724124908447,0.7692307692307693,0.9038461538461539,0.42857142857142855,0.5,0.0004
913,0.7997320294380188,2.4034361839294434,0.7884615384615384,0.9038461538461539,0.42857142857142855,0.5714285714285714,0.0004
914,0.7496327757835388,2.003751754760742,0.75,0.8846153846153846,0.5,0.5,0.0004
915,1.1452028155326843,2.095881700515747,0.7115384615384616,0.7884615384615384,0.42857142857142855,0.6428571428571429,0.0004
916,0.7885487377643585,1.9763834476470947,0.7692307692307693,0.9038461538461539,0.5,0.5714285714285714,0.0004
917,0.9463409781455994,2.17344069480896,0.6923076923076923,0.8269230769230769,0.5,0.5,0.0004
918,0.951251208782196,1.636972427368164,0.6730769230769231,0.8846153846153846,0.6428571428571429,0.5714285714285714,0.0004
919,0.8524748980998993,1.6256920099258423,0.7307692307692307,0.8461538461538461,0.5,0.5714285714285714,0.0004
920,1.0714945793151855,1.4660871028900146,0.6730769230769231,0.8461538461538461,0.5714285714285714,0.6428571428571429,0.0004
921,0.8316855132579803,1.1887173652648926,0.75,0.9038461538461539,0.5,0.7857142857142857,0.0004
922,0.9159404933452606,1.2804036140441895,0.7307692307692307,0.8461538461538461,0.6428571428571429,0.7142857142857143,0.0004
923,1.0719256401062012,1.1509239673614502,0.6346153846153846,0.8461538461538461,0.7142857142857143,0.7857142857142857,0.0004
924,1.006146878004074,1.118008017539978,0.6923076923076923,0.9038461538461539,0.7142857142857143,0.7857142857142857,0.0004
925,0.847231537103653,1.613356113433838,0.7307692307692307,0.8461538461538461,0.5,0.7857142857142857,0.0004
926,0.9412718415260315,1.6133936643600464,0.7307692307692307,0.9038461538461539,0.42857142857142855,0.7142857142857143,0.0004
927,1.0850889086723328,1.4293313026428223,0.6923076923076923,0.8653846153846154,0.7142857142857143,0.5714285714285714,0.0004
928,0.8355108201503754,1.9706401824951172,0.7884615384615384,0.8846153846153846,0.5714285714285714,0.5,0.0004
929,1.113519310951233,2.4449660778045654,0.6153846153846154,0.8269230769230769,0.42857142857142855,0.5,0.0004
930,1.0057085156440735,1.7681124210357666,0.75,0.8076923076923077,0.5714285714285714,0.5,0.0004
931,0.8682036995887756,1.8776847124099731,0.7884615384615384,0.8846153846153846,0.42857142857142855,0.5714285714285714,0.0004
932,0.9719512760639191,1.6905605792999268,0.6923076923076923,0.9038461538461539,0.6428571428571429,0.5714285714285714,0.0004
933,1.0150166749954224,1.5564260482788086,0.7307692307692307,0.8269230769230769,0.5,0.7142857142857143,0.0004
934,1.1536445021629333,1.4035086631774902,0.6730769230769231,0.8461538461538461,0.5714285714285714,0.6428571428571429,0.0004
935,1.0319563746452332,2.5445971488952637,0.6346153846153846,0.8269230769230769,0.35714285714285715,0.5714285714285714,0.0004
936,0.9674245119094849,2.5192465782165527,0.6730769230769231,0.8846153846153846,0.42857142857142855,0.7142857142857143,0.0004
937,0.9222588241100311,2.3876614570617676,0.7307692307692307,0.8653846153846154,0.42857142857142855,0.7142857142857143,0.0004
938,1.011645793914795,1.8130061626434326,0.6730769230769231,0.8653846153846154,0.42857142857142855,0.7142857142857143,0.0004
939,0.9682590365409851,2.014643907546997,0.7307692307692307,0.8846153846153846,0.42857142857142855,0.7142857142857143,0.0004
940,0.8495880961418152,1.8690638542175293,0.7115384615384616,0.9038461538461539,0.5,0.7142857142857143,0.0004
941,0.8390630185604095,1.7285120487213135,0.7307692307692307,0.9423076923076923,0.5,0.7142857142857143,0.0004
942,0.854162722826004,1.5805418491363525,0.6923076923076923,0.9230769230769231,0.5,0.7857142857142857,0.0004
943,0.9204354584217072,1.8379724025726318,0.6730769230769231,0.9038461538461539,0.2857142857142857,0.7857142857142857,0.0004
944,0.9289551377296448,1.5965461730957031,0.6153846153846154,0.8461538461538461,0.42857142857142855,0.7142857142857143,0.0004
945,0.7927452623844147,1.8395600318908691,0.7115384615384616,0.9038461538461539,0.21428571428571427,0.7857142857142857,0.0004
946,0.8436166644096375,1.378684163093567,0.7307692307692307,0.8269230769230769,0.42857142857142855,0.8571428571428571,0.0004
947,1.1517123579978943,2.0800728797912598,0.6730769230769231,0.7884615384615384,0.42857142857142855,0.6428571428571429,0.0004
948,0.8725319504737854,2.371039390563965,0.7307692307692307,0.9038461538461539,0.35714285714285715,0.5,0.0004
949,0.8916320502758026,2.4353742599487305,0.7307692307692307,0.8653846153846154,0.42857142857142855,0.42857142857142855,0.0004
950,0.9043428301811218,1.8022358417510986,0.6923076923076923,0.8653846153846154,0.5,0.6428571428571429,0.0004
951,1.092775046825409,2.033738851547241,0.8076923076923077,0.8269230769230769,0.35714285714285715,0.5714285714285714,0.0004
952,0.782588541507721,1.5841362476348877,0.7692307692307693,0.9230769230769231,0.42857142857142855,0.7142857142857143,0.0004
953,1.0904487371444702,1.99737548828125,0.7307692307692307,0.8653846153846154,0.5714285714285714,0.7142857142857143,0.0004
954,0.9866540729999542,1.7013061046600342,0.6730769230769231,0.9038461538461539,0.42857142857142855,0.8571428571428571,0.0004
955,0.9576684832572937,1.5523761510849,0.7692307692307693,0.8461538461538461,0.5,0.6428571428571429,0.0004
956,0.9900577068328857,1.4868113994598389,0.6923076923076923,0.8846153846153846,0.5714285714285714,0.7142857142857143,0.0004
957,0.8792000710964203,1.5754557847976685,0.6923076923076923,0.8269230769230769,0.5714285714285714,0.7142857142857143,0.0004
958,0.7478106021881104,1.5213104486465454,0.7884615384615384,0.9423076923076923,0.5,0.7142857142857143,0.0004
959,0.953266978263855,1.2336208820343018,0.6730769230769231,0.8653846153846154,0.6428571428571429,0.7142857142857143,0.0004
960,1.0035571455955505,1.116670846939087,0.7115384615384616,0.8461538461538461,0.5714285714285714,0.8571428571428571,0.0004
961,0.8612715601921082,1.8640003204345703,0.7307692307692307,0.8461538461538461,0.5,0.6428571428571429,0.0004
962,0.9800834953784943,1.356157898902893,0.7307692307692307,0.8846153846153846,0.5714285714285714,0.7142857142857143,0.0004
963,0.893054336309433,1.7957763671875,0.6923076923076923,0.9038461538461539,0.5714285714285714,0.6428571428571429,0.0004
964,0.8641976118087769,1.6642115116119385,0.6730769230769231,0.8461538461538461,0.5,0.7142857142857143,0.0004
965,1.0771649777889252,1.7434937953948975,0.6923076923076923,0.8076923076923077,0.42857142857142855,0.7142857142857143,0.0004
966,1.0685296654701233,1.5208332538604736,0.7115384615384616,0.8461538461538461,0.42857142857142855,0.7857142857142857,0.0004
967,1.0083166062831879,1.2912267446517944,0.6923076923076923,0.8653846153846154,0.2857142857142857,0.8571428571428571,0.0004
968,1.0502640902996063,1.6329612731933594,0.6538461538461539,0.8653846153846154,0.5714285714285714,0.6428571428571429,0.0004
969,0.9288774728775024,1.6167733669281006,0.7115384615384616,0.9038461538461539,0.42857142857142855,0.8571428571428571,0.0004
970,0.8809129297733307,1.6795344352722168,0.75,0.8653846153846154,0.5714285714285714,0.7142857142857143,0.0004
971,0.8810860514640808,1.8663856983184814,0.7115384615384616,0.8461538461538461,0.5714285714285714,0.5,0.0004
972,0.8595761656761169,1.5533963441848755,0.8269230769230769,0.9038461538461539,0.5714285714285714,0.7142857142857143,0.0004
973,0.9160745143890381,1.4049034118652344,0.6923076923076923,0.9038461538461539,0.6428571428571429,0.6428571428571429,0.0004
974,0.9866495430469513,2.1031758785247803,0.75,0.9038461538461539,0.2857142857142857,0.7142857142857143,0.0004
975,1.1251854300498962,1.5589931011199951,0.6538461538461539,0.9230769230769231,0.42857142857142855,0.7857142857142857,0.0004
976,0.9902192056179047,1.6322557926177979,0.6923076923076923,0.9230769230769231,0.42857142857142855,0.8571428571428571,0.0004
977,0.812889963388443,2.285444498062134,0.7884615384615384,0.8653846153846154,0.42857142857142855,0.42857142857142855,0.0004
978,1.0396708846092224,2.079479694366455,0.7884615384615384,0.8846153846153846,0.5,0.7142857142857143,0.0004
979,1.2768477201461792,1.2106599807739258,0.5769230769230769,0.8653846153846154,0.7142857142857143,0.7857142857142857,0.0004
980,0.733871340751648,1.1952848434448242,0.7884615384615384,0.9230769230769231,0.6428571428571429,0.7142857142857143,0.0004
981,0.9303325414657593,1.2010042667388916,0.6923076923076923,0.9038461538461539,0.5714285714285714,0.7857142857142857,0.0004
982,0.7822010219097137,1.77402925491333,0.8076923076923077,0.8653846153846154,0.5714285714285714,0.6428571428571429,0.0004
983,0.9642675817012787,1.5691171884536743,0.7884615384615384,0.8653846153846154,0.5714285714285714,0.5714285714285714,0.0004
984,1.0670303702354431,1.8204008340835571,0.6538461538461539,0.8269230769230769,0.5,0.6428571428571429,0.0004
985,1.0299847722053528,1.7687091827392578,0.6153846153846154,0.9038461538461539,0.2857142857142857,0.5714285714285714,0.0004
986,0.7821993231773376,1.180078387260437,0.7692307692307693,0.9230769230769231,0.6428571428571429,0.8571428571428571,0.0004
987,1.1577673852443695,1.3582727909088135,0.5961538461538461,0.8269230769230769,0.42857142857142855,0.7857142857142857,0.0004
988,0.8473016321659088,1.5615108013153076,0.7307692307692307,0.9230769230769231,0.6428571428571429,0.5714285714285714,0.0004
989,1.0993828773498535,0.9891632795333862,0.6923076923076923,0.8461538461538461,0.5714285714285714,0.9285714285714286,0.0004
990,0.813157707452774,1.2620457410812378,0.7307692307692307,0.8653846153846154,0.5714285714285714,0.9285714285714286,0.0004
991,0.9220894575119019,1.3770780563354492,0.6538461538461539,0.8846153846153846,0.5,0.8571428571428571,0.0004
992,0.8371017873287201,1.8957881927490234,0.7692307692307693,0.9423076923076923,0.42857142857142855,0.7142857142857143,0.0004
993,0.90202796459198,1.751007080078125,0.75,0.8461538461538461,0.5,0.7142857142857143,0.0004
994,0.7535892426967621,1.6478822231292725,0.8653846153846154,0.8653846153846154,0.5,0.7857142857142857,0.0004
995,0.7688758969306946,1.8300689458847046,0.7692307692307693,0.8846153846153846,0.5,0.7142857142857143,0.0004
996,0.732287585735321,1.4579293727874756,0.8076923076923077,0.8846153846153846,0.35714285714285715,0.8571428571428571,0.0004
997,0.9255760908126831,1.4240562915802002,0.6923076923076923,0.8653846153846154,0.5,0.7857142857142857,0.0004
998,1.033048540353775,2.8973135948181152,0.75,0.8846153846153846,0.35714285714285715,0.2857142857142857,0.0004
999,0.8479130864143372,1.9292607307434082,0.7115384615384616,0.9038461538461539,0.5,0.6428571428571429,0.0004
1000,0.8304732441902161,1.7791242599487305,0.7307692307692307,0.9038461538461539,0.42857142857142855,0.5714285714285714,0.0004
