epoch,train_loss,val_loss,train_acc_action,train_acc_status,val_acc_action,val_acc_status,learning_rate
1,1.8250117897987366,1.824184775352478,0.3269230769230769,0.17307692307692307,0.42857142857142855,0.14285714285714285,0.0004
2,1.8192786574363708,1.8204998970031738,0.3269230769230769,0.17307692307692307,0.42857142857142855,0.14285714285714285,0.0004
3,1.8146997690200806,1.816592812538147,0.3269230769230769,0.17307692307692307,0.42857142857142855,0.14285714285714285,0.0004
4,1.808181881904602,1.8121163845062256,0.4230769230769231,0.23076923076923078,0.42857142857142855,0.14285714285714285,0.0004
5,1.8069278001785278,1.8073337078094482,0.34615384615384615,0.23076923076923078,0.42857142857142855,0.14285714285714285,0.0004
6,1.8038519024848938,1.8027878999710083,0.3076923076923077,0.4423076923076923,0.42857142857142855,0.14285714285714285,0.0004
7,1.807093620300293,1.797523021697998,0.3076923076923077,0.36538461538461536,0.21428571428571427,0.8571428571428571,0.0004
8,1.7886465787887573,1.7909083366394043,0.2692307692307692,0.6153846153846154,0.21428571428571427,0.8571428571428571,0.0004
9,1.7785853743553162,1.7828395366668701,0.40384615384615385,0.7307692307692307,0.21428571428571427,0.8571428571428571,0.0004
10,1.7775127291679382,1.772348403930664,0.3076923076923077,0.8076923076923077,0.21428571428571427,0.8571428571428571,0.0004
11,1.7653952836990356,1.7581299543380737,0.36538461538461536,0.8076923076923077,0.21428571428571427,0.8571428571428571,0.0004
12,1.7490447759628296,1.7369437217712402,0.3269230769230769,0.8461538461538461,0.21428571428571427,0.8571428571428571,0.0004
13,1.7183889150619507,1.6984635591506958,0.28846153846153844,0.8269230769230769,0.21428571428571427,0.8571428571428571,0.0004
14,1.6489280462265015,1.6249167919158936,0.4423076923076923,0.8269230769230769,0.21428571428571427,0.8571428571428571,0.0004
15,1.542136013507843,1.5826663970947266,0.36538461538461536,0.8269230769230769,0.21428571428571427,0.8571428571428571,0.0004
16,1.5592396259307861,1.5783977508544922,0.38461538461538464,0.8269230769230769,0.21428571428571427,0.8571428571428571,0.0004
17,1.530194878578186,1.5822081565856934,0.38461538461538464,0.8269230769230769,0.21428571428571427,0.8571428571428571,0.0004
18,1.68954336643219,1.5816853046417236,0.3076923076923077,0.8269230769230769,0.21428571428571427,0.8571428571428571,0.0004
19,1.6531802415847778,1.5777281522750854,0.3269230769230769,0.8269230769230769,0.21428571428571427,0.8571428571428571,0.0004
20,1.6838259100914001,1.5704902410507202,0.3076923076923077,0.8269230769230769,0.21428571428571427,0.8571428571428571,0.0004
21,1.5671272277832031,1.5618088245391846,0.4230769230769231,0.8269230769230769,0.21428571428571427,0.8571428571428571,0.0004
22,1.594858169555664,1.5531697273254395,0.36538461538461536,0.8269230769230769,0.21428571428571427,0.8571428571428571,0.0004
23,1.5715303421020508,1.5462167263031006,0.4807692307692308,0.8269230769230769,0.21428571428571427,0.8571428571428571,0.0004
24,1.5620529055595398,1.5418658256530762,0.3269230769230769,0.8269230769230769,0.21428571428571427,0.8571428571428571,0.0004
25,1.6215732097625732,1.537841558456421,0.36538461538461536,0.8269230769230769,0.21428571428571427,0.8571428571428571,0.0004
26,1.669068157672882,1.535346269607544,0.3076923076923077,0.8269230769230769,0.21428571428571427,0.8571428571428571,0.0004
27,1.5983930230140686,1.5343128442764282,0.38461538461538464,0.8269230769230769,0.21428571428571427,0.8571428571428571,0.0004
28,1.553180992603302,1.5330655574798584,0.34615384615384615,0.8269230769230769,0.21428571428571427,0.8571428571428571,0.0004
29,1.5487237572669983,1.531843662261963,0.40384615384615385,0.8269230769230769,0.21428571428571427,0.8571428571428571,0.0004
30,1.606576383113861,1.5307013988494873,0.3269230769230769,0.8269230769230769,0.21428571428571427,0.8571428571428571,0.0004
31,1.6246715784072876,1.530666708946228,0.25,0.8269230769230769,0.21428571428571427,0.8571428571428571,0.0004
32,1.6309418082237244,1.531170129776001,0.21153846153846154,0.8269230769230769,0.21428571428571427,0.8571428571428571,0.0004
33,1.5708075165748596,1.5321111679077148,0.40384615384615385,0.8269230769230769,0.42857142857142855,0.8571428571428571,0.0004
34,1.533127248287201,1.5333881378173828,0.46153846153846156,0.8269230769230769,0.42857142857142855,0.8571428571428571,0.0004
35,1.6462823748588562,1.5336275100708008,0.3269230769230769,0.8269230769230769,0.42857142857142855,0.8571428571428571,0.0004
36,1.5527113676071167,1.5341583490371704,0.28846153846153844,0.8269230769230769,0.42857142857142855,0.8571428571428571,0.0004
37,1.6268404722213745,1.5344947576522827,0.25,0.8269230769230769,0.42857142857142855,0.8571428571428571,0.0004
38,1.599073886871338,1.5340477228164673,0.40384615384615385,0.8269230769230769,0.42857142857142855,0.8571428571428571,0.0004
39,1.5825009942054749,1.534319281578064,0.2692307692307692,0.8269230769230769,0.42857142857142855,0.8571428571428571,0.0004
40,1.6609461307525635,1.535046935081482,0.40384615384615385,0.8269230769230769,0.21428571428571427,0.8571428571428571,0.0004
41,1.6057180762290955,1.5358366966247559,0.23076923076923078,0.8269230769230769,0.21428571428571427,0.8571428571428571,0.0004
42,1.5892171263694763,1.5358235836029053,0.38461538461538464,0.8269230769230769,0.21428571428571427,0.8571428571428571,0.0004
43,1.6033831238746643,1.536310076713562,0.34615384615384615,0.8269230769230769,0.21428571428571427,0.8571428571428571,0.0004
44,1.5425058603286743,1.5370936393737793,0.38461538461538464,0.8269230769230769,0.21428571428571427,0.8571428571428571,0.0004
45,1.597457230091095,1.5376161336898804,0.28846153846153844,0.8269230769230769,0.21428571428571427,0.8571428571428571,0.0004
46,1.6028587818145752,1.5385029315948486,0.2692307692307692,0.8269230769230769,0.21428571428571427,0.8571428571428571,0.0004
47,1.5870440006256104,1.5393518209457397,0.28846153846153844,0.8269230769230769,0.21428571428571427,0.8571428571428571,0.0004
48,1.5670929551124573,1.5400316715240479,0.36538461538461536,0.8269230769230769,0.21428571428571427,0.8571428571428571,0.0004
49,1.6593435406684875,1.540195107460022,0.23076923076923078,0.8269230769230769,0.21428571428571427,0.8571428571428571,0.0004
50,1.5656782984733582,1.540079116821289,0.40384615384615385,0.8269230769230769,0.21428571428571427,0.8571428571428571,0.0004
51,1.6268048882484436,1.539888858795166,0.2692307692307692,0.8269230769230769,0.21428571428571427,0.8571428571428571,0.0004
52,1.5642603039741516,1.539523720741272,0.3269230769230769,0.8269230769230769,0.21428571428571427,0.8571428571428571,0.0004
53,1.6229429244995117,1.5385740995407104,0.3076923076923077,0.8269230769230769,0.21428571428571427,0.8571428571428571,0.0004
54,1.64382803440094,1.5370137691497803,0.2692307692307692,0.8269230769230769,0.21428571428571427,0.8571428571428571,0.0004
55,1.6185264587402344,1.535976529121399,0.40384615384615385,0.8269230769230769,0.21428571428571427,0.8571428571428571,0.0004
56,1.5972826480865479,1.535189151763916,0.34615384615384615,0.8269230769230769,0.21428571428571427,0.8571428571428571,0.0004
57,1.5402944684028625,1.5339958667755127,0.3269230769230769,0.8269230769230769,0.21428571428571427,0.8571428571428571,0.0004
58,1.5370988249778748,1.533071517944336,0.38461538461538464,0.8269230769230769,0.21428571428571427,0.8571428571428571,0.0004
59,1.5981566309928894,1.532811164855957,0.3269230769230769,0.8269230769230769,0.21428571428571427,0.8571428571428571,0.0004
60,1.587080717086792,1.5327517986297607,0.4423076923076923,0.8269230769230769,0.21428571428571427,0.8571428571428571,0.0004
61,1.6033930778503418,1.5336958169937134,0.21153846153846154,0.8269230769230769,0.21428571428571427,0.8571428571428571,0.0004
62,1.5657193064689636,1.5345529317855835,0.34615384615384615,0.8269230769230769,0.21428571428571427,0.8571428571428571,0.0004
63,1.5941618084907532,1.5349023342132568,0.3269230769230769,0.8269230769230769,0.21428571428571427,0.8571428571428571,0.0004
64,1.5836657285690308,1.5352330207824707,0.34615384615384615,0.8269230769230769,0.21428571428571427,0.8571428571428571,0.0004
65,1.6388121843338013,1.5352495908737183,0.34615384615384615,0.8269230769230769,0.21428571428571427,0.8571428571428571,0.0004
66,1.6085165739059448,1.5355894565582275,0.34615384615384615,0.8269230769230769,0.21428571428571427,0.8571428571428571,0.0004
67,1.540499210357666,1.5359349250793457,0.40384615384615385,0.8269230769230769,0.21428571428571427,0.8571428571428571,0.0004
68,1.5387424230575562,1.536138892173767,0.34615384615384615,0.8269230769230769,0.21428571428571427,0.8571428571428571,0.0004
69,1.622957706451416,1.5363997220993042,0.36538461538461536,0.8269230769230769,0.21428571428571427,0.8571428571428571,0.0004
70,1.5732128620147705,1.5360660552978516,0.4423076923076923,0.8269230769230769,0.21428571428571427,0.8571428571428571,0.0004
71,1.6192354559898376,1.5354564189910889,0.23076923076923078,0.8269230769230769,0.21428571428571427,0.8571428571428571,0.0004
72,1.6617175340652466,1.5353516340255737,0.19230769230769232,0.8269230769230769,0.21428571428571427,0.8571428571428571,0.0004
73,1.563477873802185,1.5353208780288696,0.38461538461538464,0.8269230769230769,0.21428571428571427,0.8571428571428571,0.0004
74,1.5275267362594604,1.5354726314544678,0.40384615384615385,0.8269230769230769,0.21428571428571427,0.8571428571428571,0.0004
75,1.5808862447738647,1.535312533378601,0.38461538461538464,0.8269230769230769,0.21428571428571427,0.8571428571428571,0.0004
76,1.554966390132904,1.5351693630218506,0.36538461538461536,0.8269230769230769,0.21428571428571427,0.8571428571428571,0.0004
77,1.5420626401901245,1.5347871780395508,0.40384615384615385,0.8269230769230769,0.21428571428571427,0.8571428571428571,0.0004
78,1.6058164834976196,1.534943699836731,0.28846153846153844,0.8269230769230769,0.21428571428571427,0.8571428571428571,0.0004
79,1.5876192450523376,1.5351648330688477,0.3269230769230769,0.8269230769230769,0.21428571428571427,0.8571428571428571,0.0004
80,1.5726737976074219,1.535614252090454,0.38461538461538464,0.8269230769230769,0.21428571428571427,0.8571428571428571,0.0004
81,1.5831610560417175,1.5358003377914429,0.3076923076923077,0.8269230769230769,0.21428571428571427,0.8571428571428571,0.0004
82,1.6239011883735657,1.5358338356018066,0.3076923076923077,0.8269230769230769,0.21428571428571427,0.8571428571428571,0.0004
83,1.5815682411193848,1.5356638431549072,0.34615384615384615,0.8269230769230769,0.21428571428571427,0.8571428571428571,0.0004
84,1.6116069555282593,1.5353548526763916,0.40384615384615385,0.8269230769230769,0.21428571428571427,0.8571428571428571,0.0004
85,1.5939786434173584,1.5344359874725342,0.38461538461538464,0.8269230769230769,0.21428571428571427,0.8571428571428571,0.0004
86,1.5802986025810242,1.5340065956115723,0.3269230769230769,0.8269230769230769,0.21428571428571427,0.8571428571428571,0.0004
87,1.5768615007400513,1.5339879989624023,0.46153846153846156,0.8269230769230769,0.21428571428571427,0.8571428571428571,0.0004
88,1.6127912998199463,1.5342304706573486,0.4423076923076923,0.8269230769230769,0.21428571428571427,0.8571428571428571,0.0004
89,1.6045492887496948,1.5346341133117676,0.3269230769230769,0.8269230769230769,0.21428571428571427,0.8571428571428571,0.0004
90,1.5120632648468018,1.5347317457199097,0.4230769230769231,0.8269230769230769,0.21428571428571427,0.8571428571428571,0.0004
91,1.6311768293380737,1.5346837043762207,0.3269230769230769,0.8269230769230769,0.21428571428571427,0.8571428571428571,0.0004
92,1.6011722683906555,1.5344805717468262,0.2692307692307692,0.8269230769230769,0.21428571428571427,0.8571428571428571,0.0004
93,1.6150723695755005,1.5343369245529175,0.4230769230769231,0.8269230769230769,0.21428571428571427,0.8571428571428571,0.0004
94,1.5973348021507263,1.5341694355010986,0.2692307692307692,0.8269230769230769,0.21428571428571427,0.8571428571428571,0.0004
95,1.5669763684272766,1.5338547229766846,0.38461538461538464,0.8269230769230769,0.21428571428571427,0.8571428571428571,0.0004
96,1.6155539751052856,1.5339596271514893,0.28846153846153844,0.8269230769230769,0.21428571428571427,0.8571428571428571,0.0004
97,1.5608707666397095,1.5340907573699951,0.36538461538461536,0.8269230769230769,0.21428571428571427,0.8571428571428571,0.0004
98,1.5604442954063416,1.5339406728744507,0.40384615384615385,0.8269230769230769,0.21428571428571427,0.8571428571428571,0.0004
99,1.5956167578697205,1.533710241317749,0.2692307692307692,0.8269230769230769,0.21428571428571427,0.8571428571428571,0.0004
100,1.5795904994010925,1.5331013202667236,0.36538461538461536,0.8269230769230769,0.21428571428571427,0.8571428571428571,0.0004
101,1.5570993423461914,1.532383918762207,0.40384615384615385,0.8269230769230769,0.21428571428571427,0.8571428571428571,0.0004
102,1.6035432815551758,1.5319931507110596,0.3076923076923077,0.8269230769230769,0.21428571428571427,0.8571428571428571,0.0004
103,1.5682759284973145,1.5320534706115723,0.38461538461538464,0.8269230769230769,0.21428571428571427,0.8571428571428571,0.0004
104,1.577709436416626,1.532527208328247,0.4807692307692308,0.8269230769230769,0.21428571428571427,0.8571428571428571,0.0004
105,1.4681464433670044,1.5329043865203857,0.46153846153846156,0.8269230769230769,0.21428571428571427,0.8571428571428571,0.0004
106,1.5592039227485657,1.5330445766448975,0.2692307692307692,0.8269230769230769,0.21428571428571427,0.8571428571428571,0.0004
107,1.6452227234840393,1.5332452058792114,0.3076923076923077,0.8269230769230769,0.21428571428571427,0.8571428571428571,0.0004
108,1.651582419872284,1.5340087413787842,0.36538461538461536,0.8269230769230769,0.21428571428571427,0.8571428571428571,0.0004
109,1.5806737542152405,1.5350383520126343,0.28846153846153844,0.8269230769230769,0.21428571428571427,0.8571428571428571,0.0004
110,1.56903475522995,1.5358033180236816,0.36538461538461536,0.8269230769230769,0.21428571428571427,0.8571428571428571,0.0004
111,1.599525511264801,1.5361875295639038,0.3269230769230769,0.8269230769230769,0.21428571428571427,0.8571428571428571,0.0004
112,1.5874283909797668,1.5367274284362793,0.40384615384615385,0.8269230769230769,0.21428571428571427,0.8571428571428571,0.0004
113,1.576011300086975,1.53715181350708,0.3269230769230769,0.8269230769230769,0.21428571428571427,0.8571428571428571,0.0004
114,1.6019675731658936,1.5375486612319946,0.28846153846153844,0.8269230769230769,0.21428571428571427,0.8571428571428571,0.0004
115,1.484731912612915,1.5381749868392944,0.46153846153846156,0.8269230769230769,0.21428571428571427,0.8571428571428571,0.0004
116,1.6281930208206177,1.5384647846221924,0.2692307692307692,0.8269230769230769,0.21428571428571427,0.8571428571428571,0.0004
117,1.6235237121582031,1.539480209350586,0.40384615384615385,0.8269230769230769,0.21428571428571427,0.8571428571428571,0.0004
118,1.574323058128357,1.5399279594421387,0.3076923076923077,0.8269230769230769,0.21428571428571427,0.8571428571428571,0.0004
119,1.6353596448898315,1.5398340225219727,0.36538461538461536,0.8269230769230769,0.21428571428571427,0.8571428571428571,0.0004
120,1.5425735116004944,1.5397698879241943,0.4423076923076923,0.8269230769230769,0.21428571428571427,0.8571428571428571,0.0004
121,1.6001988053321838,1.5400322675704956,0.25,0.8269230769230769,0.21428571428571427,0.8571428571428571,0.0004
122,1.5373921394348145,1.5391985177993774,0.36538461538461536,0.8269230769230769,0.21428571428571427,0.8571428571428571,0.0004
123,1.5360432267189026,1.5381841659545898,0.36538461538461536,0.8269230769230769,0.21428571428571427,0.8571428571428571,0.0004
124,1.580087959766388,1.5371644496917725,0.3269230769230769,0.8269230769230769,0.21428571428571427,0.8571428571428571,0.0004
125,1.5963996052742004,1.5359658002853394,0.38461538461538464,0.8269230769230769,0.21428571428571427,0.8571428571428571,0.0004
126,1.5792801976203918,1.535390853881836,0.38461538461538464,0.8269230769230769,0.21428571428571427,0.8571428571428571,0.0004
127,1.5979350805282593,1.534492015838623,0.28846153846153844,0.8269230769230769,0.21428571428571427,0.8571428571428571,0.0004
128,1.607448935508728,1.533488154411316,0.25,0.8269230769230769,0.21428571428571427,0.8571428571428571,0.0004
129,1.6119459867477417,1.5325913429260254,0.38461538461538464,0.8269230769230769,0.21428571428571427,0.8571428571428571,0.0004
130,1.6023297309875488,1.5322105884552002,0.3269230769230769,0.8269230769230769,0.21428571428571427,0.8571428571428571,0.0004
131,1.525604486465454,1.5312883853912354,0.36538461538461536,0.8269230769230769,0.21428571428571427,0.8571428571428571,0.0004
132,1.5908671021461487,1.5308279991149902,0.36538461538461536,0.8269230769230769,0.21428571428571427,0.8571428571428571,0.0004
133,1.5482847690582275,1.530706763267517,0.34615384615384615,0.8269230769230769,0.21428571428571427,0.8571428571428571,0.0004
134,1.5551771521568298,1.530564785003662,0.3269230769230769,0.8269230769230769,0.21428571428571427,0.8571428571428571,0.0004
135,1.592831015586853,1.5307427644729614,0.3269230769230769,0.8269230769230769,0.21428571428571427,0.8571428571428571,0.0004
136,1.5631157159805298,1.5304651260375977,0.3269230769230769,0.8269230769230769,0.21428571428571427,0.8571428571428571,0.0004
137,1.5957062244415283,1.53053617477417,0.38461538461538464,0.8269230769230769,0.21428571428571427,0.8571428571428571,0.0004
138,1.5878263115882874,1.5302894115447998,0.3269230769230769,0.8269230769230769,0.21428571428571427,0.8571428571428571,0.0004
139,1.5467837452888489,1.530606985092163,0.36538461538461536,0.8269230769230769,0.21428571428571427,0.8571428571428571,0.0004
140,1.6279686093330383,1.5307310819625854,0.36538461538461536,0.8269230769230769,0.21428571428571427,0.8571428571428571,0.0004
141,1.6449477672576904,1.5308539867401123,0.38461538461538464,0.8269230769230769,0.21428571428571427,0.8571428571428571,0.0004
142,1.5915486812591553,1.530819058418274,0.4807692307692308,0.8269230769230769,0.21428571428571427,0.8571428571428571,0.0004
143,1.6073018908500671,1.531893253326416,0.34615384615384615,0.8269230769230769,0.21428571428571427,0.8571428571428571,0.0004
144,1.5800225138664246,1.533371090888977,0.19230769230769232,0.8269230769230769,0.21428571428571427,0.8571428571428571,0.0004
145,1.5158336162567139,1.534212350845337,0.34615384615384615,0.8269230769230769,0.21428571428571427,0.8571428571428571,0.0004
146,1.5332327485084534,1.5343117713928223,0.36538461538461536,0.8269230769230769,0.21428571428571427,0.8571428571428571,0.0004
147,1.5524882078170776,1.5346660614013672,0.28846153846153844,0.8269230769230769,0.21428571428571427,0.8571428571428571,0.0004
148,1.599321961402893,1.534985899925232,0.25,0.8269230769230769,0.21428571428571427,0.8571428571428571,0.0004
149,1.565418779850006,1.535099983215332,0.3269230769230769,0.8269230769230769,0.21428571428571427,0.8571428571428571,0.0004
150,1.5823785066604614,1.535017490386963,0.3269230769230769,0.8269230769230769,0.21428571428571427,0.8571428571428571,0.0004
151,1.5872727036476135,1.5350664854049683,0.25,0.8269230769230769,0.21428571428571427,0.8571428571428571,0.0004
152,1.5206751823425293,1.5344752073287964,0.36538461538461536,0.8269230769230769,0.21428571428571427,0.8571428571428571,0.0004
153,1.5662201642990112,1.5339272022247314,0.38461538461538464,0.8269230769230769,0.21428571428571427,0.8571428571428571,0.0004
154,1.5912968516349792,1.5337835550308228,0.3269230769230769,0.8269230769230769,0.21428571428571427,0.8571428571428571,0.0004
155,1.5574722290039062,1.533546805381775,0.34615384615384615,0.8269230769230769,0.21428571428571427,0.8571428571428571,0.0004
156,1.5552829504013062,1.5336554050445557,0.38461538461538464,0.8269230769230769,0.21428571428571427,0.8571428571428571,0.0004
157,1.5643126368522644,1.5338973999023438,0.3269230769230769,0.8269230769230769,0.21428571428571427,0.8571428571428571,0.0004
158,1.6114630699157715,1.534162163734436,0.4230769230769231,0.8269230769230769,0.21428571428571427,0.8571428571428571,0.0004
159,1.562938392162323,1.5349409580230713,0.40384615384615385,0.8269230769230769,0.21428571428571427,0.8571428571428571,0.0004
160,1.5742465257644653,1.5353808403015137,0.4423076923076923,0.8269230769230769,0.21428571428571427,0.8571428571428571,0.0004
161,1.548362374305725,1.5361135005950928,0.36538461538461536,0.8269230769230769,0.21428571428571427,0.8571428571428571,0.0004
162,1.5940611958503723,1.5366709232330322,0.36538461538461536,0.8269230769230769,0.21428571428571427,0.8571428571428571,0.0004
163,1.5488553047180176,1.537625789642334,0.4807692307692308,0.8269230769230769,0.21428571428571427,0.8571428571428571,0.0004
164,1.5681777000427246,1.5382106304168701,0.40384615384615385,0.8269230769230769,0.21428571428571427,0.8571428571428571,0.0004
165,1.552655041217804,1.5385758876800537,0.3076923076923077,0.8269230769230769,0.21428571428571427,0.8571428571428571,0.0004
166,1.5873486995697021,1.5397695302963257,0.3076923076923077,0.8269230769230769,0.21428571428571427,0.8571428571428571,0.0004
167,1.5630016326904297,1.540257215499878,0.34615384615384615,0.8269230769230769,0.21428571428571427,0.8571428571428571,0.0004
168,1.5685516595840454,1.5412886142730713,0.34615384615384615,0.8269230769230769,0.21428571428571427,0.8571428571428571,0.0004
169,1.5714117288589478,1.5418468713760376,0.3269230769230769,0.8269230769230769,0.21428571428571427,0.8571428571428571,0.0004
170,1.549839198589325,1.54201078414917,0.4807692307692308,0.8269230769230769,0.21428571428571427,0.8571428571428571,0.0004
171,1.626143991947174,1.5423492193222046,0.28846153846153844,0.8269230769230769,0.21428571428571427,0.8571428571428571,0.0004
172,1.5683256387710571,1.5426411628723145,0.36538461538461536,0.8269230769230769,0.21428571428571427,0.8571428571428571,0.0004
173,1.5968087315559387,1.5428434610366821,0.40384615384615385,0.8269230769230769,0.21428571428571427,0.8571428571428571,0.0004
174,1.5962379574775696,1.5427165031433105,0.36538461538461536,0.8269230769230769,0.21428571428571427,0.8571428571428571,0.0004
175,1.5607273578643799,1.5422085523605347,0.3269230769230769,0.8269230769230769,0.21428571428571427,0.8571428571428571,0.0004
176,1.6300116777420044,1.5422197580337524,0.3269230769230769,0.8269230769230769,0.21428571428571427,0.8571428571428571,0.0004
177,1.5830527544021606,1.5423860549926758,0.36538461538461536,0.8269230769230769,0.21428571428571427,0.8571428571428571,0.0004
178,1.63294118642807,1.5428898334503174,0.38461538461538464,0.8269230769230769,0.21428571428571427,0.8571428571428571,0.0004
179,1.6206740140914917,1.5434277057647705,0.3269230769230769,0.8269230769230769,0.21428571428571427,0.8571428571428571,0.0004
180,1.5910398364067078,1.543691873550415,0.4230769230769231,0.8269230769230769,0.21428571428571427,0.8571428571428571,0.0004
181,1.6089751720428467,1.5440261363983154,0.3269230769230769,0.8269230769230769,0.21428571428571427,0.8571428571428571,0.0004
182,1.5587239861488342,1.5440688133239746,0.25,0.8269230769230769,0.21428571428571427,0.8571428571428571,0.0004
183,1.5704952478408813,1.5439670085906982,0.36538461538461536,0.8269230769230769,0.21428571428571427,0.8571428571428571,0.0004
184,1.545971930027008,1.5435094833374023,0.34615384615384615,0.8269230769230769,0.21428571428571427,0.8571428571428571,0.0004
185,1.5476403832435608,1.5426759719848633,0.28846153846153844,0.8269230769230769,0.21428571428571427,0.8571428571428571,0.0004
186,1.5934484004974365,1.5411522388458252,0.23076923076923078,0.8269230769230769,0.21428571428571427,0.8571428571428571,0.0004
187,1.5429734587669373,1.5396559238433838,0.34615384615384615,0.8269230769230769,0.21428571428571427,0.8571428571428571,0.0004
188,1.6358674764633179,1.5376092195510864,0.34615384615384615,0.8269230769230769,0.21428571428571427,0.8571428571428571,0.0004
189,1.5751478672027588,1.5367599725723267,0.28846153846153844,0.8269230769230769,0.21428571428571427,0.8571428571428571,0.0004
190,1.5906672477722168,1.5355043411254883,0.36538461538461536,0.8269230769230769,0.21428571428571427,0.8571428571428571,0.0004
191,1.6205862760543823,1.534388780593872,0.23076923076923078,0.8269230769230769,0.21428571428571427,0.8571428571428571,0.0004
192,1.6216555833816528,1.5336591005325317,0.3076923076923077,0.8269230769230769,0.21428571428571427,0.8571428571428571,0.0004
193,1.5949336886405945,1.533597469329834,0.3076923076923077,0.8269230769230769,0.21428571428571427,0.8571428571428571,0.0004
194,1.5634289383888245,1.5333446264266968,0.25,0.8269230769230769,0.21428571428571427,0.8571428571428571,0.0004
195,1.6110379099845886,1.5331599712371826,0.40384615384615385,0.8269230769230769,0.21428571428571427,0.8571428571428571,0.0004
196,1.6071561574935913,1.533143162727356,0.4230769230769231,0.8269230769230769,0.21428571428571427,0.8571428571428571,0.0004
197,1.5770898461341858,1.5331146717071533,0.4230769230769231,0.8269230769230769,0.21428571428571427,0.8571428571428571,0.0004
198,1.5733135342597961,1.532804012298584,0.3269230769230769,0.8269230769230769,0.21428571428571427,0.8571428571428571,0.0004
199,1.5399622917175293,1.5323442220687866,0.34615384615384615,0.8269230769230769,0.21428571428571427,0.8571428571428571,0.0004
200,1.610092580318451,1.5319852828979492,0.40384615384615385,0.8269230769230769,0.21428571428571427,0.8571428571428571,0.0004
201,1.535521388053894,1.5315760374069214,0.3269230769230769,0.8269230769230769,0.21428571428571427,0.8571428571428571,0.0004
202,1.5529357194900513,1.530893325805664,0.38461538461538464,0.8269230769230769,0.21428571428571427,0.8571428571428571,0.0004
203,1.5283058881759644,1.5302855968475342,0.34615384615384615,0.8269230769230769,0.21428571428571427,0.8571428571428571,0.0004
204,1.5696699023246765,1.529587984085083,0.28846153846153844,0.8269230769230769,0.21428571428571427,0.8571428571428571,0.0004
205,1.6451082229614258,1.5290911197662354,0.36538461538461536,0.8269230769230769,0.21428571428571427,0.8571428571428571,0.0004
206,1.5664397478103638,1.5290954113006592,0.38461538461538464,0.8269230769230769,0.21428571428571427,0.8571428571428571,0.0004
207,1.6351378560066223,1.5295454263687134,0.3076923076923077,0.8269230769230769,0.21428571428571427,0.8571428571428571,0.0004
208,1.5650250911712646,1.53011953830719,0.5192307692307693,0.8269230769230769,0.21428571428571427,0.8571428571428571,0.0004
209,1.5513741970062256,1.5306403636932373,0.36538461538461536,0.8269230769230769,0.21428571428571427,0.8571428571428571,0.0004
210,1.5822774767875671,1.5309149026870728,0.38461538461538464,0.8269230769230769,0.21428571428571427,0.8571428571428571,0.0004
211,1.5609562993049622,1.5315743684768677,0.21153846153846154,0.8269230769230769,0.21428571428571427,0.8571428571428571,0.0004
212,1.556625783443451,1.5317614078521729,0.3076923076923077,0.8269230769230769,0.21428571428571427,0.8571428571428571,0.0004
213,1.5718437433242798,1.5321705341339111,0.38461538461538464,0.8269230769230769,0.21428571428571427,0.8571428571428571,0.0004
214,1.5988524556159973,1.5325157642364502,0.25,0.8269230769230769,0.21428571428571427,0.8571428571428571,0.0004
215,1.5703827738761902,1.5326201915740967,0.40384615384615385,0.8269230769230769,0.21428571428571427,0.8571428571428571,0.0004
216,1.5128716826438904,1.5328660011291504,0.28846153846153844,0.8269230769230769,0.21428571428571427,0.8571428571428571,0.0004
217,1.5114107131958008,1.5329084396362305,0.46153846153846156,0.8269230769230769,0.21428571428571427,0.8571428571428571,0.0004
218,1.5355774760246277,1.5324900150299072,0.34615384615384615,0.8269230769230769,0.21428571428571427,0.8571428571428571,0.0004
219,1.6152329444885254,1.5323022603988647,0.28846153846153844,0.8269230769230769,0.21428571428571427,0.8571428571428571,0.0004
220,1.552981674671173,1.531916618347168,0.40384615384615385,0.8269230769230769,0.21428571428571427,0.8571428571428571,0.0004
221,1.5962528586387634,1.5312904119491577,0.3269230769230769,0.8269230769230769,0.21428571428571427,0.8571428571428571,0.0004
222,1.58819580078125,1.531011939048767,0.2692307692307692,0.8269230769230769,0.21428571428571427,0.8571428571428571,0.0004
223,1.5722017884254456,1.5304642915725708,0.2692307692307692,0.8269230769230769,0.21428571428571427,0.8571428571428571,0.0004
224,1.5666441917419434,1.5302839279174805,0.34615384615384615,0.8269230769230769,0.21428571428571427,0.8571428571428571,0.0004
225,1.5334798693656921,1.529853343963623,0.36538461538461536,0.8269230769230769,0.21428571428571427,0.8571428571428571,0.0004
226,1.5538057088851929,1.529778003692627,0.4230769230769231,0.8269230769230769,0.21428571428571427,0.8571428571428571,0.0004
227,1.6253145933151245,1.5299485921859741,0.25,0.8269230769230769,0.21428571428571427,0.8571428571428571,0.0004
228,1.5734578371047974,1.5303624868392944,0.3076923076923077,0.8269230769230769,0.21428571428571427,0.8571428571428571,0.0004
229,1.5950687527656555,1.530791997909546,0.25,0.8269230769230769,0.21428571428571427,0.8571428571428571,0.0004
230,1.559202253818512,1.5312926769256592,0.28846153846153844,0.8269230769230769,0.21428571428571427,0.8571428571428571,0.0004
231,1.5543789863586426,1.5320119857788086,0.34615384615384615,0.8269230769230769,0.21428571428571427,0.8571428571428571,0.0004
232,1.514108121395111,1.5322121381759644,0.38461538461538464,0.8269230769230769,0.21428571428571427,0.8571428571428571,0.0004
233,1.552302062511444,1.5327450037002563,0.34615384615384615,0.8269230769230769,0.21428571428571427,0.8571428571428571,0.0004
234,1.5636630654335022,1.5326597690582275,0.36538461538461536,0.8269230769230769,0.21428571428571427,0.8571428571428571,0.0004
235,1.5647162795066833,1.533190369606018,0.4230769230769231,0.8269230769230769,0.21428571428571427,0.8571428571428571,0.0004
236,1.5866876244544983,1.533553123474121,0.3269230769230769,0.8269230769230769,0.21428571428571427,0.8571428571428571,0.0004
237,1.5538639426231384,1.533921241760254,0.38461538461538464,0.8269230769230769,0.21428571428571427,0.8571428571428571,0.0004
238,1.5730337500572205,1.5338364839553833,0.3269230769230769,0.8269230769230769,0.21428571428571427,0.8571428571428571,0.0004
239,1.591072678565979,1.534023642539978,0.3076923076923077,0.8269230769230769,0.21428571428571427,0.8571428571428571,0.0004
240,1.6094505190849304,1.5345127582550049,0.28846153846153844,0.8269230769230769,0.21428571428571427,0.8571428571428571,0.0004
241,1.4901087880134583,1.535111665725708,0.4230769230769231,0.8269230769230769,0.21428571428571427,0.8571428571428571,0.0004
242,1.5782489776611328,1.5354622602462769,0.36538461538461536,0.8269230769230769,0.21428571428571427,0.8571428571428571,0.0004
243,1.570083737373352,1.5358234643936157,0.40384615384615385,0.8269230769230769,0.21428571428571427,0.8571428571428571,0.0004
244,1.5706167817115784,1.5362496376037598,0.4423076923076923,0.8269230769230769,0.21428571428571427,0.8571428571428571,0.0004
245,1.6077294945716858,1.5362160205841064,0.36538461538461536,0.8269230769230769,0.21428571428571427,0.8571428571428571,0.0004
246,1.548932135105133,1.5364465713500977,0.38461538461538464,0.8269230769230769,0.21428571428571427,0.8571428571428571,0.0004
247,1.488418698310852,1.5365666151046753,0.38461538461538464,0.8269230769230769,0.21428571428571427,0.8571428571428571,0.0004
248,1.5403106808662415,1.536275029182434,0.3076923076923077,0.8269230769230769,0.21428571428571427,0.8571428571428571,0.0004
249,1.5872552394866943,1.5359361171722412,0.38461538461538464,0.8269230769230769,0.21428571428571427,0.8571428571428571,0.0004
250,1.6105587482452393,1.5359679460525513,0.3269230769230769,0.8269230769230769,0.21428571428571427,0.8571428571428571,0.0004
251,1.57989901304245,1.5357681512832642,0.4230769230769231,0.8269230769230769,0.21428571428571427,0.8571428571428571,0.0004
252,1.5582021474838257,1.535979986190796,0.3269230769230769,0.8269230769230769,0.21428571428571427,0.8571428571428571,0.0004
253,1.5501161217689514,1.5361579656600952,0.40384615384615385,0.8269230769230769,0.21428571428571427,0.8571428571428571,0.0004
254,1.5577608942985535,1.5361366271972656,0.28846153846153844,0.8269230769230769,0.21428571428571427,0.8571428571428571,0.0004
255,1.580772340297699,1.5359125137329102,0.36538461538461536,0.8269230769230769,0.21428571428571427,0.8571428571428571,0.0004
256,1.6256884336471558,1.5362205505371094,0.36538461538461536,0.8269230769230769,0.21428571428571427,0.8571428571428571,0.0004
257,1.569907546043396,1.5363374948501587,0.36538461538461536,0.8269230769230769,0.21428571428571427,0.8571428571428571,0.0004
258,1.5222446918487549,1.5365993976593018,0.46153846153846156,0.8269230769230769,0.21428571428571427,0.8571428571428571,0.0004
259,1.613908588886261,1.536835789680481,0.36538461538461536,0.8269230769230769,0.21428571428571427,0.8571428571428571,0.0004
260,1.56541246175766,1.5370830297470093,0.3076923076923077,0.8269230769230769,0.21428571428571427,0.8571428571428571,0.0004
261,1.506449818611145,1.537687063217163,0.4423076923076923,0.8269230769230769,0.21428571428571427,0.8571428571428571,0.0004
262,1.5438072681427002,1.5373421907424927,0.28846153846153844,0.8269230769230769,0.21428571428571427,0.8571428571428571,0.0004
263,1.5630103945732117,1.5371761322021484,0.40384615384615385,0.8269230769230769,0.21428571428571427,0.8571428571428571,0.0004
264,1.538912057876587,1.5368013381958008,0.4230769230769231,0.8269230769230769,0.21428571428571427,0.8571428571428571,0.0004
265,1.5964493155479431,1.5364640951156616,0.40384615384615385,0.8269230769230769,0.21428571428571427,0.8571428571428571,0.0004
266,1.5621543526649475,1.5363643169403076,0.34615384615384615,0.8269230769230769,0.21428571428571427,0.8571428571428571,0.0004
267,1.5868987441062927,1.5361132621765137,0.2692307692307692,0.8269230769230769,0.21428571428571427,0.8571428571428571,0.0004
268,1.6040993928909302,1.5357170104980469,0.3076923076923077,0.8269230769230769,0.21428571428571427,0.8571428571428571,0.0004
269,1.5577428340911865,1.5354773998260498,0.3076923076923077,0.8269230769230769,0.21428571428571427,0.8571428571428571,0.0004
270,1.5906697511672974,1.5351582765579224,0.25,0.8269230769230769,0.21428571428571427,0.8571428571428571,0.0004
271,1.5716915726661682,1.5347925424575806,0.25,0.8269230769230769,0.21428571428571427,0.8571428571428571,0.0004
272,1.5969058275222778,1.5343430042266846,0.3269230769230769,0.8269230769230769,0.21428571428571427,0.8571428571428571,0.0004
273,1.599001944065094,1.534121036529541,0.4230769230769231,0.8269230769230769,0.21428571428571427,0.8571428571428571,0.0004
274,1.5855746269226074,1.5337417125701904,0.34615384615384615,0.8269230769230769,0.21428571428571427,0.8571428571428571,0.0004
275,1.5578685402870178,1.5334192514419556,0.38461538461538464,0.8269230769230769,0.21428571428571427,0.8571428571428571,0.0004
276,1.6118566393852234,1.5332752466201782,0.23076923076923078,0.8269230769230769,0.21428571428571427,0.8571428571428571,0.0004
277,1.5950091481208801,1.5334399938583374,0.40384615384615385,0.8269230769230769,0.21428571428571427,0.8571428571428571,0.0004
278,1.6166794300079346,1.533623456954956,0.3269230769230769,0.8269230769230769,0.21428571428571427,0.8571428571428571,0.0004
279,1.5535770058631897,1.534732699394226,0.38461538461538464,0.8269230769230769,0.21428571428571427,0.8571428571428571,0.0004
280,1.6360087394714355,1.5349154472351074,0.34615384615384615,0.8269230769230769,0.21428571428571427,0.8571428571428571,0.0004
281,1.5654692649841309,1.535887360572815,0.36538461538461536,0.8269230769230769,0.21428571428571427,0.8571428571428571,0.0004
282,1.5452500581741333,1.5361509323120117,0.3269230769230769,0.8269230769230769,0.21428571428571427,0.8571428571428571,0.0004
283,1.5317391753196716,1.5359697341918945,0.3076923076923077,0.8269230769230769,0.21428571428571427,0.8571428571428571,0.0004
284,1.5567103624343872,1.535271406173706,0.34615384615384615,0.8269230769230769,0.21428571428571427,0.8571428571428571,0.0004
285,1.5958041548728943,1.5345100164413452,0.3076923076923077,0.8269230769230769,0.21428571428571427,0.8571428571428571,0.0004
286,1.560541808605194,1.5339725017547607,0.46153846153846156,0.8269230769230769,0.21428571428571427,0.8571428571428571,0.0004
287,1.559819221496582,1.5337328910827637,0.4230769230769231,0.8269230769230769,0.21428571428571427,0.8571428571428571,0.0004
288,1.6050660014152527,1.5335174798965454,0.36538461538461536,0.8269230769230769,0.21428571428571427,0.8571428571428571,0.0004
289,1.5711277723312378,1.5336118936538696,0.36538461538461536,0.8269230769230769,0.21428571428571427,0.8571428571428571,0.0004
290,1.552176594734192,1.5335352420806885,0.40384615384615385,0.8269230769230769,0.21428571428571427,0.8571428571428571,0.0004
291,1.551173448562622,1.5334036350250244,0.40384615384615385,0.8269230769230769,0.21428571428571427,0.8571428571428571,0.0004
292,1.5641523599624634,1.5335350036621094,0.40384615384615385,0.8269230769230769,0.21428571428571427,0.8571428571428571,0.0004
293,1.576711356639862,1.5335773229599,0.23076923076923078,0.8269230769230769,0.21428571428571427,0.8571428571428571,0.0004
294,1.5688319206237793,1.533271074295044,0.3076923076923077,0.8269230769230769,0.21428571428571427,0.8571428571428571,0.0004
295,1.5387560725212097,1.533066749572754,0.4423076923076923,0.8269230769230769,0.21428571428571427,0.8571428571428571,0.0004
296,1.583912968635559,1.5329039096832275,0.2692307692307692,0.8269230769230769,0.21428571428571427,0.8571428571428571,0.0004
297,1.5922155976295471,1.532979965209961,0.38461538461538464,0.8269230769230769,0.21428571428571427,0.8571428571428571,0.0004
298,1.5985602736473083,1.5329999923706055,0.36538461538461536,0.8269230769230769,0.21428571428571427,0.8571428571428571,0.0004
299,1.5962938070297241,1.5330159664154053,0.3076923076923077,0.8269230769230769,0.21428571428571427,0.8571428571428571,0.0004
300,1.541201114654541,1.5333771705627441,0.36538461538461536,0.8269230769230769,0.21428571428571427,0.8571428571428571,0.0004
301,1.6125541925430298,1.5338420867919922,0.36538461538461536,0.8269230769230769,0.21428571428571427,0.8571428571428571,0.0004
302,1.5615483522415161,1.5337460041046143,0.34615384615384615,0.8269230769230769,0.21428571428571427,0.8571428571428571,0.0004
303,1.598544955253601,1.534023642539978,0.3269230769230769,0.8269230769230769,0.21428571428571427,0.8571428571428571,0.0004
304,1.5609367489814758,1.534372329711914,0.46153846153846156,0.8269230769230769,0.21428571428571427,0.8571428571428571,0.0004
305,1.5958114862442017,1.535163402557373,0.36538461538461536,0.8269230769230769,0.21428571428571427,0.8571428571428571,0.0004
306,1.5956246852874756,1.5363578796386719,0.28846153846153844,0.8269230769230769,0.21428571428571427,0.8571428571428571,0.0004
307,1.5657394528388977,1.5372014045715332,0.3076923076923077,0.8269230769230769,0.21428571428571427,0.8571428571428571,0.0004
308,1.5904152989387512,1.5375252962112427,0.38461538461538464,0.8269230769230769,0.21428571428571427,0.8571428571428571,0.0004
309,1.5829572081565857,1.5378402471542358,0.3076923076923077,0.8269230769230769,0.21428571428571427,0.8571428571428571,0.0004
310,1.6041722893714905,1.5386638641357422,0.3076923076923077,0.8269230769230769,0.21428571428571427,0.8571428571428571,0.0004
311,1.5793933272361755,1.5394136905670166,0.36538461538461536,0.8269230769230769,0.21428571428571427,0.8571428571428571,0.0004
312,1.5397047400474548,1.5399446487426758,0.4230769230769231,0.8269230769230769,0.21428571428571427,0.8571428571428571,0.0004
313,1.5875363945960999,1.5401530265808105,0.36538461538461536,0.8269230769230769,0.21428571428571427,0.8571428571428571,0.0004
314,1.6629339456558228,1.5401699542999268,0.3076923076923077,0.8269230769230769,0.21428571428571427,0.8571428571428571,0.0004
315,1.5532169342041016,1.5403947830200195,0.36538461538461536,0.8269230769230769,0.21428571428571427,0.8571428571428571,0.0004
316,1.5518070459365845,1.539870023727417,0.4230769230769231,0.8269230769230769,0.21428571428571427,0.8571428571428571,0.0004
317,1.5443682670593262,1.5398005247116089,0.36538461538461536,0.8269230769230769,0.21428571428571427,0.8571428571428571,0.0004
318,1.640811264514923,1.5390090942382812,0.34615384615384615,0.8269230769230769,0.21428571428571427,0.8571428571428571,0.0004
319,1.5796507000923157,1.5393353700637817,0.28846153846153844,0.8269230769230769,0.21428571428571427,0.8571428571428571,0.0004
320,1.5466946959495544,1.5391494035720825,0.3269230769230769,0.8269230769230769,0.21428571428571427,0.8571428571428571,0.0004
321,1.5544464588165283,1.539052128791809,0.2692307692307692,0.8269230769230769,0.21428571428571427,0.8571428571428571,0.0004
322,1.5511520504951477,1.5389703512191772,0.38461538461538464,0.8269230769230769,0.21428571428571427,0.8571428571428571,0.0004
323,1.5788228511810303,1.538963794708252,0.38461538461538464,0.8269230769230769,0.21428571428571427,0.8571428571428571,0.0004
324,1.5668476223945618,1.539188265800476,0.28846153846153844,0.8269230769230769,0.21428571428571427,0.8571428571428571,0.0004
325,1.5988240838050842,1.539687991142273,0.3076923076923077,0.8269230769230769,0.21428571428571427,0.8571428571428571,0.0004
326,1.5525063276290894,1.5401736497879028,0.4230769230769231,0.8269230769230769,0.21428571428571427,0.8571428571428571,0.0004
327,1.55562025308609,1.5404856204986572,0.34615384615384615,0.8269230769230769,0.21428571428571427,0.8571428571428571,0.0004
328,1.628091812133789,1.540774941444397,0.3076923076923077,0.8269230769230769,0.21428571428571427,0.8571428571428571,0.0004
329,1.5389447212219238,1.5410032272338867,0.28846153846153844,0.8269230769230769,0.21428571428571427,0.8571428571428571,0.0004
330,1.6202741265296936,1.541363000869751,0.28846153846153844,0.8269230769230769,0.21428571428571427,0.8571428571428571,0.0004
331,1.5811622738838196,1.5416724681854248,0.3269230769230769,0.8269230769230769,0.21428571428571427,0.8571428571428571,0.0004
332,1.562369465827942,1.5421371459960938,0.36538461538461536,0.8269230769230769,0.21428571428571427,0.8571428571428571,0.0004
333,1.5616084933280945,1.542466163635254,0.3269230769230769,0.8269230769230769,0.21428571428571427,0.8571428571428571,0.0004
334,1.5691773295402527,1.541995882987976,0.36538461538461536,0.8269230769230769,0.21428571428571427,0.8571428571428571,0.0004
335,1.5805897116661072,1.5419665575027466,0.36538461538461536,0.8269230769230769,0.21428571428571427,0.8571428571428571,0.0004
336,1.5845091938972473,1.5416114330291748,0.34615384615384615,0.8269230769230769,0.21428571428571427,0.8571428571428571,0.0004
337,1.5673659443855286,1.5415325164794922,0.4230769230769231,0.8269230769230769,0.21428571428571427,0.8571428571428571,0.0004
338,1.5379151105880737,1.541339635848999,0.4230769230769231,0.8269230769230769,0.21428571428571427,0.8571428571428571,0.0004
339,1.570689082145691,1.5409623384475708,0.28846153846153844,0.8269230769230769,0.21428571428571427,0.8571428571428571,0.0004
340,1.625140905380249,1.5405073165893555,0.3269230769230769,0.8269230769230769,0.21428571428571427,0.8571428571428571,0.0004
341,1.5556321740150452,1.540355920791626,0.38461538461538464,0.8269230769230769,0.21428571428571427,0.8571428571428571,0.0004
342,1.5629794001579285,1.5403704643249512,0.38461538461538464,0.8269230769230769,0.21428571428571427,0.8571428571428571,0.0004
343,1.5677387118339539,1.5400162935256958,0.3269230769230769,0.8269230769230769,0.21428571428571427,0.8571428571428571,0.0004
344,1.5702219605445862,1.5399318933486938,0.4230769230769231,0.8269230769230769,0.21428571428571427,0.8571428571428571,0.0004
345,1.6029004454612732,1.5395634174346924,0.4230769230769231,0.8269230769230769,0.21428571428571427,0.8571428571428571,0.0004
346,1.5759999752044678,1.5395339727401733,0.3076923076923077,0.8269230769230769,0.21428571428571427,0.8571428571428571,0.0004
347,1.5441076159477234,1.539109706878662,0.38461538461538464,0.8269230769230769,0.21428571428571427,0.8571428571428571,0.0004
348,1.5747503638267517,1.5385637283325195,0.4423076923076923,0.8269230769230769,0.21428571428571427,0.8571428571428571,0.0004
349,1.5650439858436584,1.5380427837371826,0.38461538461538464,0.8269230769230769,0.21428571428571427,0.8571428571428571,0.0004
350,1.5517370104789734,1.5374162197113037,0.34615384615384615,0.8269230769230769,0.21428571428571427,0.8571428571428571,0.0004
351,1.5574312210083008,1.5363450050354004,0.34615384615384615,0.8269230769230769,0.21428571428571427,0.8571428571428571,0.0004
352,1.5444597005844116,1.5352351665496826,0.38461538461538464,0.8269230769230769,0.21428571428571427,0.8571428571428571,0.0004
353,1.5311265587806702,1.5343601703643799,0.38461538461538464,0.8269230769230769,0.21428571428571427,0.8571428571428571,0.0004
354,1.592788279056549,1.5339914560317993,0.4230769230769231,0.8269230769230769,0.21428571428571427,0.8571428571428571,0.0004
355,1.6153076887130737,1.5337446928024292,0.3076923076923077,0.8269230769230769,0.21428571428571427,0.8571428571428571,0.0004
356,1.5934038758277893,1.5336811542510986,0.34615384615384615,0.8269230769230769,0.21428571428571427,0.8571428571428571,0.0004
357,1.573418378829956,1.533595085144043,0.3269230769230769,0.8269230769230769,0.21428571428571427,0.8571428571428571,0.0004
358,1.6000126600265503,1.534019947052002,0.34615384615384615,0.8269230769230769,0.21428571428571427,0.8571428571428571,0.0004
359,1.6136890649795532,1.5344265699386597,0.40384615384615385,0.8269230769230769,0.21428571428571427,0.8571428571428571,0.0004
360,1.5432937145233154,1.5346806049346924,0.38461538461538464,0.8269230769230769,0.21428571428571427,0.8571428571428571,0.0004
361,1.4999439716339111,1.5348604917526245,0.38461538461538464,0.8269230769230769,0.21428571428571427,0.8571428571428571,0.0004
362,1.5680577158927917,1.5349065065383911,0.36538461538461536,0.8269230769230769,0.21428571428571427,0.8571428571428571,0.0004
363,1.5343974232673645,1.5344643592834473,0.4230769230769231,0.8269230769230769,0.21428571428571427,0.8571428571428571,0.0004
364,1.513418197631836,1.5340174436569214,0.28846153846153844,0.8269230769230769,0.21428571428571427,0.8571428571428571,0.0004
365,1.5866494178771973,1.5337514877319336,0.34615384615384615,0.8269230769230769,0.21428571428571427,0.8571428571428571,0.0004
366,1.5438491702079773,1.5338609218597412,0.36538461538461536,0.8269230769230769,0.21428571428571427,0.8571428571428571,0.0004
367,1.581504464149475,1.5336294174194336,0.36538461538461536,0.8269230769230769,0.21428571428571427,0.8571428571428571,0.0004
368,1.5749161839485168,1.533912181854248,0.36538461538461536,0.8269230769230769,0.21428571428571427,0.8571428571428571,0.0004
369,1.5913426876068115,1.534039855003357,0.28846153846153844,0.8269230769230769,0.21428571428571427,0.8571428571428571,0.0004
370,1.5790846943855286,1.5337857007980347,0.4230769230769231,0.8269230769230769,0.21428571428571427,0.8571428571428571,0.0004
371,1.562153697013855,1.5339362621307373,0.28846153846153844,0.8269230769230769,0.21428571428571427,0.8571428571428571,0.0004
372,1.5723910331726074,1.5341081619262695,0.3076923076923077,0.8269230769230769,0.21428571428571427,0.8571428571428571,0.0004
373,1.5762810111045837,1.5341540575027466,0.28846153846153844,0.8269230769230769,0.21428571428571427,0.8571428571428571,0.0004
374,1.5629290342330933,1.5345826148986816,0.3076923076923077,0.8269230769230769,0.21428571428571427,0.8571428571428571,0.0004
375,1.6208276152610779,1.535013198852539,0.36538461538461536,0.8269230769230769,0.21428571428571427,0.8571428571428571,0.0004
376,1.5535414218902588,1.535030722618103,0.38461538461538464,0.8269230769230769,0.21428571428571427,0.8571428571428571,0.0004
377,1.590255081653595,1.5350873470306396,0.3269230769230769,0.8269230769230769,0.21428571428571427,0.8571428571428571,0.0004
378,1.5676368474960327,1.5354195833206177,0.28846153846153844,0.8269230769230769,0.21428571428571427,0.8571428571428571,0.0004
379,1.6028972864151,1.5352628231048584,0.36538461538461536,0.8269230769230769,0.21428571428571427,0.8571428571428571,0.0004
380,1.567757785320282,1.5354207754135132,0.28846153846153844,0.8269230769230769,0.21428571428571427,0.8571428571428571,0.0004
381,1.5381625294685364,1.534794569015503,0.28846153846153844,0.8269230769230769,0.21428571428571427,0.8571428571428571,0.0004
382,1.5674527883529663,1.5347042083740234,0.40384615384615385,0.8269230769230769,0.21428571428571427,0.8571428571428571,0.0004
383,1.5450603365898132,1.5349512100219727,0.34615384615384615,0.8269230769230769,0.21428571428571427,0.8571428571428571,0.0004
384,1.567419707775116,1.5344440937042236,0.38461538461538464,0.8269230769230769,0.21428571428571427,0.8571428571428571,0.0004
385,1.5936444401741028,1.5349023342132568,0.25,0.8269230769230769,0.21428571428571427,0.8571428571428571,0.0004
386,1.5753058195114136,1.5349870920181274,0.28846153846153844,0.8269230769230769,0.21428571428571427,0.8571428571428571,0.0004
387,1.6406667828559875,1.5352022647857666,0.34615384615384615,0.8269230769230769,0.21428571428571427,0.8571428571428571,0.0004
388,1.6710088849067688,1.535874366760254,0.34615384615384615,0.8269230769230769,0.21428571428571427,0.8571428571428571,0.0004
389,1.568655252456665,1.5367238521575928,0.38461538461538464,0.8269230769230769,0.21428571428571427,0.8571428571428571,0.0004
390,1.6062414050102234,1.5375605821609497,0.25,0.8269230769230769,0.21428571428571427,0.8571428571428571,0.0004
391,1.5666077733039856,1.5385210514068604,0.34615384615384615,0.8269230769230769,0.21428571428571427,0.8571428571428571,0.0004
392,1.547591209411621,1.539086937904358,0.28846153846153844,0.8269230769230769,0.21428571428571427,0.8571428571428571,0.0004
393,1.545414924621582,1.5391061305999756,0.28846153846153844,0.8269230769230769,0.21428571428571427,0.8571428571428571,0.0004
394,1.5571902990341187,1.5383485555648804,0.3269230769230769,0.8269230769230769,0.21428571428571427,0.8571428571428571,0.0004
395,1.5801537036895752,1.5376641750335693,0.3269230769230769,0.8269230769230769,0.21428571428571427,0.8571428571428571,0.0004
396,1.527694821357727,1.5367977619171143,0.34615384615384615,0.8269230769230769,0.21428571428571427,0.8571428571428571,0.0004
397,1.5662235617637634,1.53584885597229,0.4423076923076923,0.8269230769230769,0.21428571428571427,0.8571428571428571,0.0004
398,1.5858410000801086,1.5344653129577637,0.34615384615384615,0.8269230769230769,0.21428571428571427,0.8571428571428571,0.0004
399,1.5299559831619263,1.5336872339248657,0.38461538461538464,0.8269230769230769,0.21428571428571427,0.8571428571428571,0.0004
400,1.5217800736427307,1.5329034328460693,0.36538461538461536,0.8269230769230769,0.21428571428571427,0.8571428571428571,0.0004
401,1.5478664636611938,1.5319278240203857,0.46153846153846156,0.8269230769230769,0.21428571428571427,0.8571428571428571,0.0004
402,1.547846794128418,1.5318366289138794,0.28846153846153844,0.8269230769230769,0.21428571428571427,0.8571428571428571,0.0004
403,1.5624563097953796,1.531280279159546,0.4807692307692308,0.8269230769230769,0.21428571428571427,0.8571428571428571,0.0004
404,1.5878916382789612,1.530827283859253,0.40384615384615385,0.8269230769230769,0.21428571428571427,0.8571428571428571,0.0004
405,1.523403823375702,1.5306715965270996,0.34615384615384615,0.8269230769230769,0.21428571428571427,0.8571428571428571,0.0004
406,1.5816776156425476,1.5307598114013672,0.38461538461538464,0.8269230769230769,0.21428571428571427,0.8571428571428571,0.0004
407,1.5429142713546753,1.5307658910751343,0.34615384615384615,0.8269230769230769,0.21428571428571427,0.8571428571428571,0.0004
408,1.5524607300758362,1.5308598279953003,0.5192307692307693,0.8269230769230769,0.21428571428571427,0.8571428571428571,0.0004
409,1.6438809037208557,1.5307339429855347,0.36538461538461536,0.8269230769230769,0.21428571428571427,0.8571428571428571,0.0004
410,1.5361701846122742,1.531365156173706,0.36538461538461536,0.8269230769230769,0.21428571428571427,0.8571428571428571,0.0004
411,1.591088354587555,1.5313093662261963,0.40384615384615385,0.8269230769230769,0.21428571428571427,0.8571428571428571,0.0004
412,1.514799952507019,1.531733512878418,0.4230769230769231,0.8269230769230769,0.21428571428571427,0.8571428571428571,0.0004
413,1.6009942889213562,1.5319020748138428,0.40384615384615385,0.8269230769230769,0.21428571428571427,0.8571428571428571,0.0004
414,1.5923799872398376,1.5318143367767334,0.36538461538461536,0.8269230769230769,0.21428571428571427,0.8571428571428571,0.0004
415,1.553597331047058,1.5320866107940674,0.28846153846153844,0.8269230769230769,0.21428571428571427,0.8571428571428571,0.0004
416,1.5737351775169373,1.5324512720108032,0.36538461538461536,0.8269230769230769,0.21428571428571427,0.8571428571428571,0.0004
417,1.5341328382492065,1.532557487487793,0.36538461538461536,0.8269230769230769,0.21428571428571427,0.8571428571428571,0.0004
418,1.5747222304344177,1.5331063270568848,0.4423076923076923,0.8269230769230769,0.21428571428571427,0.8571428571428571,0.0004
419,1.6329652070999146,1.5337746143341064,0.28846153846153844,0.8269230769230769,0.21428571428571427,0.8571428571428571,0.0004
420,1.6224175095558167,1.5346237421035767,0.3076923076923077,0.8269230769230769,0.21428571428571427,0.8571428571428571,0.0004
421,1.5863693952560425,1.5358635187149048,0.4230769230769231,0.8269230769230769,0.21428571428571427,0.8571428571428571,0.0004
422,1.5773617625236511,1.5365889072418213,0.28846153846153844,0.8269230769230769,0.21428571428571427,0.8571428571428571,0.0004
423,1.5669806003570557,1.5378963947296143,0.4423076923076923,0.8269230769230769,0.21428571428571427,0.8571428571428571,0.0004
424,1.623613178730011,1.5388861894607544,0.34615384615384615,0.8269230769230769,0.21428571428571427,0.8571428571428571,0.0004
425,1.5930016040802002,1.5404415130615234,0.3269230769230769,0.8269230769230769,0.21428571428571427,0.8571428571428571,0.0004
426,1.581635296344757,1.5419912338256836,0.3269230769230769,0.8269230769230769,0.21428571428571427,0.8571428571428571,0.0004
427,1.6070016026496887,1.542985200881958,0.36538461538461536,0.8269230769230769,0.21428571428571427,0.8571428571428571,0.0004
428,1.6415615677833557,1.5435943603515625,0.2692307692307692,0.8269230769230769,0.21428571428571427,0.8571428571428571,0.0004
429,1.573481261730194,1.5446170568466187,0.3076923076923077,0.8269230769230769,0.21428571428571427,0.8571428571428571,0.0004
430,1.627376675605774,1.5450217723846436,0.25,0.8269230769230769,0.21428571428571427,0.8571428571428571,0.0004
431,1.5676244497299194,1.5455548763275146,0.46153846153846156,0.8269230769230769,0.21428571428571427,0.8571428571428571,0.0004
432,1.5757888555526733,1.5454113483428955,0.2692307692307692,0.8269230769230769,0.21428571428571427,0.8571428571428571,0.0004
433,1.5859190821647644,1.5450741052627563,0.3269230769230769,0.8269230769230769,0.21428571428571427,0.8571428571428571,0.0004
434,1.5854127407073975,1.5445778369903564,0.3076923076923077,0.8269230769230769,0.21428571428571427,0.8571428571428571,0.0004
435,1.5556662678718567,1.5437124967575073,0.4230769230769231,0.8269230769230769,0.21428571428571427,0.8571428571428571,0.0004
436,1.5356035828590393,1.5426466464996338,0.34615384615384615,0.8269230769230769,0.21428571428571427,0.8571428571428571,0.0004
437,1.5491957664489746,1.541192889213562,0.40384615384615385,0.8269230769230769,0.21428571428571427,0.8571428571428571,0.0004
438,1.6258621215820312,1.5394883155822754,0.2692307692307692,0.8269230769230769,0.21428571428571427,0.8571428571428571,0.0004
439,1.5470935106277466,1.5382046699523926,0.36538461538461536,0.8269230769230769,0.21428571428571427,0.8571428571428571,0.0004
440,1.5939337611198425,1.5372415781021118,0.28846153846153844,0.8269230769230769,0.21428571428571427,0.8571428571428571,0.0004
441,1.5848014950752258,1.5359628200531006,0.34615384615384615,0.8269230769230769,0.21428571428571427,0.8571428571428571,0.0004
442,1.5894129276275635,1.534557580947876,0.3269230769230769,0.8269230769230769,0.21428571428571427,0.8571428571428571,0.0004
443,1.56733238697052,1.5337430238723755,0.36538461538461536,0.8269230769230769,0.21428571428571427,0.8571428571428571,0.0004
444,1.5774942636489868,1.533055067062378,0.25,0.8269230769230769,0.21428571428571427,0.8571428571428571,0.0004
445,1.5690467357635498,1.5321595668792725,0.46153846153846156,0.8269230769230769,0.21428571428571427,0.8571428571428571,0.0004
446,1.559679627418518,1.5311126708984375,0.46153846153846156,0.8269230769230769,0.21428571428571427,0.8571428571428571,0.0004
447,1.533174753189087,1.5307029485702515,0.36538461538461536,0.8269230769230769,0.21428571428571427,0.8571428571428571,0.0004
448,1.5455307364463806,1.5303794145584106,0.34615384615384615,0.8269230769230769,0.21428571428571427,0.8571428571428571,0.0004
449,1.62087482213974,1.5302636623382568,0.3076923076923077,0.8269230769230769,0.21428571428571427,0.8571428571428571,0.0004
450,1.595023512840271,1.5301158428192139,0.34615384615384615,0.8269230769230769,0.21428571428571427,0.8571428571428571,0.0004
451,1.5860206484794617,1.5302826166152954,0.3269230769230769,0.8269230769230769,0.21428571428571427,0.8571428571428571,0.0004
452,1.5149096250534058,1.5303939580917358,0.4807692307692308,0.8269230769230769,0.21428571428571427,0.8571428571428571,0.0004
453,1.5528100728988647,1.5306200981140137,0.5576923076923077,0.8269230769230769,0.21428571428571427,0.8571428571428571,0.0004
454,1.6137146949768066,1.531219482421875,0.3269230769230769,0.8269230769230769,0.21428571428571427,0.8571428571428571,0.0004
455,1.614579677581787,1.5316065549850464,0.34615384615384615,0.8269230769230769,0.21428571428571427,0.8571428571428571,0.0004
456,1.526705265045166,1.5326298475265503,0.28846153846153844,0.8269230769230769,0.21428571428571427,0.8571428571428571,0.0004
457,1.541601300239563,1.533248782157898,0.34615384615384615,0.8269230769230769,0.21428571428571427,0.8571428571428571,0.0004
458,1.5948363542556763,1.5340980291366577,0.3076923076923077,0.8269230769230769,0.21428571428571427,0.8571428571428571,0.0004
459,1.5704159140586853,1.5345382690429688,0.3269230769230769,0.8269230769230769,0.21428571428571427,0.8571428571428571,0.0004
460,1.5555952787399292,1.534968376159668,0.38461538461538464,0.8269230769230769,0.21428571428571427,0.8571428571428571,0.0004
461,1.6270556449890137,1.5353102684020996,0.3269230769230769,0.8269230769230769,0.21428571428571427,0.8571428571428571,0.0004
462,1.5746778845787048,1.5356600284576416,0.3269230769230769,0.8269230769230769,0.21428571428571427,0.8571428571428571,0.0004
463,1.6357150673866272,1.5359197854995728,0.2692307692307692,0.8269230769230769,0.21428571428571427,0.8571428571428571,0.0004
464,1.5398759245872498,1.5362548828125,0.3269230769230769,0.8269230769230769,0.21428571428571427,0.8571428571428571,0.0004
465,1.5951210856437683,1.5367214679718018,0.3269230769230769,0.8269230769230769,0.21428571428571427,0.8571428571428571,0.0004
466,1.5854342579841614,1.537637710571289,0.36538461538461536,0.8269230769230769,0.21428571428571427,0.8571428571428571,0.0004
467,1.549266278743744,1.5380346775054932,0.34615384615384615,0.8269230769230769,0.21428571428571427,0.8571428571428571,0.0004
468,1.5630872249603271,1.5386236906051636,0.36538461538461536,0.8269230769230769,0.21428571428571427,0.8571428571428571,0.0004
469,1.5488187670707703,1.5388915538787842,0.28846153846153844,0.8269230769230769,0.21428571428571427,0.8571428571428571,0.0004
470,1.5756881833076477,1.5390106439590454,0.34615384615384615,0.8269230769230769,0.21428571428571427,0.8571428571428571,0.0004
471,1.5758326649665833,1.539423942565918,0.4230769230769231,0.8269230769230769,0.21428571428571427,0.8571428571428571,0.0004
472,1.6104540824890137,1.5394957065582275,0.34615384615384615,0.8269230769230769,0.21428571428571427,0.8571428571428571,0.0004
473,1.5569095611572266,1.540137767791748,0.4230769230769231,0.8269230769230769,0.21428571428571427,0.8571428571428571,0.0004
474,1.5854864120483398,1.5404107570648193,0.40384615384615385,0.8269230769230769,0.21428571428571427,0.8571428571428571,0.0004
475,1.5594229698181152,1.5410287380218506,0.38461538461538464,0.8269230769230769,0.21428571428571427,0.8571428571428571,0.0004
476,1.5523844957351685,1.5407450199127197,0.40384615384615385,0.8269230769230769,0.21428571428571427,0.8571428571428571,0.0004
477,1.6079795360565186,1.5406007766723633,0.3076923076923077,0.8269230769230769,0.21428571428571427,0.8571428571428571,0.0004
478,1.58448988199234,1.5405582189559937,0.3269230769230769,0.8269230769230769,0.21428571428571427,0.8571428571428571,0.0004
479,1.53668212890625,1.5403506755828857,0.4230769230769231,0.8269230769230769,0.21428571428571427,0.8571428571428571,0.0004
480,1.523565411567688,1.5400676727294922,0.34615384615384615,0.8269230769230769,0.21428571428571427,0.8571428571428571,0.0004
481,1.5917775630950928,1.5394315719604492,0.3269230769230769,0.8269230769230769,0.21428571428571427,0.8571428571428571,0.0004
482,1.5745202898979187,1.5388133525848389,0.40384615384615385,0.8269230769230769,0.21428571428571427,0.8571428571428571,0.0004
483,1.5914587378501892,1.5386321544647217,0.36538461538461536,0.8269230769230769,0.21428571428571427,0.8571428571428571,0.0004
484,1.582388460636139,1.538493275642395,0.36538461538461536,0.8269230769230769,0.21428571428571427,0.8571428571428571,0.0004
485,1.6163000464439392,1.5383141040802002,0.34615384615384615,0.8269230769230769,0.21428571428571427,0.8571428571428571,0.0004
486,1.5858078598976135,1.5382940769195557,0.40384615384615385,0.8269230769230769,0.21428571428571427,0.8571428571428571,0.0004
487,1.552419662475586,1.538520336151123,0.34615384615384615,0.8269230769230769,0.21428571428571427,0.8571428571428571,0.0004
488,1.5137858390808105,1.538604974746704,0.34615384615384615,0.8269230769230769,0.21428571428571427,0.8571428571428571,0.0004
489,1.5685911774635315,1.5383410453796387,0.4423076923076923,0.8269230769230769,0.21428571428571427,0.8571428571428571,0.0004
490,1.577402412891388,1.5383189916610718,0.34615384615384615,0.8269230769230769,0.21428571428571427,0.8571428571428571,0.0004
491,1.617023229598999,1.5377700328826904,0.36538461538461536,0.8269230769230769,0.21428571428571427,0.8571428571428571,0.0004
492,1.604373276233673,1.5376574993133545,0.40384615384615385,0.8269230769230769,0.21428571428571427,0.8571428571428571,0.0004
493,1.5946871042251587,1.5375401973724365,0.36538461538461536,0.8269230769230769,0.21428571428571427,0.8571428571428571,0.0004
494,1.5414881110191345,1.5376207828521729,0.38461538461538464,0.8269230769230769,0.21428571428571427,0.8571428571428571,0.0004
495,1.6030815243721008,1.537751317024231,0.36538461538461536,0.8269230769230769,0.21428571428571427,0.8571428571428571,0.0004
496,1.5908621549606323,1.537947654724121,0.3269230769230769,0.8269230769230769,0.21428571428571427,0.8571428571428571,0.0004
497,1.5722132921218872,1.538507103919983,0.2692307692307692,0.8269230769230769,0.21428571428571427,0.8571428571428571,0.0004
498,1.5618369579315186,1.5385326147079468,0.3076923076923077,0.8269230769230769,0.21428571428571427,0.8571428571428571,0.0004
499,1.564518392086029,1.5389825105667114,0.34615384615384615,0.8269230769230769,0.21428571428571427,0.8571428571428571,0.0004
500,1.5835104584693909,1.5391132831573486,0.38461538461538464,0.8269230769230769,0.21428571428571427,0.8571428571428571,0.0004
501,1.5077607035636902,1.538991093635559,0.38461538461538464,0.8269230769230769,0.21428571428571427,0.8571428571428571,0.0004
502,1.6244822144508362,1.5385044813156128,0.38461538461538464,0.8269230769230769,0.21428571428571427,0.8571428571428571,0.0004
503,1.5724815130233765,1.5388871431350708,0.36538461538461536,0.8269230769230769,0.21428571428571427,0.8571428571428571,0.0004
504,1.5893561840057373,1.5389653444290161,0.34615384615384615,0.8269230769230769,0.21428571428571427,0.8571428571428571,0.0004
505,1.5680773854255676,1.5388953685760498,0.36538461538461536,0.8269230769230769,0.21428571428571427,0.8571428571428571,0.0004
506,1.5666733384132385,1.53913414478302,0.36538461538461536,0.8269230769230769,0.21428571428571427,0.8571428571428571,0.0004
507,1.5710188746452332,1.5391124486923218,0.3269230769230769,0.8269230769230769,0.21428571428571427,0.8571428571428571,0.0004
508,1.534322202205658,1.5392042398452759,0.4230769230769231,0.8269230769230769,0.21428571428571427,0.8571428571428571,0.0004
509,1.5425085425376892,1.539074420928955,0.38461538461538464,0.8269230769230769,0.21428571428571427,0.8571428571428571,0.0004
510,1.5231313109397888,1.5387003421783447,0.3076923076923077,0.8269230769230769,0.21428571428571427,0.8571428571428571,0.0004
511,1.5238545536994934,1.5383901596069336,0.36538461538461536,0.8269230769230769,0.21428571428571427,0.8571428571428571,0.0004
512,1.603079080581665,1.5382025241851807,0.28846153846153844,0.8269230769230769,0.21428571428571427,0.8571428571428571,0.0004
513,1.5916684865951538,1.538470983505249,0.40384615384615385,0.8269230769230769,0.21428571428571427,0.8571428571428571,0.0004
514,1.555460512638092,1.5386111736297607,0.40384615384615385,0.8269230769230769,0.21428571428571427,0.8571428571428571,0.0004
515,1.5858526229858398,1.538883924484253,0.36538461538461536,0.8269230769230769,0.21428571428571427,0.8571428571428571,0.0004
516,1.584445595741272,1.5393272638320923,0.38461538461538464,0.8269230769230769,0.21428571428571427,0.8571428571428571,0.0004
517,1.5508971810340881,1.5391980409622192,0.40384615384615385,0.8269230769230769,0.21428571428571427,0.8571428571428571,0.0004
518,1.607901930809021,1.5392053127288818,0.3076923076923077,0.8269230769230769,0.21428571428571427,0.8571428571428571,0.0004
519,1.55085688829422,1.539456844329834,0.40384615384615385,0.8269230769230769,0.21428571428571427,0.8571428571428571,0.0004
520,1.5418654680252075,1.5394988059997559,0.34615384615384615,0.8269230769230769,0.21428571428571427,0.8571428571428571,0.0004
521,1.5616120100021362,1.5392566919326782,0.34615384615384615,0.8269230769230769,0.21428571428571427,0.8571428571428571,0.0004
522,1.5850748419761658,1.5389825105667114,0.3269230769230769,0.8269230769230769,0.21428571428571427,0.8571428571428571,0.0004
523,1.5680355429649353,1.5388219356536865,0.36538461538461536,0.8269230769230769,0.21428571428571427,0.8571428571428571,0.0004
524,1.5280386209487915,1.5383366346359253,0.3269230769230769,0.8269230769230769,0.21428571428571427,0.8571428571428571,0.0004
525,1.6087427735328674,1.5380791425704956,0.4230769230769231,0.8269230769230769,0.21428571428571427,0.8571428571428571,0.0004
526,1.6228252053260803,1.537611722946167,0.25,0.8269230769230769,0.21428571428571427,0.8571428571428571,0.0004
527,1.5786905884742737,1.5368740558624268,0.2692307692307692,0.8269230769230769,0.21428571428571427,0.8571428571428571,0.0004
528,1.53325355052948,1.536576747894287,0.36538461538461536,0.8269230769230769,0.21428571428571427,0.8571428571428571,0.0004
529,1.5500275492668152,1.5358492136001587,0.34615384615384615,0.8269230769230769,0.21428571428571427,0.8571428571428571,0.0004
530,1.574901282787323,1.5354152917861938,0.34615384615384615,0.8269230769230769,0.21428571428571427,0.8571428571428571,0.0004
531,1.562486171722412,1.5348860025405884,0.40384615384615385,0.8269230769230769,0.21428571428571427,0.8571428571428571,0.0004
532,1.5849116444587708,1.5345585346221924,0.34615384615384615,0.8269230769230769,0.21428571428571427,0.8571428571428571,0.0004
533,1.6101109981536865,1.5344282388687134,0.3269230769230769,0.8269230769230769,0.21428571428571427,0.8571428571428571,0.0004
534,1.5869001746177673,1.5347270965576172,0.3269230769230769,0.8269230769230769,0.21428571428571427,0.8571428571428571,0.0004
535,1.5520375967025757,1.5349524021148682,0.2692307692307692,0.8269230769230769,0.21428571428571427,0.8571428571428571,0.0004
536,1.5494227409362793,1.535167932510376,0.36538461538461536,0.8269230769230769,0.21428571428571427,0.8571428571428571,0.0004
537,1.559713363647461,1.5347394943237305,0.28846153846153844,0.8269230769230769,0.21428571428571427,0.8571428571428571,0.0004
538,1.6278189420700073,1.5349149703979492,0.3076923076923077,0.8269230769230769,0.21428571428571427,0.8571428571428571,0.0004
539,1.5841401815414429,1.5348097085952759,0.3269230769230769,0.8269230769230769,0.21428571428571427,0.8571428571428571,0.0004
540,1.56182062625885,1.5346672534942627,0.2692307692307692,0.8269230769230769,0.21428571428571427,0.8571428571428571,0.0004
541,1.572631299495697,1.5346702337265015,0.28846153846153844,0.8269230769230769,0.21428571428571427,0.8571428571428571,0.0004
542,1.6236425042152405,1.5345269441604614,0.2692307692307692,0.8269230769230769,0.21428571428571427,0.8571428571428571,0.0004
543,1.6262739300727844,1.5347113609313965,0.36538461538461536,0.8269230769230769,0.21428571428571427,0.8571428571428571,0.0004
544,1.575437068939209,1.5350626707077026,0.28846153846153844,0.8269230769230769,0.21428571428571427,0.8571428571428571,0.0004
545,1.5816282629966736,1.5354437828063965,0.4423076923076923,0.8269230769230769,0.21428571428571427,0.8571428571428571,0.0004
546,1.5586678981781006,1.5355863571166992,0.38461538461538464,0.8269230769230769,0.21428571428571427,0.8571428571428571,0.0004
547,1.5384774208068848,1.535648226737976,0.34615384615384615,0.8269230769230769,0.21428571428571427,0.8571428571428571,0.0004
548,1.567671298980713,1.5353000164031982,0.36538461538461536,0.8269230769230769,0.21428571428571427,0.8571428571428571,0.0004
549,1.6102697849273682,1.5355162620544434,0.36538461538461536,0.8269230769230769,0.21428571428571427,0.8571428571428571,0.0004
550,1.5634211301803589,1.5355193614959717,0.40384615384615385,0.8269230769230769,0.21428571428571427,0.8571428571428571,0.0004
551,1.5954962372779846,1.5351471900939941,0.40384615384615385,0.8269230769230769,0.21428571428571427,0.8571428571428571,0.0004
552,1.5223301649093628,1.5349482297897339,0.3076923076923077,0.8269230769230769,0.21428571428571427,0.8571428571428571,0.0004
553,1.5656894445419312,1.5344398021697998,0.38461538461538464,0.8269230769230769,0.21428571428571427,0.8571428571428571,0.0004
554,1.5403713583946228,1.5339648723602295,0.3269230769230769,0.8269230769230769,0.21428571428571427,0.8571428571428571,0.0004
555,1.5867339372634888,1.5331993103027344,0.19230769230769232,0.8269230769230769,0.21428571428571427,0.8571428571428571,0.0004
556,1.6191474199295044,1.5328025817871094,0.3269230769230769,0.8269230769230769,0.21428571428571427,0.8571428571428571,0.0004
557,1.604940950870514,1.532749056816101,0.3076923076923077,0.8269230769230769,0.21428571428571427,0.8571428571428571,0.0004
558,1.578271746635437,1.5330053567886353,0.36538461538461536,0.8269230769230769,0.21428571428571427,0.8571428571428571,0.0004
559,1.5573928356170654,1.5331833362579346,0.40384615384615385,0.8269230769230769,0.21428571428571427,0.8571428571428571,0.0004
560,1.5518116354942322,1.533068299293518,0.4423076923076923,0.8269230769230769,0.21428571428571427,0.8571428571428571,0.0004
561,1.5713742971420288,1.5328869819641113,0.34615384615384615,0.8269230769230769,0.21428571428571427,0.8571428571428571,0.0004
562,1.605327844619751,1.532975196838379,0.3076923076923077,0.8269230769230769,0.21428571428571427,0.8571428571428571,0.0004
563,1.6159966588020325,1.5330350399017334,0.40384615384615385,0.8269230769230769,0.21428571428571427,0.8571428571428571,0.0004
564,1.5526701211929321,1.5336620807647705,0.40384615384615385,0.8269230769230769,0.21428571428571427,0.8571428571428571,0.0004
565,1.5728129744529724,1.5344219207763672,0.38461538461538464,0.8269230769230769,0.21428571428571427,0.8571428571428571,0.0004
566,1.5623497366905212,1.5347801446914673,0.28846153846153844,0.8269230769230769,0.21428571428571427,0.8571428571428571,0.0004
567,1.5918195247650146,1.535118579864502,0.36538461538461536,0.8269230769230769,0.21428571428571427,0.8571428571428571,0.0004
568,1.5759894251823425,1.5357897281646729,0.36538461538461536,0.8269230769230769,0.21428571428571427,0.8571428571428571,0.0004
569,1.5936560034751892,1.536886215209961,0.23076923076923078,0.8269230769230769,0.21428571428571427,0.8571428571428571,0.0004
570,1.5476118326187134,1.5378081798553467,0.40384615384615385,0.8269230769230769,0.21428571428571427,0.8571428571428571,0.0004
571,1.6098541021347046,1.5387237071990967,0.38461538461538464,0.8269230769230769,0.21428571428571427,0.8571428571428571,0.0004
572,1.6110312342643738,1.539618968963623,0.3076923076923077,0.8269230769230769,0.21428571428571427,0.8571428571428571,0.0004
573,1.6026883721351624,1.5407037734985352,0.28846153846153844,0.8269230769230769,0.21428571428571427,0.8571428571428571,0.0004
574,1.5721759796142578,1.5412070751190186,0.4230769230769231,0.8269230769230769,0.21428571428571427,0.8571428571428571,0.0004
575,1.5917658805847168,1.5417340993881226,0.34615384615384615,0.8269230769230769,0.21428571428571427,0.8571428571428571,0.0004
576,1.5300793051719666,1.5420678853988647,0.4423076923076923,0.8269230769230769,0.21428571428571427,0.8571428571428571,0.0004
577,1.5777792930603027,1.5422290563583374,0.4423076923076923,0.8269230769230769,0.21428571428571427,0.8571428571428571,0.0004
578,1.5687336921691895,1.541881799697876,0.3269230769230769,0.8269230769230769,0.21428571428571427,0.8571428571428571,0.0004
579,1.5774967074394226,1.5416746139526367,0.3076923076923077,0.8269230769230769,0.21428571428571427,0.8571428571428571,0.0004
580,1.5982221364974976,1.5411747694015503,0.38461538461538464,0.8269230769230769,0.21428571428571427,0.8571428571428571,0.0004
581,1.554838478565216,1.540999412536621,0.2692307692307692,0.8269230769230769,0.21428571428571427,0.8571428571428571,0.0004
582,1.6411010026931763,1.5406477451324463,0.34615384615384615,0.8269230769230769,0.21428571428571427,0.8571428571428571,0.0004
583,1.568487524986267,1.5407941341400146,0.36538461538461536,0.8269230769230769,0.21428571428571427,0.8571428571428571,0.0004
584,1.538891315460205,1.5407438278198242,0.38461538461538464,0.8269230769230769,0.21428571428571427,0.8571428571428571,0.0004
585,1.5818237662315369,1.5404897928237915,0.36538461538461536,0.8269230769230769,0.21428571428571427,0.8571428571428571,0.0004
586,1.5658913254737854,1.540265440940857,0.38461538461538464,0.8269230769230769,0.21428571428571427,0.8571428571428571,0.0004
587,1.5413410663604736,1.5400002002716064,0.28846153846153844,0.8269230769230769,0.21428571428571427,0.8571428571428571,0.0004
588,1.5764094591140747,1.5397393703460693,0.3269230769230769,0.8269230769230769,0.21428571428571427,0.8571428571428571,0.0004
589,1.5584610104560852,1.539372205734253,0.28846153846153844,0.8269230769230769,0.21428571428571427,0.8571428571428571,0.0004
590,1.5551440715789795,1.539396047592163,0.36538461538461536,0.8269230769230769,0.21428571428571427,0.8571428571428571,0.0004
591,1.5711925625801086,1.5394567251205444,0.36538461538461536,0.8269230769230769,0.21428571428571427,0.8571428571428571,0.0004
592,1.542007029056549,1.5394716262817383,0.36538461538461536,0.8269230769230769,0.21428571428571427,0.8571428571428571,0.0004
593,1.5449015498161316,1.5391321182250977,0.4230769230769231,0.8269230769230769,0.21428571428571427,0.8571428571428571,0.0004
594,1.533193290233612,1.539254903793335,0.3076923076923077,0.8269230769230769,0.21428571428571427,0.8571428571428571,0.0004
595,1.5762726068496704,1.5387394428253174,0.40384615384615385,0.8269230769230769,0.21428571428571427,0.8571428571428571,0.0004
596,1.566262125968933,1.5383870601654053,0.38461538461538464,0.8269230769230769,0.21428571428571427,0.8571428571428571,0.0004
597,1.5674931406974792,1.5382558107376099,0.4807692307692308,0.8269230769230769,0.21428571428571427,0.8571428571428571,0.0004
598,1.5779542922973633,1.5381951332092285,0.36538461538461536,0.8269230769230769,0.21428571428571427,0.8571428571428571,0.0004
599,1.5914645195007324,1.5376918315887451,0.34615384615384615,0.8269230769230769,0.21428571428571427,0.8571428571428571,0.0004
600,1.52799791097641,1.537330150604248,0.3269230769230769,0.8269230769230769,0.21428571428571427,0.8571428571428571,0.0004
601,1.5935094356536865,1.5369641780853271,0.36538461538461536,0.8269230769230769,0.21428571428571427,0.8571428571428571,0.0004
602,1.5383077263832092,1.536656379699707,0.34615384615384615,0.8269230769230769,0.21428571428571427,0.8571428571428571,0.0004
603,1.5830628871917725,1.5362870693206787,0.36538461538461536,0.8269230769230769,0.21428571428571427,0.8571428571428571,0.0004
604,1.6340145468711853,1.5358881950378418,0.40384615384615385,0.8269230769230769,0.21428571428571427,0.8571428571428571,0.0004
605,1.5940043330192566,1.5352753400802612,0.3269230769230769,0.8269230769230769,0.21428571428571427,0.8571428571428571,0.0004
606,1.5726802945137024,1.5350542068481445,0.2692307692307692,0.8269230769230769,0.21428571428571427,0.8571428571428571,0.0004
607,1.5573378801345825,1.5349128246307373,0.36538461538461536,0.8269230769230769,0.21428571428571427,0.8571428571428571,0.0004
608,1.6754616498947144,1.5348024368286133,0.3076923076923077,0.8269230769230769,0.21428571428571427,0.8571428571428571,0.0004
609,1.573275864124298,1.535150170326233,0.3076923076923077,0.8269230769230769,0.21428571428571427,0.8571428571428571,0.0004
610,1.592841923236847,1.535940170288086,0.38461538461538464,0.8269230769230769,0.21428571428571427,0.8571428571428571,0.0004
611,1.518392026424408,1.5367743968963623,0.36538461538461536,0.8269230769230769,0.21428571428571427,0.8571428571428571,0.0004
612,1.576540470123291,1.5370615720748901,0.4807692307692308,0.8269230769230769,0.21428571428571427,0.8571428571428571,0.0004
613,1.5718359351158142,1.537642002105713,0.3076923076923077,0.8269230769230769,0.21428571428571427,0.8571428571428571,0.0004
614,1.5523613095283508,1.5383918285369873,0.4230769230769231,0.8269230769230769,0.21428571428571427,0.8571428571428571,0.0004
615,1.5938247442245483,1.5390617847442627,0.2692307692307692,0.8269230769230769,0.21428571428571427,0.8571428571428571,0.0004
616,1.594972550868988,1.5390921831130981,0.36538461538461536,0.8269230769230769,0.21428571428571427,0.8571428571428571,0.0004
617,1.5854044556617737,1.539667010307312,0.36538461538461536,0.8269230769230769,0.21428571428571427,0.8571428571428571,0.0004
618,1.555237054824829,1.5398203134536743,0.36538461538461536,0.8269230769230769,0.21428571428571427,0.8571428571428571,0.0004
619,1.515733003616333,1.5398569107055664,0.3076923076923077,0.8269230769230769,0.21428571428571427,0.8571428571428571,0.0004
620,1.5565861463546753,1.539710283279419,0.3269230769230769,0.8269230769230769,0.21428571428571427,0.8571428571428571,0.0004
621,1.5897901058197021,1.5395580530166626,0.34615384615384615,0.8269230769230769,0.21428571428571427,0.8571428571428571,0.0004
622,1.5325901508331299,1.5394341945648193,0.36538461538461536,0.8269230769230769,0.21428571428571427,0.8571428571428571,0.0004
623,1.621196210384369,1.53912353515625,0.34615384615384615,0.8269230769230769,0.21428571428571427,0.8571428571428571,0.0004
624,1.5893858075141907,1.53883957862854,0.28846153846153844,0.8269230769230769,0.21428571428571427,0.8571428571428571,0.0004
625,1.583428978919983,1.5388259887695312,0.36538461538461536,0.8269230769230769,0.21428571428571427,0.8571428571428571,0.0004
626,1.559266448020935,1.5385959148406982,0.38461538461538464,0.8269230769230769,0.21428571428571427,0.8571428571428571,0.0004
627,1.613091766834259,1.5385465621948242,0.40384615384615385,0.8269230769230769,0.21428571428571427,0.8571428571428571,0.0004
628,1.5482092499732971,1.538328766822815,0.3269230769230769,0.8269230769230769,0.21428571428571427,0.8571428571428571,0.0004
629,1.5396926403045654,1.538104772567749,0.38461538461538464,0.8269230769230769,0.21428571428571427,0.8571428571428571,0.0004
630,1.609034538269043,1.5376453399658203,0.36538461538461536,0.8269230769230769,0.21428571428571427,0.8571428571428571,0.0004
631,1.554230511188507,1.5376015901565552,0.3076923076923077,0.8269230769230769,0.21428571428571427,0.8571428571428571,0.0004
632,1.5406668186187744,1.537548542022705,0.36538461538461536,0.8269230769230769,0.21428571428571427,0.8571428571428571,0.0004
633,1.5756859183311462,1.5373177528381348,0.34615384615384615,0.8269230769230769,0.21428571428571427,0.8571428571428571,0.0004
634,1.560069739818573,1.5370423793792725,0.3269230769230769,0.8269230769230769,0.21428571428571427,0.8571428571428571,0.0004
635,1.5920103788375854,1.5370547771453857,0.40384615384615385,0.8269230769230769,0.21428571428571427,0.8571428571428571,0.0004
636,1.6241443157196045,1.5372943878173828,0.28846153846153844,0.8269230769230769,0.21428571428571427,0.8571428571428571,0.0004
637,1.559480607509613,1.5372662544250488,0.38461538461538464,0.8269230769230769,0.21428571428571427,0.8571428571428571,0.0004
638,1.5556107759475708,1.537358045578003,0.3269230769230769,0.8269230769230769,0.21428571428571427,0.8571428571428571,0.0004
639,1.5616589188575745,1.537572979927063,0.34615384615384615,0.8269230769230769,0.21428571428571427,0.8571428571428571,0.0004
640,1.5591368079185486,1.5377404689788818,0.38461538461538464,0.8269230769230769,0.21428571428571427,0.8571428571428571,0.0004
641,1.5482341051101685,1.5379400253295898,0.3076923076923077,0.8269230769230769,0.21428571428571427,0.8571428571428571,0.0004
642,1.6026940941810608,1.5380961894989014,0.38461538461538464,0.8269230769230769,0.21428571428571427,0.8571428571428571,0.0004
643,1.574314534664154,1.5382312536239624,0.4230769230769231,0.8269230769230769,0.21428571428571427,0.8571428571428571,0.0004
644,1.5888813734054565,1.5382041931152344,0.40384615384615385,0.8269230769230769,0.21428571428571427,0.8571428571428571,0.0004
645,1.5203464031219482,1.5384547710418701,0.4230769230769231,0.8269230769230769,0.21428571428571427,0.8571428571428571,0.0004
646,1.5510509610176086,1.5383195877075195,0.4230769230769231,0.8269230769230769,0.21428571428571427,0.8571428571428571,0.0004
647,1.4944897294044495,1.538212776184082,0.36538461538461536,0.8269230769230769,0.21428571428571427,0.8571428571428571,0.0004
648,1.5517391562461853,1.5378133058547974,0.2692307692307692,0.8269230769230769,0.21428571428571427,0.8571428571428571,0.0004
649,1.551064908504486,1.5376571416854858,0.25,0.8269230769230769,0.21428571428571427,0.8571428571428571,0.0004
650,1.5872118473052979,1.5370557308197021,0.28846153846153844,0.8269230769230769,0.21428571428571427,0.8571428571428571,0.0004
651,1.5673767924308777,1.5365848541259766,0.36538461538461536,0.8269230769230769,0.21428571428571427,0.8571428571428571,0.0004
652,1.554371953010559,1.5365389585494995,0.28846153846153844,0.8269230769230769,0.21428571428571427,0.8571428571428571,0.0004
653,1.6096566319465637,1.536341905593872,0.36538461538461536,0.8269230769230769,0.21428571428571427,0.8571428571428571,0.0004
654,1.591351330280304,1.536673903465271,0.3269230769230769,0.8269230769230769,0.21428571428571427,0.8571428571428571,0.0004
655,1.613554060459137,1.5366904735565186,0.38461538461538464,0.8269230769230769,0.21428571428571427,0.8571428571428571,0.0004
656,1.5949546694755554,1.5368646383285522,0.38461538461538464,0.8269230769230769,0.21428571428571427,0.8571428571428571,0.0004
657,1.5688711404800415,1.5374257564544678,0.40384615384615385,0.8269230769230769,0.21428571428571427,0.8571428571428571,0.0004
658,1.6026901006698608,1.537798523902893,0.3269230769230769,0.8269230769230769,0.21428571428571427,0.8571428571428571,0.0004
659,1.5868820548057556,1.5381724834442139,0.38461538461538464,0.8269230769230769,0.21428571428571427,0.8571428571428571,0.0004
660,1.57359117269516,1.5387462377548218,0.4230769230769231,0.8269230769230769,0.21428571428571427,0.8571428571428571,0.0004
661,1.56870698928833,1.5392482280731201,0.36538461538461536,0.8269230769230769,0.21428571428571427,0.8571428571428571,0.0004
662,1.5815630555152893,1.5393791198730469,0.38461538461538464,0.8269230769230769,0.21428571428571427,0.8571428571428571,0.0004
663,1.570546805858612,1.5396621227264404,0.28846153846153844,0.8269230769230769,0.21428571428571427,0.8571428571428571,0.0004
664,1.5454477667808533,1.539527177810669,0.3076923076923077,0.8269230769230769,0.21428571428571427,0.8571428571428571,0.0004
665,1.5238380432128906,1.5395557880401611,0.40384615384615385,0.8269230769230769,0.21428571428571427,0.8571428571428571,0.0004
666,1.557935357093811,1.5387629270553589,0.40384615384615385,0.8269230769230769,0.21428571428571427,0.8571428571428571,0.0004
667,1.5495467782020569,1.5380796194076538,0.34615384615384615,0.8269230769230769,0.21428571428571427,0.8571428571428571,0.0004
668,1.5890278816223145,1.537135124206543,0.34615384615384615,0.8269230769230769,0.21428571428571427,0.8571428571428571,0.0004
669,1.5512655973434448,1.5365937948226929,0.25,0.8269230769230769,0.21428571428571427,0.8571428571428571,0.0004
670,1.6058548092842102,1.5353665351867676,0.3269230769230769,0.8269230769230769,0.21428571428571427,0.8571428571428571,0.0004
671,1.5558332204818726,1.5352433919906616,0.46153846153846156,0.8269230769230769,0.21428571428571427,0.8571428571428571,0.0004
672,1.5479069352149963,1.5348165035247803,0.28846153846153844,0.8269230769230769,0.21428571428571427,0.8571428571428571,0.0004
673,1.5329633951187134,1.5339716672897339,0.4230769230769231,0.8269230769230769,0.21428571428571427,0.8571428571428571,0.0004
674,1.5371444821357727,1.533395767211914,0.38461538461538464,0.8269230769230769,0.21428571428571427,0.8571428571428571,0.0004
675,1.5437966585159302,1.5331499576568604,0.4423076923076923,0.8269230769230769,0.21428571428571427,0.8571428571428571,0.0004
676,1.5633500814437866,1.532707929611206,0.4423076923076923,0.8269230769230769,0.21428571428571427,0.8571428571428571,0.0004
677,1.5740548968315125,1.5322234630584717,0.34615384615384615,0.8269230769230769,0.21428571428571427,0.8571428571428571,0.0004
678,1.5265706777572632,1.532211184501648,0.34615384615384615,0.8269230769230769,0.21428571428571427,0.8571428571428571,0.0004
679,1.583864450454712,1.5321637392044067,0.38461538461538464,0.8269230769230769,0.21428571428571427,0.8571428571428571,0.0004
680,1.6023898124694824,1.5322608947753906,0.36538461538461536,0.8269230769230769,0.21428571428571427,0.8571428571428571,0.0004
681,1.6221121549606323,1.5326131582260132,0.34615384615384615,0.8269230769230769,0.21428571428571427,0.8571428571428571,0.0004
682,1.5520698428153992,1.5329023599624634,0.40384615384615385,0.8269230769230769,0.21428571428571427,0.8571428571428571,0.0004
683,1.567878246307373,1.5332705974578857,0.34615384615384615,0.8269230769230769,0.21428571428571427,0.8571428571428571,0.0004
684,1.5720410346984863,1.53336763381958,0.38461538461538464,0.8269230769230769,0.21428571428571427,0.8571428571428571,0.0004
685,1.5964487195014954,1.533489465713501,0.38461538461538464,0.8269230769230769,0.21428571428571427,0.8571428571428571,0.0004
686,1.5400808453559875,1.533814549446106,0.28846153846153844,0.8269230769230769,0.21428571428571427,0.8571428571428571,0.0004
687,1.5990294218063354,1.533895492553711,0.46153846153846156,0.8269230769230769,0.21428571428571427,0.8571428571428571,0.0004
688,1.569025456905365,1.5340418815612793,0.3076923076923077,0.8269230769230769,0.21428571428571427,0.8571428571428571,0.0004
689,1.515810251235962,1.534032940864563,0.36538461538461536,0.8269230769230769,0.21428571428571427,0.8571428571428571,0.0004
690,1.5322025418281555,1.5343073606491089,0.38461538461538464,0.8269230769230769,0.21428571428571427,0.8571428571428571,0.0004
691,1.5328192710876465,1.5343101024627686,0.3076923076923077,0.8269230769230769,0.21428571428571427,0.8571428571428571,0.0004
692,1.5609480142593384,1.53388512134552,0.38461538461538464,0.8269230769230769,0.21428571428571427,0.8571428571428571,0.0004
693,1.5295342206954956,1.5333917140960693,0.34615384615384615,0.8269230769230769,0.21428571428571427,0.8571428571428571,0.0004
694,1.566486895084381,1.5333448648452759,0.4230769230769231,0.8269230769230769,0.21428571428571427,0.8571428571428571,0.0004
695,1.6205032467842102,1.5329663753509521,0.2692307692307692,0.8269230769230769,0.21428571428571427,0.8571428571428571,0.0004
696,1.5842232704162598,1.5331685543060303,0.3076923076923077,0.8269230769230769,0.21428571428571427,0.8571428571428571,0.0004
697,1.5744222402572632,1.5328731536865234,0.38461538461538464,0.8269230769230769,0.21428571428571427,0.8571428571428571,0.0004
698,1.551028311252594,1.5328458547592163,0.40384615384615385,0.8269230769230769,0.21428571428571427,0.8571428571428571,0.0004
699,1.568045198917389,1.532970666885376,0.38461538461538464,0.8269230769230769,0.21428571428571427,0.8571428571428571,0.0004
700,1.564621925354004,1.5327980518341064,0.38461538461538464,0.8269230769230769,0.21428571428571427,0.8571428571428571,0.0004
701,1.6180257201194763,1.5324841737747192,0.36538461538461536,0.8269230769230769,0.21428571428571427,0.8571428571428571,0.0004
702,1.5717001557350159,1.53212308883667,0.3076923076923077,0.8269230769230769,0.21428571428571427,0.8571428571428571,0.0004
703,1.535302221775055,1.5321099758148193,0.36538461538461536,0.8269230769230769,0.21428571428571427,0.8571428571428571,0.0004
704,1.6238710284233093,1.5321900844573975,0.3269230769230769,0.8269230769230769,0.21428571428571427,0.8571428571428571,0.0004
705,1.5814972519874573,1.5321264266967773,0.4230769230769231,0.8269230769230769,0.21428571428571427,0.8571428571428571,0.0004
706,1.5871583223342896,1.532325029373169,0.34615384615384615,0.8269230769230769,0.21428571428571427,0.8571428571428571,0.0004
707,1.5168111324310303,1.532671570777893,0.3269230769230769,0.8269230769230769,0.21428571428571427,0.8571428571428571,0.0004
708,1.612080454826355,1.532652497291565,0.34615384615384615,0.8269230769230769,0.21428571428571427,0.8571428571428571,0.0004
709,1.5368325114250183,1.5327835083007812,0.3269230769230769,0.8269230769230769,0.21428571428571427,0.8571428571428571,0.0004
710,1.5498462319374084,1.5325202941894531,0.40384615384615385,0.8269230769230769,0.21428571428571427,0.8571428571428571,0.0004
711,1.5766857266426086,1.5324573516845703,0.23076923076923078,0.8269230769230769,0.21428571428571427,0.8571428571428571,0.0004
712,1.6065757274627686,1.5322881937026978,0.3269230769230769,0.8269230769230769,0.21428571428571427,0.8571428571428571,0.0004
713,1.5839709639549255,1.5324491262435913,0.36538461538461536,0.8269230769230769,0.21428571428571427,0.8571428571428571,0.0004
714,1.5808683633804321,1.5323004722595215,0.34615384615384615,0.8269230769230769,0.21428571428571427,0.8571428571428571,0.0004
715,1.5874988436698914,1.5321297645568848,0.3269230769230769,0.8269230769230769,0.21428571428571427,0.8571428571428571,0.0004
716,1.6009956002235413,1.5325169563293457,0.3269230769230769,0.8269230769230769,0.21428571428571427,0.8571428571428571,0.0004
717,1.609265148639679,1.532774806022644,0.36538461538461536,0.8269230769230769,0.21428571428571427,0.8571428571428571,0.0004
718,1.5772812962532043,1.532951831817627,0.28846153846153844,0.8269230769230769,0.21428571428571427,0.8571428571428571,0.0004
719,1.5736143589019775,1.5332210063934326,0.36538461538461536,0.8269230769230769,0.21428571428571427,0.8571428571428571,0.0004
720,1.580294907093048,1.5334312915802002,0.34615384615384615,0.8269230769230769,0.21428571428571427,0.8571428571428571,0.0004
721,1.5706207156181335,1.5338414907455444,0.3269230769230769,0.8269230769230769,0.21428571428571427,0.8571428571428571,0.0004
722,1.543375313282013,1.533549189567566,0.3076923076923077,0.8269230769230769,0.21428571428571427,0.8571428571428571,0.0004
723,1.6066533327102661,1.5339118242263794,0.36538461538461536,0.8269230769230769,0.21428571428571427,0.8571428571428571,0.0004
724,1.5451455116271973,1.5338146686553955,0.4230769230769231,0.8269230769230769,0.21428571428571427,0.8571428571428571,0.0004
725,1.6083754897117615,1.5338573455810547,0.38461538461538464,0.8269230769230769,0.21428571428571427,0.8571428571428571,0.0004
726,1.5458072423934937,1.5335712432861328,0.34615384615384615,0.8269230769230769,0.21428571428571427,0.8571428571428571,0.0004
727,1.5915279388427734,1.5336086750030518,0.34615384615384615,0.8269230769230769,0.21428571428571427,0.8571428571428571,0.0004
728,1.5732994079589844,1.5331796407699585,0.36538461538461536,0.8269230769230769,0.21428571428571427,0.8571428571428571,0.0004
729,1.5448095798492432,1.5328717231750488,0.34615384615384615,0.8269230769230769,0.21428571428571427,0.8571428571428571,0.0004
730,1.5840845108032227,1.5324256420135498,0.28846153846153844,0.8269230769230769,0.21428571428571427,0.8571428571428571,0.0004
731,1.5747613906860352,1.5319713354110718,0.36538461538461536,0.8269230769230769,0.21428571428571427,0.8571428571428571,0.0004
732,1.548437237739563,1.5315182209014893,0.34615384615384615,0.8269230769230769,0.21428571428571427,0.8571428571428571,0.0004
733,1.5319263339042664,1.5310577154159546,0.34615384615384615,0.8269230769230769,0.21428571428571427,0.8571428571428571,0.0004
734,1.4953493475914001,1.5303592681884766,0.3076923076923077,0.8269230769230769,0.21428571428571427,0.8571428571428571,0.0004
735,1.5364665389060974,1.52976393699646,0.36538461538461536,0.8269230769230769,0.21428571428571427,0.8571428571428571,0.0004
736,1.5527222752571106,1.5291533470153809,0.3269230769230769,0.8269230769230769,0.21428571428571427,0.8571428571428571,0.0004
737,1.5245611667633057,1.529233455657959,0.40384615384615385,0.8269230769230769,0.21428571428571427,0.8571428571428571,0.0004
738,1.649316668510437,1.5290958881378174,0.38461538461538464,0.8269230769230769,0.21428571428571427,0.8571428571428571,0.0004
739,1.6308770179748535,1.5294594764709473,0.38461538461538464,0.8269230769230769,0.21428571428571427,0.8571428571428571,0.0004
740,1.5985625982284546,1.529721736907959,0.3269230769230769,0.8269230769230769,0.21428571428571427,0.8571428571428571,0.0004
741,1.607644498348236,1.5307470560073853,0.28846153846153844,0.8269230769230769,0.21428571428571427,0.8571428571428571,0.0004
742,1.5580199360847473,1.531557321548462,0.34615384615384615,0.8269230769230769,0.21428571428571427,0.8571428571428571,0.0004
743,1.5456793904304504,1.5325555801391602,0.38461538461538464,0.8269230769230769,0.21428571428571427,0.8571428571428571,0.0004
744,1.618924856185913,1.5334019660949707,0.3269230769230769,0.8269230769230769,0.21428571428571427,0.8571428571428571,0.0004
745,1.5530228018760681,1.5346227884292603,0.36538461538461536,0.8269230769230769,0.21428571428571427,0.8571428571428571,0.0004
746,1.5521078705787659,1.5356392860412598,0.38461538461538464,0.8269230769230769,0.21428571428571427,0.8571428571428571,0.0004
747,1.529255986213684,1.5364141464233398,0.36538461538461536,0.8269230769230769,0.21428571428571427,0.8571428571428571,0.0004
748,1.5532294511795044,1.5372681617736816,0.36538461538461536,0.8269230769230769,0.21428571428571427,0.8571428571428571,0.0004
749,1.5677995085716248,1.537853479385376,0.40384615384615385,0.8269230769230769,0.21428571428571427,0.8571428571428571,0.0004
750,1.557175099849701,1.538396954536438,0.34615384615384615,0.8269230769230769,0.21428571428571427,0.8571428571428571,0.0004
751,1.6127068996429443,1.5387595891952515,0.38461538461538464,0.8269230769230769,0.21428571428571427,0.8571428571428571,0.0004
752,1.5739923119544983,1.5391932725906372,0.36538461538461536,0.8269230769230769,0.21428571428571427,0.8571428571428571,0.0004
753,1.5666402578353882,1.5395381450653076,0.40384615384615385,0.8269230769230769,0.21428571428571427,0.8571428571428571,0.0004
754,1.555026352405548,1.539825439453125,0.34615384615384615,0.8269230769230769,0.21428571428571427,0.8571428571428571,0.0004
755,1.4837600588798523,1.5396692752838135,0.34615384615384615,0.8269230769230769,0.21428571428571427,0.8571428571428571,0.0004
756,1.59718918800354,1.539362907409668,0.3269230769230769,0.8269230769230769,0.21428571428571427,0.8571428571428571,0.0004
757,1.6136531829833984,1.5391216278076172,0.36538461538461536,0.8269230769230769,0.21428571428571427,0.8571428571428571,0.0004
758,1.5926799774169922,1.5394539833068848,0.34615384615384615,0.8269230769230769,0.21428571428571427,0.8571428571428571,0.0004
759,1.5294830203056335,1.5395691394805908,0.3269230769230769,0.8269230769230769,0.21428571428571427,0.8571428571428571,0.0004
760,1.5511701107025146,1.5392990112304688,0.34615384615384615,0.8269230769230769,0.21428571428571427,0.8571428571428571,0.0004
761,1.5954740643501282,1.538904070854187,0.36538461538461536,0.8269230769230769,0.21428571428571427,0.8571428571428571,0.0004
762,1.5467404127120972,1.538652777671814,0.34615384615384615,0.8269230769230769,0.21428571428571427,0.8571428571428571,0.0004
763,1.5859062671661377,1.5383645296096802,0.38461538461538464,0.8269230769230769,0.21428571428571427,0.8571428571428571,0.0004
764,1.5364165306091309,1.5382254123687744,0.36538461538461536,0.8269230769230769,0.21428571428571427,0.8571428571428571,0.0004
765,1.568828821182251,1.5374999046325684,0.34615384615384615,0.8269230769230769,0.21428571428571427,0.8571428571428571,0.0004
766,1.573465883731842,1.537034273147583,0.36538461538461536,0.8269230769230769,0.21428571428571427,0.8571428571428571,0.0004
767,1.5673425793647766,1.5365955829620361,0.36538461538461536,0.8269230769230769,0.21428571428571427,0.8571428571428571,0.0004
768,1.5594966411590576,1.5364577770233154,0.40384615384615385,0.8269230769230769,0.21428571428571427,0.8571428571428571,0.0004
769,1.5774340629577637,1.5358121395111084,0.36538461538461536,0.8269230769230769,0.21428571428571427,0.8571428571428571,0.0004
770,1.5820858478546143,1.5350902080535889,0.36538461538461536,0.8269230769230769,0.21428571428571427,0.8571428571428571,0.0004
771,1.5682744979858398,1.5345977544784546,0.36538461538461536,0.8269230769230769,0.21428571428571427,0.8571428571428571,0.0004
772,1.5901780128479004,1.5339502096176147,0.34615384615384615,0.8269230769230769,0.21428571428571427,0.8571428571428571,0.0004
773,1.5504899621009827,1.5335884094238281,0.36538461538461536,0.8269230769230769,0.21428571428571427,0.8571428571428571,0.0004
774,1.6111415028572083,1.533228874206543,0.34615384615384615,0.8269230769230769,0.21428571428571427,0.8571428571428571,0.0004
775,1.5515625476837158,1.5332984924316406,0.4230769230769231,0.8269230769230769,0.21428571428571427,0.8571428571428571,0.0004
776,1.6468970775604248,1.5330281257629395,0.38461538461538464,0.8269230769230769,0.21428571428571427,0.8571428571428571,0.0004
777,1.5594118237495422,1.5333282947540283,0.36538461538461536,0.8269230769230769,0.21428571428571427,0.8571428571428571,0.0004
778,1.5715243816375732,1.5334563255310059,0.34615384615384615,0.8269230769230769,0.21428571428571427,0.8571428571428571,0.0004
779,1.5380171537399292,1.5336072444915771,0.34615384615384615,0.8269230769230769,0.21428571428571427,0.8571428571428571,0.0004
780,1.5820426940917969,1.533823013305664,0.4807692307692308,0.8269230769230769,0.21428571428571427,0.8571428571428571,0.0004
781,1.5491464734077454,1.533602237701416,0.38461538461538464,0.8269230769230769,0.21428571428571427,0.8571428571428571,0.0004
782,1.6023460626602173,1.5335224866867065,0.28846153846153844,0.8269230769230769,0.21428571428571427,0.8571428571428571,0.0004
783,1.5433891415596008,1.5332309007644653,0.3076923076923077,0.8269230769230769,0.21428571428571427,0.8571428571428571,0.0004
784,1.5875170230865479,1.5333949327468872,0.36538461538461536,0.8269230769230769,0.21428571428571427,0.8571428571428571,0.0004
785,1.517527461051941,1.5332293510437012,0.36538461538461536,0.8269230769230769,0.21428571428571427,0.8571428571428571,0.0004
786,1.5843404531478882,1.533002257347107,0.3269230769230769,0.8269230769230769,0.21428571428571427,0.8571428571428571,0.0004
787,1.5863592028617859,1.533060908317566,0.4230769230769231,0.8269230769230769,0.21428571428571427,0.8571428571428571,0.0004
788,1.5661648511886597,1.5329976081848145,0.3076923076923077,0.8269230769230769,0.21428571428571427,0.8571428571428571,0.0004
789,1.5315014719963074,1.5333786010742188,0.34615384615384615,0.8269230769230769,0.21428571428571427,0.8571428571428571,0.0004
790,1.5556412935256958,1.5333080291748047,0.36538461538461536,0.8269230769230769,0.21428571428571427,0.8571428571428571,0.0004
791,1.5508500933647156,1.5334270000457764,0.3269230769230769,0.8269230769230769,0.21428571428571427,0.8571428571428571,0.0004
792,1.5534983277320862,1.5334529876708984,0.2692307692307692,0.8269230769230769,0.21428571428571427,0.8571428571428571,0.0004
793,1.6073226928710938,1.5336828231811523,0.3076923076923077,0.8269230769230769,0.21428571428571427,0.8571428571428571,0.0004
794,1.5552639961242676,1.5337984561920166,0.3076923076923077,0.8269230769230769,0.21428571428571427,0.8571428571428571,0.0004
795,1.591764509677887,1.533661961555481,0.3269230769230769,0.8269230769230769,0.21428571428571427,0.8571428571428571,0.0004
796,1.5835654139518738,1.5336289405822754,0.38461538461538464,0.8269230769230769,0.21428571428571427,0.8571428571428571,0.0004
797,1.5153242945671082,1.5338916778564453,0.40384615384615385,0.8269230769230769,0.21428571428571427,0.8571428571428571,0.0004
798,1.5818760395050049,1.5334722995758057,0.34615384615384615,0.8269230769230769,0.21428571428571427,0.8571428571428571,0.0004
799,1.5670865774154663,1.5333783626556396,0.36538461538461536,0.8269230769230769,0.21428571428571427,0.8571428571428571,0.0004
800,1.550228238105774,1.5332300662994385,0.40384615384615385,0.8269230769230769,0.21428571428571427,0.8571428571428571,0.0004
801,1.6326696872711182,1.5335352420806885,0.40384615384615385,0.8269230769230769,0.21428571428571427,0.8571428571428571,0.0004
802,1.5859386920928955,1.533823013305664,0.38461538461538464,0.8269230769230769,0.21428571428571427,0.8571428571428571,0.0004
803,1.5551129579544067,1.5346412658691406,0.3269230769230769,0.8269230769230769,0.21428571428571427,0.8571428571428571,0.0004
804,1.6154388785362244,1.5344741344451904,0.36538461538461536,0.8269230769230769,0.21428571428571427,0.8571428571428571,0.0004
805,1.5640708208084106,1.534865379333496,0.36538461538461536,0.8269230769230769,0.21428571428571427,0.8571428571428571,0.0004
806,1.559435784816742,1.5353869199752808,0.34615384615384615,0.8269230769230769,0.21428571428571427,0.8571428571428571,0.0004
807,1.5785256028175354,1.5361195802688599,0.3269230769230769,0.8269230769230769,0.21428571428571427,0.8571428571428571,0.0004
808,1.5168598294258118,1.5368778705596924,0.36538461538461536,0.8269230769230769,0.21428571428571427,0.8571428571428571,0.0004
809,1.5607978105545044,1.5365976095199585,0.36538461538461536,0.8269230769230769,0.21428571428571427,0.8571428571428571,0.0004
810,1.5857194066047668,1.5369203090667725,0.3269230769230769,0.8269230769230769,0.21428571428571427,0.8571428571428571,0.0004
811,1.5686191320419312,1.5370874404907227,0.36538461538461536,0.8269230769230769,0.21428571428571427,0.8571428571428571,0.0004
812,1.5489997267723083,1.5375256538391113,0.40384615384615385,0.8269230769230769,0.21428571428571427,0.8571428571428571,0.0004
813,1.5484414100646973,1.537593126296997,0.34615384615384615,0.8269230769230769,0.21428571428571427,0.8571428571428571,0.0004
814,1.5798097252845764,1.5376262664794922,0.40384615384615385,0.8269230769230769,0.21428571428571427,0.8571428571428571,0.0004
815,1.5262484550476074,1.5380635261535645,0.36538461538461536,0.8269230769230769,0.21428571428571427,0.8571428571428571,0.0004
816,1.5723257064819336,1.5379393100738525,0.3076923076923077,0.8269230769230769,0.21428571428571427,0.8571428571428571,0.0004
817,1.5644037127494812,1.5377819538116455,0.34615384615384615,0.8269230769230769,0.21428571428571427,0.8571428571428571,0.0004
818,1.5725054144859314,1.538151502609253,0.38461538461538464,0.8269230769230769,0.21428571428571427,0.8571428571428571,0.0004
819,1.5781115889549255,1.5379410982131958,0.38461538461538464,0.8269230769230769,0.21428571428571427,0.8571428571428571,0.0004
820,1.6092047095298767,1.5381525754928589,0.34615384615384615,0.8269230769230769,0.21428571428571427,0.8571428571428571,0.0004
821,1.5557398796081543,1.5378000736236572,0.38461538461538464,0.8269230769230769,0.21428571428571427,0.8571428571428571,0.0004
822,1.5199016332626343,1.5381485223770142,0.36538461538461536,0.8269230769230769,0.21428571428571427,0.8571428571428571,0.0004
823,1.5016590356826782,1.537977695465088,0.40384615384615385,0.8269230769230769,0.21428571428571427,0.8571428571428571,0.0004
824,1.5715527534484863,1.537638783454895,0.36538461538461536,0.8269230769230769,0.21428571428571427,0.8571428571428571,0.0004
825,1.5657895803451538,1.5375092029571533,0.28846153846153844,0.8269230769230769,0.21428571428571427,0.8571428571428571,0.0004
826,1.6359627842903137,1.5375950336456299,0.3076923076923077,0.8269230769230769,0.21428571428571427,0.8571428571428571,0.0004
827,1.571469008922577,1.5373179912567139,0.3269230769230769,0.8269230769230769,0.21428571428571427,0.8571428571428571,0.0004
828,1.564646303653717,1.5370193719863892,0.34615384615384615,0.8269230769230769,0.21428571428571427,0.8571428571428571,0.0004
829,1.5948302745819092,1.5366753339767456,0.40384615384615385,0.8269230769230769,0.21428571428571427,0.8571428571428571,0.0004
830,1.6193928122520447,1.5364139080047607,0.36538461538461536,0.8269230769230769,0.21428571428571427,0.8571428571428571,0.0004
831,1.5307552218437195,1.5364184379577637,0.40384615384615385,0.8269230769230769,0.21428571428571427,0.8571428571428571,0.0004
832,1.5533060431480408,1.5359610319137573,0.38461538461538464,0.8269230769230769,0.21428571428571427,0.8571428571428571,0.0004
833,1.543657124042511,1.5360544919967651,0.34615384615384615,0.8269230769230769,0.21428571428571427,0.8571428571428571,0.0004
834,1.5564109086990356,1.5356450080871582,0.2692307692307692,0.8269230769230769,0.21428571428571427,0.8571428571428571,0.0004
835,1.5678172707557678,1.5357856750488281,0.34615384615384615,0.8269230769230769,0.21428571428571427,0.8571428571428571,0.0004
836,1.50151526927948,1.535286545753479,0.40384615384615385,0.8269230769230769,0.21428571428571427,0.8571428571428571,0.0004
837,1.5311952829360962,1.5346667766571045,0.40384615384615385,0.8269230769230769,0.21428571428571427,0.8571428571428571,0.0004
838,1.5904054045677185,1.5339727401733398,0.28846153846153844,0.8269230769230769,0.21428571428571427,0.8571428571428571,0.0004
839,1.5273743867874146,1.5332551002502441,0.34615384615384615,0.8269230769230769,0.21428571428571427,0.8571428571428571,0.0004
840,1.6385672688484192,1.5328726768493652,0.36538461538461536,0.8269230769230769,0.21428571428571427,0.8571428571428571,0.0004
841,1.5757052898406982,1.5325981378555298,0.36538461538461536,0.8269230769230769,0.21428571428571427,0.8571428571428571,0.0004
842,1.5639854073524475,1.5317962169647217,0.4423076923076923,0.8269230769230769,0.21428571428571427,0.8571428571428571,0.0004
843,1.5511241555213928,1.5314340591430664,0.3076923076923077,0.8269230769230769,0.21428571428571427,0.8571428571428571,0.0004
844,1.545127511024475,1.5309886932373047,0.3269230769230769,0.8269230769230769,0.21428571428571427,0.8571428571428571,0.0004
845,1.5148372054100037,1.5306377410888672,0.36538461538461536,0.8269230769230769,0.21428571428571427,0.8571428571428571,0.0004
846,1.5527260303497314,1.5306694507598877,0.3269230769230769,0.8269230769230769,0.21428571428571427,0.8571428571428571,0.0004
847,1.5159908533096313,1.5303490161895752,0.34615384615384615,0.8269230769230769,0.21428571428571427,0.8571428571428571,0.0004
848,1.5998961329460144,1.5296907424926758,0.34615384615384615,0.8269230769230769,0.21428571428571427,0.8571428571428571,0.0004
849,1.5384665727615356,1.5300664901733398,0.4230769230769231,0.8269230769230769,0.21428571428571427,0.8571428571428571,0.0004
850,1.5481423139572144,1.5296036005020142,0.34615384615384615,0.8269230769230769,0.21428571428571427,0.8571428571428571,0.0004
851,1.5728299021720886,1.5300097465515137,0.38461538461538464,0.8269230769230769,0.21428571428571427,0.8571428571428571,0.0004
852,1.5715351104736328,1.530206322669983,0.28846153846153844,0.8269230769230769,0.21428571428571427,0.8571428571428571,0.0004
853,1.578719973564148,1.5305819511413574,0.3269230769230769,0.8269230769230769,0.21428571428571427,0.8571428571428571,0.0004
854,1.5927085876464844,1.5309035778045654,0.34615384615384615,0.8269230769230769,0.21428571428571427,0.8571428571428571,0.0004
855,1.5454041361808777,1.531219720840454,0.3269230769230769,0.8269230769230769,0.21428571428571427,0.8571428571428571,0.0004
856,1.6012167930603027,1.5317888259887695,0.3269230769230769,0.8269230769230769,0.21428571428571427,0.8571428571428571,0.0004
857,1.5921905040740967,1.5324664115905762,0.34615384615384615,0.8269230769230769,0.21428571428571427,0.8571428571428571,0.0004
858,1.5996940732002258,1.5327454805374146,0.36538461538461536,0.8269230769230769,0.21428571428571427,0.8571428571428571,0.0004
859,1.5539062023162842,1.5329179763793945,0.3269230769230769,0.8269230769230769,0.21428571428571427,0.8571428571428571,0.0004
860,1.5241625905036926,1.5336251258850098,0.3076923076923077,0.8269230769230769,0.21428571428571427,0.8571428571428571,0.0004
861,1.5621038675308228,1.5338619947433472,0.3269230769230769,0.8269230769230769,0.21428571428571427,0.8571428571428571,0.0004
862,1.5570903420448303,1.5339545011520386,0.36538461538461536,0.8269230769230769,0.21428571428571427,0.8571428571428571,0.0004
863,1.64005708694458,1.5341397523880005,0.40384615384615385,0.8269230769230769,0.21428571428571427,0.8571428571428571,0.0004
864,1.6041122078895569,1.5344603061676025,0.40384615384615385,0.8269230769230769,0.21428571428571427,0.8571428571428571,0.0004
865,1.557791829109192,1.5348454713821411,0.3269230769230769,0.8269230769230769,0.21428571428571427,0.8571428571428571,0.0004
866,1.6216238141059875,1.5349167585372925,0.36538461538461536,0.8269230769230769,0.21428571428571427,0.8571428571428571,0.0004
867,1.566921353340149,1.5356693267822266,0.38461538461538464,0.8269230769230769,0.21428571428571427,0.8571428571428571,0.0004
868,1.5749670267105103,1.5356281995773315,0.38461538461538464,0.8269230769230769,0.21428571428571427,0.8571428571428571,0.0004
869,1.5926173329353333,1.5357918739318848,0.36538461538461536,0.8269230769230769,0.21428571428571427,0.8571428571428571,0.0004
870,1.5599690079689026,1.53620183467865,0.38461538461538464,0.8269230769230769,0.21428571428571427,0.8571428571428571,0.0004
871,1.5983922481536865,1.5364501476287842,0.3269230769230769,0.8269230769230769,0.21428571428571427,0.8571428571428571,0.0004
872,1.5669665932655334,1.536594271659851,0.3269230769230769,0.8269230769230769,0.21428571428571427,0.8571428571428571,0.0004
873,1.5640369653701782,1.5363597869873047,0.38461538461538464,0.8269230769230769,0.21428571428571427,0.8571428571428571,0.0004
874,1.6303101181983948,1.5364985466003418,0.34615384615384615,0.8269230769230769,0.21428571428571427,0.8571428571428571,0.0004
875,1.5558087825775146,1.5364866256713867,0.38461538461538464,0.8269230769230769,0.21428571428571427,0.8571428571428571,0.0004
876,1.5766406655311584,1.536302089691162,0.38461538461538464,0.8269230769230769,0.21428571428571427,0.8571428571428571,0.0004
877,1.553552508354187,1.5362247228622437,0.3269230769230769,0.8269230769230769,0.21428571428571427,0.8571428571428571,0.0004
878,1.5212290287017822,1.5359010696411133,0.34615384615384615,0.8269230769230769,0.21428571428571427,0.8571428571428571,0.0004
879,1.5925375819206238,1.5355291366577148,0.3269230769230769,0.8269230769230769,0.21428571428571427,0.8571428571428571,0.0004
880,1.5785660147666931,1.534829020500183,0.34615384615384615,0.8269230769230769,0.21428571428571427,0.8571428571428571,0.0004
881,1.5599111318588257,1.5342509746551514,0.36538461538461536,0.8269230769230769,0.21428571428571427,0.8571428571428571,0.0004
882,1.554938018321991,1.5340580940246582,0.40384615384615385,0.8269230769230769,0.21428571428571427,0.8571428571428571,0.0004
883,1.579174280166626,1.5334742069244385,0.34615384615384615,0.8269230769230769,0.21428571428571427,0.8571428571428571,0.0004
884,1.5826122164726257,1.5334933996200562,0.34615384615384615,0.8269230769230769,0.21428571428571427,0.8571428571428571,0.0004
885,1.5037893652915955,1.5330153703689575,0.34615384615384615,0.8269230769230769,0.21428571428571427,0.8571428571428571,0.0004
886,1.575068175792694,1.5325231552124023,0.40384615384615385,0.8269230769230769,0.21428571428571427,0.8571428571428571,0.0004
887,1.576606273651123,1.5319710969924927,0.38461538461538464,0.8269230769230769,0.21428571428571427,0.8571428571428571,0.0004
888,1.5907231569290161,1.5319538116455078,0.40384615384615385,0.8269230769230769,0.21428571428571427,0.8571428571428571,0.0004
889,1.5927892327308655,1.531816005706787,0.3269230769230769,0.8269230769230769,0.21428571428571427,0.8571428571428571,0.0004
890,1.5823598504066467,1.5317474603652954,0.38461538461538464,0.8269230769230769,0.21428571428571427,0.8571428571428571,0.0004
891,1.5949562788009644,1.5316319465637207,0.34615384615384615,0.8269230769230769,0.21428571428571427,0.8571428571428571,0.0004
892,1.5887668132781982,1.531484603881836,0.40384615384615385,0.8269230769230769,0.21428571428571427,0.8571428571428571,0.0004
893,1.5522725582122803,1.5313842296600342,0.36538461538461536,0.8269230769230769,0.21428571428571427,0.8571428571428571,0.0004
894,1.5716941356658936,1.5312339067459106,0.3269230769230769,0.8269230769230769,0.21428571428571427,0.8571428571428571,0.0004
895,1.5564510822296143,1.5310957431793213,0.40384615384615385,0.8269230769230769,0.21428571428571427,0.8571428571428571,0.0004
896,1.539082109928131,1.5313239097595215,0.38461538461538464,0.8269230769230769,0.21428571428571427,0.8571428571428571,0.0004
897,1.5826440453529358,1.5313525199890137,0.40384615384615385,0.8269230769230769,0.21428571428571427,0.8571428571428571,0.0004
898,1.5822814106941223,1.5320580005645752,0.36538461538461536,0.8269230769230769,0.21428571428571427,0.8571428571428571,0.0004
899,1.5499470233917236,1.531588077545166,0.38461538461538464,0.8269230769230769,0.21428571428571427,0.8571428571428571,0.0004
900,1.5296558737754822,1.5316897630691528,0.38461538461538464,0.8269230769230769,0.21428571428571427,0.8571428571428571,0.0004
901,1.5292872190475464,1.5314714908599854,0.38461538461538464,0.8269230769230769,0.21428571428571427,0.8571428571428571,0.0004
902,1.5802596807479858,1.5310659408569336,0.34615384615384615,0.8269230769230769,0.21428571428571427,0.8571428571428571,0.0004
903,1.6287956237792969,1.531571388244629,0.40384615384615385,0.8269230769230769,0.21428571428571427,0.8571428571428571,0.0004
904,1.5696635246276855,1.5312211513519287,0.3269230769230769,0.8269230769230769,0.21428571428571427,0.8571428571428571,0.0004
905,1.6409828066825867,1.5309994220733643,0.36538461538461536,0.8269230769230769,0.21428571428571427,0.8571428571428571,0.0004
906,1.5709285140037537,1.531191349029541,0.34615384615384615,0.8269230769230769,0.21428571428571427,0.8571428571428571,0.0004
907,1.5400019884109497,1.5317132472991943,0.3269230769230769,0.8269230769230769,0.21428571428571427,0.8571428571428571,0.0004
908,1.5752162337303162,1.5318310260772705,0.36538461538461536,0.8269230769230769,0.21428571428571427,0.8571428571428571,0.0004
909,1.5838213562965393,1.5321762561798096,0.3269230769230769,0.8269230769230769,0.21428571428571427,0.8571428571428571,0.0004
910,1.5403207540512085,1.5325120687484741,0.38461538461538464,0.8269230769230769,0.21428571428571427,0.8571428571428571,0.0004
911,1.5426992774009705,1.5325019359588623,0.3269230769230769,0.8269230769230769,0.21428571428571427,0.8571428571428571,0.0004
912,1.5750024318695068,1.5329201221466064,0.4807692307692308,0.8269230769230769,0.21428571428571427,0.8571428571428571,0.0004
913,1.5862676501274109,1.5332344770431519,0.3076923076923077,0.8269230769230769,0.21428571428571427,0.8571428571428571,0.0004
914,1.6404746770858765,1.5333219766616821,0.40384615384615385,0.8269230769230769,0.21428571428571427,0.8571428571428571,0.0004
915,1.603520929813385,1.5341923236846924,0.3076923076923077,0.8269230769230769,0.21428571428571427,0.8571428571428571,0.0004
916,1.5751623511314392,1.5347161293029785,0.28846153846153844,0.8269230769230769,0.21428571428571427,0.8571428571428571,0.0004
917,1.5315317511558533,1.5352462530136108,0.38461538461538464,0.8269230769230769,0.21428571428571427,0.8571428571428571,0.0004
918,1.6112527251243591,1.5352606773376465,0.3269230769230769,0.8269230769230769,0.21428571428571427,0.8571428571428571,0.0004
919,1.582102656364441,1.5360088348388672,0.4230769230769231,0.8269230769230769,0.21428571428571427,0.8571428571428571,0.0004
920,1.5978567004203796,1.5366313457489014,0.34615384615384615,0.8269230769230769,0.21428571428571427,0.8571428571428571,0.0004
921,1.5502099394798279,1.5368198156356812,0.3076923076923077,0.8269230769230769,0.21428571428571427,0.8571428571428571,0.0004
922,1.5402902364730835,1.5373380184173584,0.40384615384615385,0.8269230769230769,0.21428571428571427,0.8571428571428571,0.0004
923,1.5476166009902954,1.5375484228134155,0.40384615384615385,0.8269230769230769,0.21428571428571427,0.8571428571428571,0.0004
924,1.571264386177063,1.5375044345855713,0.36538461538461536,0.8269230769230769,0.21428571428571427,0.8571428571428571,0.0004
925,1.5841909646987915,1.537726640701294,0.38461538461538464,0.8269230769230769,0.21428571428571427,0.8571428571428571,0.0004
926,1.571656882762909,1.5375481843948364,0.4230769230769231,0.8269230769230769,0.21428571428571427,0.8571428571428571,0.0004
927,1.5670055747032166,1.537703275680542,0.3269230769230769,0.8269230769230769,0.21428571428571427,0.8571428571428571,0.0004
928,1.5772571563720703,1.5375802516937256,0.36538461538461536,0.8269230769230769,0.21428571428571427,0.8571428571428571,0.0004
929,1.548068642616272,1.5374277830123901,0.36538461538461536,0.8269230769230769,0.21428571428571427,0.8571428571428571,0.0004
930,1.619042694568634,1.5377274751663208,0.34615384615384615,0.8269230769230769,0.21428571428571427,0.8571428571428571,0.0004
931,1.569251298904419,1.5378355979919434,0.34615384615384615,0.8269230769230769,0.21428571428571427,0.8571428571428571,0.0004
932,1.5196240544319153,1.5380641222000122,0.34615384615384615,0.8269230769230769,0.21428571428571427,0.8571428571428571,0.0004
933,1.5485166311264038,1.5380685329437256,0.3269230769230769,0.8269230769230769,0.21428571428571427,0.8571428571428571,0.0004
934,1.5456549525260925,1.5376474857330322,0.3269230769230769,0.8269230769230769,0.21428571428571427,0.8571428571428571,0.0004
935,1.6307185292243958,1.5372800827026367,0.36538461538461536,0.8269230769230769,0.21428571428571427,0.8571428571428571,0.0004
936,1.5581249594688416,1.5374650955200195,0.28846153846153844,0.8269230769230769,0.21428571428571427,0.8571428571428571,0.0004
937,1.5366548299789429,1.537341594696045,0.34615384615384615,0.8269230769230769,0.21428571428571427,0.8571428571428571,0.0004
938,1.5458582639694214,1.5371044874191284,0.38461538461538464,0.8269230769230769,0.21428571428571427,0.8571428571428571,0.0004
939,1.61449533700943,1.536751627922058,0.3269230769230769,0.8269230769230769,0.21428571428571427,0.8571428571428571,0.0004
940,1.5405165553092957,1.536564826965332,0.3269230769230769,0.8269230769230769,0.21428571428571427,0.8571428571428571,0.0004
941,1.5831263661384583,1.5364818572998047,0.38461538461538464,0.8269230769230769,0.21428571428571427,0.8571428571428571,0.0004
942,1.5459331274032593,1.5361058712005615,0.36538461538461536,0.8269230769230769,0.21428571428571427,0.8571428571428571,0.0004
943,1.5387459993362427,1.5357922315597534,0.38461538461538464,0.8269230769230769,0.21428571428571427,0.8571428571428571,0.0004
944,1.5175039768218994,1.535609245300293,0.4230769230769231,0.8269230769230769,0.21428571428571427,0.8571428571428571,0.0004
945,1.547674298286438,1.534795880317688,0.34615384615384615,0.8269230769230769,0.21428571428571427,0.8571428571428571,0.0004
946,1.5836185812950134,1.5346086025238037,0.34615384615384615,0.8269230769230769,0.21428571428571427,0.8571428571428571,0.0004
947,1.5335031747817993,1.534153938293457,0.4230769230769231,0.8269230769230769,0.21428571428571427,0.8571428571428571,0.0004
948,1.5425402522087097,1.5337752103805542,0.46153846153846156,0.8269230769230769,0.21428571428571427,0.8571428571428571,0.0004
949,1.6214041113853455,1.533909559249878,0.34615384615384615,0.8269230769230769,0.21428571428571427,0.8571428571428571,0.0004
950,1.5466330647468567,1.5337316989898682,0.36538461538461536,0.8269230769230769,0.21428571428571427,0.8571428571428571,0.0004
951,1.5650023818016052,1.5337684154510498,0.3076923076923077,0.8269230769230769,0.21428571428571427,0.8571428571428571,0.0004
952,1.526561677455902,1.5334981679916382,0.34615384615384615,0.8269230769230769,0.21428571428571427,0.8571428571428571,0.0004
953,1.5549103021621704,1.5336246490478516,0.3076923076923077,0.8269230769230769,0.21428571428571427,0.8571428571428571,0.0004
