epoch,train_loss,val_loss,train_acc_action,train_acc_status,val_acc_action,val_acc_status,learning_rate
1,1.7702152729034424,1.779741644859314,0.34615384615384615,0.8076923076923077,0.21428571428571427,0.8571428571428571,0.0004
2,1.7630090117454529,1.7717642784118652,0.36538461538461536,0.8269230769230769,0.21428571428571427,0.8571428571428571,0.0004
3,1.7626540660858154,1.771069884300232,0.34615384615384615,0.8269230769230769,0.21428571428571427,0.8571428571428571,0.0004
4,1.755871832370758,1.7665743827819824,0.36538461538461536,0.8269230769230769,0.21428571428571427,0.8571428571428571,0.0004
5,1.760355830192566,1.7628642320632935,0.3269230769230769,0.8076923076923077,0.21428571428571427,0.8571428571428571,0.0004
6,1.7508667707443237,1.7602561712265015,0.38461538461538464,0.8269230769230769,0.21428571428571427,0.8571428571428571,0.0004
7,1.7511179447174072,1.756058931350708,0.36538461538461536,0.8076923076923077,0.21428571428571427,0.8571428571428571,0.0004
8,1.7440606355667114,1.7535347938537598,0.38461538461538464,0.8269230769230769,0.21428571428571427,0.8571428571428571,0.0004
9,1.7367377281188965,1.748138427734375,0.36538461538461536,0.8269230769230769,0.21428571428571427,0.8571428571428571,0.0004
10,1.7419609427452087,1.7442548274993896,0.36538461538461536,0.8269230769230769,0.21428571428571427,0.8571428571428571,0.0004
11,1.72206449508667,1.7433534860610962,0.34615384615384615,0.8269230769230769,0.21428571428571427,0.8571428571428571,0.0004
12,1.7233054041862488,1.7380642890930176,0.34615384615384615,0.8269230769230769,0.21428571428571427,0.8571428571428571,0.0004
13,1.7226258516311646,1.7334403991699219,0.4230769230769231,0.8269230769230769,0.21428571428571427,0.8571428571428571,0.0004
14,1.7184112071990967,1.7311526536941528,0.34615384615384615,0.8269230769230769,0.21428571428571427,0.8571428571428571,0.0004
15,1.7087029218673706,1.7204127311706543,0.36538461538461536,0.8269230769230769,0.21428571428571427,0.8571428571428571,0.0004
16,1.697359561920166,1.7079097032546997,0.40384615384615385,0.8269230769230769,0.21428571428571427,0.8571428571428571,0.0004
17,1.6838257312774658,1.6934902667999268,0.40384615384615385,0.8269230769230769,0.21428571428571427,0.8571428571428571,0.0004
18,1.699032485485077,1.66657292842865,0.36538461538461536,0.8269230769230769,0.21428571428571427,0.8571428571428571,0.0004
19,1.6412944793701172,1.6478221416473389,0.40384615384615385,0.8269230769230769,0.21428571428571427,0.8571428571428571,0.0004
20,1.652565360069275,1.6312674283981323,0.25,0.8269230769230769,0.21428571428571427,0.8571428571428571,0.0004
21,1.6529678106307983,1.6191127300262451,0.3269230769230769,0.8269230769230769,0.21428571428571427,0.8571428571428571,0.0004
22,1.6116302013397217,1.6046161651611328,0.28846153846153844,0.8269230769230769,0.21428571428571427,0.8571428571428571,0.0004
23,1.662240207195282,1.5937297344207764,0.23076923076923078,0.8269230769230769,0.21428571428571427,0.8571428571428571,0.0004
24,1.5993062853813171,1.574015736579895,0.36538461538461536,0.8269230769230769,0.21428571428571427,0.8571428571428571,0.0004
25,1.5403408408164978,1.563767433166504,0.40384615384615385,0.8269230769230769,0.21428571428571427,0.8571428571428571,0.0004
26,1.5925107598304749,1.5509427785873413,0.38461538461538464,0.8269230769230769,0.21428571428571427,0.8571428571428571,0.0004
27,1.6234972476959229,1.546704888343811,0.4423076923076923,0.8269230769230769,0.21428571428571427,0.8571428571428571,0.0004
28,1.548518717288971,1.5390074253082275,0.40384615384615385,0.8269230769230769,0.21428571428571427,0.8571428571428571,0.0004
29,1.5997318029403687,1.5371609926223755,0.3076923076923077,0.8269230769230769,0.21428571428571427,0.8571428571428571,0.0004
30,1.6338895559310913,1.5338411331176758,0.3269230769230769,0.8269230769230769,0.21428571428571427,0.8571428571428571,0.0004
31,1.6090047955513,1.5359679460525513,0.34615384615384615,0.8269230769230769,0.21428571428571427,0.8571428571428571,0.0004
32,1.5873937010765076,1.5333456993103027,0.36538461538461536,0.8269230769230769,0.21428571428571427,0.8571428571428571,0.0004
33,1.6058645248413086,1.5355238914489746,0.3076923076923077,0.8269230769230769,0.21428571428571427,0.8571428571428571,0.0004
34,1.5380374789237976,1.5340752601623535,0.4807692307692308,0.8269230769230769,0.21428571428571427,0.8571428571428571,0.0004
35,1.5428316593170166,1.5334211587905884,0.4423076923076923,0.8269230769230769,0.21428571428571427,0.8571428571428571,0.0004
36,1.5908122062683105,1.5344055891036987,0.34615384615384615,0.8269230769230769,0.21428571428571427,0.8571428571428571,0.0004
37,1.604282557964325,1.5306615829467773,0.40384615384615385,0.8269230769230769,0.21428571428571427,0.8571428571428571,0.0004
38,1.6494272351264954,1.5369603633880615,0.40384615384615385,0.8269230769230769,0.21428571428571427,0.8571428571428571,0.0004
39,1.6176458597183228,1.538130521774292,0.3076923076923077,0.8269230769230769,0.21428571428571427,0.8571428571428571,0.0004
40,1.5750194787979126,1.5397982597351074,0.4230769230769231,0.8269230769230769,0.21428571428571427,0.8571428571428571,0.0004
41,1.5500158071517944,1.5415558815002441,0.3269230769230769,0.8269230769230769,0.21428571428571427,0.8571428571428571,0.0004
42,1.6288658380508423,1.5442739725112915,0.3076923076923077,0.8269230769230769,0.21428571428571427,0.8571428571428571,0.0004
43,1.615632951259613,1.5475577116012573,0.40384615384615385,0.8269230769230769,0.21428571428571427,0.8571428571428571,0.0004
44,1.51284921169281,1.5477559566497803,0.46153846153846156,0.8269230769230769,0.21428571428571427,0.8571428571428571,0.0004
45,1.6124640107154846,1.5445958375930786,0.34615384615384615,0.8269230769230769,0.21428571428571427,0.8571428571428571,0.0004
46,1.539344310760498,1.5450712442398071,0.38461538461538464,0.8269230769230769,0.21428571428571427,0.8571428571428571,0.0004
47,1.6385878920555115,1.5461935997009277,0.25,0.8269230769230769,0.21428571428571427,0.8571428571428571,0.0004
48,1.6060975193977356,1.5456383228302002,0.36538461538461536,0.8269230769230769,0.21428571428571427,0.8571428571428571,0.0004
49,1.5499111413955688,1.5503504276275635,0.38461538461538464,0.8269230769230769,0.21428571428571427,0.8571428571428571,0.0004
50,1.578174352645874,1.5501248836517334,0.36538461538461536,0.8269230769230769,0.21428571428571427,0.8571428571428571,0.0004
51,1.5676207542419434,1.5510226488113403,0.34615384615384615,0.8269230769230769,0.21428571428571427,0.8571428571428571,0.0004
52,1.6061484813690186,1.5469214916229248,0.38461538461538464,0.8269230769230769,0.21428571428571427,0.8571428571428571,0.0004
53,1.6527069211006165,1.5502464771270752,0.2692307692307692,0.8269230769230769,0.21428571428571427,0.8571428571428571,0.0004
54,1.535287320613861,1.5488810539245605,0.4423076923076923,0.8269230769230769,0.21428571428571427,0.8571428571428571,0.0004
55,1.5472159385681152,1.5464777946472168,0.40384615384615385,0.8269230769230769,0.21428571428571427,0.8571428571428571,0.0004
56,1.5453349351882935,1.5491865873336792,0.4230769230769231,0.8269230769230769,0.21428571428571427,0.8571428571428571,0.0004
57,1.5799183249473572,1.5494935512542725,0.2692307692307692,0.8269230769230769,0.21428571428571427,0.8571428571428571,0.0004
58,1.5516639947891235,1.5478571653366089,0.4230769230769231,0.8269230769230769,0.21428571428571427,0.8571428571428571,0.0004
59,1.4932367205619812,1.5482182502746582,0.4230769230769231,0.8269230769230769,0.21428571428571427,0.8571428571428571,0.0004
60,1.566486895084381,1.551405906677246,0.40384615384615385,0.8269230769230769,0.21428571428571427,0.8571428571428571,0.0004
61,1.549660086631775,1.5476166009902954,0.40384615384615385,0.8269230769230769,0.21428571428571427,0.8571428571428571,0.0004
62,1.600151777267456,1.547237515449524,0.3269230769230769,0.8269230769230769,0.21428571428571427,0.8571428571428571,0.0004
63,1.643488347530365,1.5453085899353027,0.2692307692307692,0.8269230769230769,0.21428571428571427,0.8571428571428571,0.0004
64,1.5885504484176636,1.545532464981079,0.4423076923076923,0.8269230769230769,0.21428571428571427,0.8571428571428571,0.0004
65,1.5695697665214539,1.5453517436981201,0.3269230769230769,0.8269230769230769,0.21428571428571427,0.8571428571428571,0.0004
66,1.5133026838302612,1.5442856550216675,0.36538461538461536,0.8269230769230769,0.21428571428571427,0.8571428571428571,0.0004
67,1.5976526737213135,1.543766975402832,0.3269230769230769,0.8269230769230769,0.21428571428571427,0.8571428571428571,0.0004
68,1.5871182084083557,1.54093337059021,0.38461538461538464,0.8269230769230769,0.21428571428571427,0.8571428571428571,0.0004
69,1.57192462682724,1.5417535305023193,0.3269230769230769,0.8269230769230769,0.21428571428571427,0.8571428571428571,0.0004
70,1.5678552985191345,1.5406458377838135,0.3269230769230769,0.8269230769230769,0.21428571428571427,0.8571428571428571,0.0004
71,1.5398163795471191,1.5377938747406006,0.4423076923076923,0.8269230769230769,0.21428571428571427,0.8571428571428571,0.0004
72,1.5328603982925415,1.5396920442581177,0.46153846153846156,0.8269230769230769,0.21428571428571427,0.8571428571428571,0.0004
73,1.5089542865753174,1.5383052825927734,0.36538461538461536,0.8269230769230769,0.21428571428571427,0.8571428571428571,0.0004
74,1.5204363465309143,1.538649082183838,0.46153846153846156,0.8269230769230769,0.21428571428571427,0.8571428571428571,0.0004
75,1.5654606819152832,1.5366601943969727,0.25,0.8269230769230769,0.21428571428571427,0.8571428571428571,0.0004
76,1.5672433972358704,1.5387165546417236,0.34615384615384615,0.8269230769230769,0.21428571428571427,0.8571428571428571,0.0004
77,1.5646798610687256,1.5398890972137451,0.21153846153846154,0.8269230769230769,0.21428571428571427,0.8571428571428571,0.0004
78,1.648248553276062,1.5360066890716553,0.28846153846153844,0.8269230769230769,0.21428571428571427,0.8571428571428571,0.0004
79,1.595272183418274,1.5348559617996216,0.3076923076923077,0.8269230769230769,0.21428571428571427,0.8571428571428571,0.0004
80,1.5990644693374634,1.5370761156082153,0.3076923076923077,0.8269230769230769,0.21428571428571427,0.8571428571428571,0.0004
81,1.5949185490608215,1.5355160236358643,0.36538461538461536,0.8269230769230769,0.21428571428571427,0.8571428571428571,0.0004
82,1.6081866025924683,1.5354394912719727,0.23076923076923078,0.8269230769230769,0.21428571428571427,0.8571428571428571,0.0004
83,1.5582823157310486,1.5353745222091675,0.3076923076923077,0.8269230769230769,0.21428571428571427,0.8571428571428571,0.0004
84,1.5998399257659912,1.5369727611541748,0.4423076923076923,0.8269230769230769,0.21428571428571427,0.8571428571428571,0.0004
85,1.5584321022033691,1.538156270980835,0.40384615384615385,0.8269230769230769,0.21428571428571427,0.8571428571428571,0.0004
86,1.5244447588920593,1.5359247922897339,0.3269230769230769,0.8269230769230769,0.21428571428571427,0.8571428571428571,0.0004
87,1.558903694152832,1.5409349203109741,0.3076923076923077,0.8269230769230769,0.21428571428571427,0.8571428571428571,0.0004
88,1.6421634554862976,1.5395267009735107,0.3269230769230769,0.8269230769230769,0.21428571428571427,0.8571428571428571,0.0004
89,1.5664223432540894,1.539426565170288,0.3269230769230769,0.8269230769230769,0.21428571428571427,0.8571428571428571,0.0004
90,1.5908716320991516,1.5379576683044434,0.34615384615384615,0.8269230769230769,0.21428571428571427,0.8571428571428571,0.0004
91,1.5561361908912659,1.5437449216842651,0.38461538461538464,0.8269230769230769,0.21428571428571427,0.8571428571428571,0.0004
92,1.5922096967697144,1.548250436782837,0.40384615384615385,0.8269230769230769,0.21428571428571427,0.8571428571428571,0.0004
93,1.5697413682937622,1.5460450649261475,0.4423076923076923,0.8269230769230769,0.21428571428571427,0.8571428571428571,0.0004
94,1.5831648707389832,1.5467448234558105,0.34615384615384615,0.8269230769230769,0.21428571428571427,0.8571428571428571,0.0004
95,1.5115612745285034,1.5510401725769043,0.3076923076923077,0.8269230769230769,0.21428571428571427,0.8571428571428571,0.0004
96,1.5349345803260803,1.5501537322998047,0.5192307692307693,0.8269230769230769,0.21428571428571427,0.8571428571428571,0.0004
97,1.5480167269706726,1.550655722618103,0.38461538461538464,0.8269230769230769,0.21428571428571427,0.8571428571428571,0.0004
98,1.5802451372146606,1.5473883152008057,0.4230769230769231,0.8269230769230769,0.21428571428571427,0.8571428571428571,0.0004
99,1.5883692502975464,1.5459738969802856,0.38461538461538464,0.8269230769230769,0.21428571428571427,0.8571428571428571,0.0004
100,1.6309750080108643,1.5478754043579102,0.4423076923076923,0.8269230769230769,0.21428571428571427,0.8571428571428571,0.0004
101,1.6091772317886353,1.547295331954956,0.28846153846153844,0.8269230769230769,0.21428571428571427,0.8571428571428571,0.0004
102,1.5589746832847595,1.5506620407104492,0.38461538461538464,0.8269230769230769,0.21428571428571427,0.8571428571428571,0.0004
103,1.5723061561584473,1.5450809001922607,0.4807692307692308,0.8269230769230769,0.21428571428571427,0.8571428571428571,0.0004
104,1.619935154914856,1.545781135559082,0.40384615384615385,0.8269230769230769,0.21428571428571427,0.8571428571428571,0.0004
105,1.6644556522369385,1.543731927871704,0.3269230769230769,0.8269230769230769,0.21428571428571427,0.8571428571428571,0.0004
106,1.5818355083465576,1.5466623306274414,0.38461538461538464,0.8269230769230769,0.21428571428571427,0.8571428571428571,0.0004
107,1.566116213798523,1.5443733930587769,0.4423076923076923,0.8269230769230769,0.21428571428571427,0.8571428571428571,0.0004
108,1.5597916841506958,1.5447988510131836,0.34615384615384615,0.8269230769230769,0.21428571428571427,0.8571428571428571,0.0004
109,1.5445043444633484,1.5425381660461426,0.4230769230769231,0.8269230769230769,0.21428571428571427,0.8571428571428571,0.0004
110,1.5687614679336548,1.5417108535766602,0.25,0.8269230769230769,0.21428571428571427,0.8571428571428571,0.0004
111,1.5600019097328186,1.54404878616333,0.40384615384615385,0.8269230769230769,0.21428571428571427,0.8571428571428571,0.0004
112,1.560886263847351,1.5391509532928467,0.46153846153846156,0.8269230769230769,0.21428571428571427,0.8571428571428571,0.0004
113,1.608141005039215,1.5435012578964233,0.28846153846153844,0.8269230769230769,0.21428571428571427,0.8571428571428571,0.0004
114,1.5338214039802551,1.5394935607910156,0.4230769230769231,0.8269230769230769,0.21428571428571427,0.8571428571428571,0.0004
115,1.5850942730903625,1.5409719944000244,0.38461538461538464,0.8269230769230769,0.21428571428571427,0.8571428571428571,0.0004
116,1.5534877181053162,1.5427600145339966,0.3269230769230769,0.8269230769230769,0.21428571428571427,0.8571428571428571,0.0004
117,1.5820232033729553,1.5408605337142944,0.2692307692307692,0.8269230769230769,0.21428571428571427,0.8571428571428571,0.0004
118,1.534186601638794,1.5400421619415283,0.3269230769230769,0.8269230769230769,0.21428571428571427,0.8571428571428571,0.0004
119,1.5469268560409546,1.5375111103057861,0.34615384615384615,0.8269230769230769,0.21428571428571427,0.8571428571428571,0.0004
120,1.617878019809723,1.5383760929107666,0.2692307692307692,0.8269230769230769,0.21428571428571427,0.8571428571428571,0.0004
121,1.5684360265731812,1.5418670177459717,0.4230769230769231,0.8269230769230769,0.21428571428571427,0.8571428571428571,0.0004
122,1.5156816244125366,1.5417146682739258,0.36538461538461536,0.8269230769230769,0.21428571428571427,0.8571428571428571,0.0004
123,1.5497265458106995,1.5429246425628662,0.28846153846153844,0.8269230769230769,0.21428571428571427,0.8571428571428571,0.0004
124,1.598583996295929,1.54310142993927,0.34615384615384615,0.8269230769230769,0.21428571428571427,0.8571428571428571,0.0004
125,1.5816266536712646,1.5382118225097656,0.34615384615384615,0.8269230769230769,0.21428571428571427,0.8571428571428571,0.0004
126,1.5276406407356262,1.5413343906402588,0.38461538461538464,0.8269230769230769,0.21428571428571427,0.8571428571428571,0.0004
127,1.5717025399208069,1.5380492210388184,0.3076923076923077,0.8269230769230769,0.21428571428571427,0.8571428571428571,0.0004
128,1.5802137851715088,1.5470471382141113,0.3076923076923077,0.8269230769230769,0.21428571428571427,0.8571428571428571,0.0004
129,1.6075392961502075,1.542922019958496,0.3076923076923077,0.8269230769230769,0.21428571428571427,0.8571428571428571,0.0004
130,1.5394124388694763,1.5408624410629272,0.5,0.8269230769230769,0.21428571428571427,0.8571428571428571,0.0004
131,1.576810598373413,1.5413442850112915,0.3269230769230769,0.8269230769230769,0.21428571428571427,0.8571428571428571,0.0004
132,1.5512117743492126,1.5418940782546997,0.3076923076923077,0.8269230769230769,0.21428571428571427,0.8571428571428571,0.0004
133,1.5673096179962158,1.539067268371582,0.3269230769230769,0.8269230769230769,0.21428571428571427,0.8571428571428571,0.0004
134,1.6192834377288818,1.5427168607711792,0.4423076923076923,0.8269230769230769,0.21428571428571427,0.8571428571428571,0.0004
135,1.5701751708984375,1.542134165763855,0.4423076923076923,0.8269230769230769,0.21428571428571427,0.8571428571428571,0.0004
136,1.5655831098556519,1.5410500764846802,0.3076923076923077,0.8269230769230769,0.21428571428571427,0.8571428571428571,0.0004
137,1.5212190747261047,1.541972279548645,0.36538461538461536,0.8269230769230769,0.21428571428571427,0.8571428571428571,0.0004
138,1.6043217778205872,1.542672872543335,0.3269230769230769,0.8269230769230769,0.21428571428571427,0.8571428571428571,0.0004
139,1.5398584604263306,1.5384019613265991,0.36538461538461536,0.8269230769230769,0.21428571428571427,0.8571428571428571,0.0004
140,1.582836389541626,1.539023995399475,0.36538461538461536,0.8269230769230769,0.21428571428571427,0.8571428571428571,0.0004
141,1.5541287660598755,1.543353796005249,0.40384615384615385,0.8269230769230769,0.21428571428571427,0.8571428571428571,0.0004
142,1.5402150750160217,1.5412273406982422,0.40384615384615385,0.8269230769230769,0.21428571428571427,0.8571428571428571,0.0004
143,1.5631433129310608,1.540142297744751,0.3269230769230769,0.8269230769230769,0.21428571428571427,0.8571428571428571,0.0004
144,1.5624663829803467,1.535745620727539,0.46153846153846156,0.8269230769230769,0.21428571428571427,0.8571428571428571,0.0004
145,1.5539786219596863,1.5399675369262695,0.40384615384615385,0.8269230769230769,0.21428571428571427,0.8571428571428571,0.0004
146,1.545787751674652,1.5260103940963745,0.36538461538461536,0.8269230769230769,0.21428571428571427,0.8571428571428571,0.0004
147,1.585019290447235,1.5311890840530396,0.2692307692307692,0.8269230769230769,0.21428571428571427,0.8571428571428571,0.0004
148,1.5865209698677063,1.5322561264038086,0.28846153846153844,0.8269230769230769,0.21428571428571427,0.8571428571428571,0.0004
149,1.5836281180381775,1.534781813621521,0.3269230769230769,0.8269230769230769,0.21428571428571427,0.8571428571428571,0.0004
150,1.6483802795410156,1.5245524644851685,0.34615384615384615,0.8269230769230769,0.21428571428571427,0.8571428571428571,0.0004
151,1.5877245664596558,1.5248140096664429,0.3269230769230769,0.8269230769230769,0.21428571428571427,0.8571428571428571,0.0004
152,1.5829264521598816,1.5263524055480957,0.3076923076923077,0.8269230769230769,0.21428571428571427,0.8571428571428571,0.0004
153,1.5807071924209595,1.5380315780639648,0.28846153846153844,0.8269230769230769,0.21428571428571427,0.8571428571428571,0.0004
154,1.588099718093872,1.5342915058135986,0.25,0.8269230769230769,0.21428571428571427,0.8571428571428571,0.0004
155,1.5523964762687683,1.5168633460998535,0.4423076923076923,0.8269230769230769,0.21428571428571427,0.8571428571428571,0.0004
156,1.550982654094696,1.5295405387878418,0.4807692307692308,0.8269230769230769,0.21428571428571427,0.8571428571428571,0.0004
157,1.5718527436256409,1.524568796157837,0.38461538461538464,0.8269230769230769,0.2857142857142857,0.8571428571428571,0.0004
158,1.6258281469345093,1.5278546810150146,0.2692307692307692,0.8269230769230769,0.21428571428571427,0.8571428571428571,0.0004
159,1.5462701916694641,1.5294466018676758,0.3269230769230769,0.8269230769230769,0.21428571428571427,0.8571428571428571,0.0004
160,1.5802587270736694,1.5285141468048096,0.28846153846153844,0.8269230769230769,0.21428571428571427,0.8571428571428571,0.0004
161,1.5482922792434692,1.5227344036102295,0.36538461538461536,0.8269230769230769,0.2857142857142857,0.8571428571428571,0.0004
162,1.5710129737854004,1.5256617069244385,0.3076923076923077,0.8269230769230769,0.21428571428571427,0.8571428571428571,0.0004
163,1.5283925533294678,1.5153864622116089,0.3269230769230769,0.8269230769230769,0.21428571428571427,0.8571428571428571,0.0004
164,1.5867068767547607,1.5232213735580444,0.3269230769230769,0.8269230769230769,0.2857142857142857,0.8571428571428571,0.0004
165,1.5232322216033936,1.5299241542816162,0.40384615384615385,0.8269230769230769,0.21428571428571427,0.8571428571428571,0.0004
166,1.6111828088760376,1.529530644416809,0.3269230769230769,0.8269230769230769,0.21428571428571427,0.8571428571428571,0.0004
167,1.56732976436615,1.5293546915054321,0.4230769230769231,0.8269230769230769,0.21428571428571427,0.8571428571428571,0.0004
168,1.5436921119689941,1.5437182188034058,0.2692307692307692,0.8269230769230769,0.21428571428571427,0.8571428571428571,0.0004
169,1.5759345293045044,1.5407671928405762,0.36538461538461536,0.8269230769230769,0.21428571428571427,0.8571428571428571,0.0004
170,1.5118493437767029,1.538111686706543,0.4423076923076923,0.8269230769230769,0.21428571428571427,0.8571428571428571,0.0004
171,1.5431514382362366,1.5270369052886963,0.28846153846153844,0.8269230769230769,0.21428571428571427,0.8571428571428571,0.0004
172,1.5743752717971802,1.5402311086654663,0.40384615384615385,0.8269230769230769,0.21428571428571427,0.8571428571428571,0.0004
173,1.5738078355789185,1.5394182205200195,0.34615384615384615,0.8269230769230769,0.21428571428571427,0.8571428571428571,0.0004
174,1.534830629825592,1.53841233253479,0.34615384615384615,0.8269230769230769,0.21428571428571427,0.8571428571428571,0.0004
175,1.6611115336418152,1.5409138202667236,0.3076923076923077,0.8269230769230769,0.21428571428571427,0.8571428571428571,0.0004
176,1.5044009685516357,1.563438892364502,0.46153846153846156,0.8269230769230769,0.21428571428571427,0.8571428571428571,0.0004
177,1.5878739953041077,1.5415154695510864,0.3269230769230769,0.8269230769230769,0.21428571428571427,0.8571428571428571,0.0004
178,1.595813274383545,1.5370182991027832,0.4230769230769231,0.8269230769230769,0.21428571428571427,0.8571428571428571,0.0004
179,1.5958890914916992,1.5397238731384277,0.34615384615384615,0.8269230769230769,0.21428571428571427,0.8571428571428571,0.0004
180,1.5598147511482239,1.5440311431884766,0.3269230769230769,0.8269230769230769,0.21428571428571427,0.8571428571428571,0.0004
181,1.5547994375228882,1.5384907722473145,0.36538461538461536,0.8269230769230769,0.21428571428571427,0.8571428571428571,0.0004
182,1.5650324821472168,1.5251766443252563,0.25,0.8269230769230769,0.2857142857142857,0.8571428571428571,0.0004
183,1.570080280303955,1.539945125579834,0.28846153846153844,0.8269230769230769,0.21428571428571427,0.8571428571428571,0.0004
184,1.4816715121269226,1.5401502847671509,0.28846153846153844,0.8269230769230769,0.21428571428571427,0.8571428571428571,0.0004
185,1.5427666306495667,1.5331348180770874,0.4807692307692308,0.8269230769230769,0.21428571428571427,0.8571428571428571,0.0004
186,1.607473075389862,1.5346601009368896,0.4230769230769231,0.8269230769230769,0.21428571428571427,0.8571428571428571,0.0004
187,1.5964261889457703,1.5440504550933838,0.34615384615384615,0.8269230769230769,0.21428571428571427,0.8571428571428571,0.0004
188,1.5094220042228699,1.5342824459075928,0.38461538461538464,0.8269230769230769,0.21428571428571427,0.8571428571428571,0.0004
189,1.5853158235549927,1.5143967866897583,0.38461538461538464,0.8269230769230769,0.21428571428571427,0.8571428571428571,0.0004
190,1.5880968570709229,1.525367021560669,0.36538461538461536,0.8269230769230769,0.21428571428571427,0.8571428571428571,0.0004
191,1.5224493145942688,1.538111686706543,0.2692307692307692,0.8269230769230769,0.21428571428571427,0.8571428571428571,0.0004
192,1.5233455896377563,1.5349633693695068,0.4230769230769231,0.8269230769230769,0.21428571428571427,0.8571428571428571,0.0004
193,1.5688570737838745,1.4859585762023926,0.40384615384615385,0.8269230769230769,0.21428571428571427,0.8571428571428571,0.0004
194,1.6013660430908203,1.5235480070114136,0.28846153846153844,0.8269230769230769,0.21428571428571427,0.8571428571428571,0.0004
195,1.5087871551513672,1.5215145349502563,0.4230769230769231,0.8269230769230769,0.21428571428571427,0.8571428571428571,0.0004
196,1.566943109035492,1.5577607154846191,0.3269230769230769,0.8269230769230769,0.21428571428571427,0.8571428571428571,0.0004
197,1.5495349764823914,1.5138100385665894,0.38461538461538464,0.8269230769230769,0.21428571428571427,0.8571428571428571,0.0004
198,1.5425557494163513,1.5249862670898438,0.4230769230769231,0.8269230769230769,0.21428571428571427,0.8571428571428571,0.0004
199,1.5934435725212097,1.5258910655975342,0.4230769230769231,0.8269230769230769,0.21428571428571427,0.8571428571428571,0.0004
200,1.5124054551124573,1.506770372390747,0.4230769230769231,0.8269230769230769,0.35714285714285715,0.8571428571428571,0.0004
201,1.4946300983428955,1.5310035943984985,0.40384615384615385,0.8269230769230769,0.35714285714285715,0.8571428571428571,0.0004
202,1.5664138197898865,1.4839880466461182,0.34615384615384615,0.8269230769230769,0.5,0.8571428571428571,0.0004
203,1.512755274772644,1.5091074705123901,0.40384615384615385,0.8269230769230769,0.35714285714285715,0.8571428571428571,0.0004
204,1.5202468037605286,1.5038206577301025,0.4807692307692308,0.8269230769230769,0.42857142857142855,0.8571428571428571,0.0004
205,1.5356028079986572,1.5160571336746216,0.3076923076923077,0.8269230769230769,0.42857142857142855,0.8571428571428571,0.0004
206,1.5361485481262207,1.5055025815963745,0.3269230769230769,0.8269230769230769,0.42857142857142855,0.8571428571428571,0.0004
207,1.5896399021148682,1.5057063102722168,0.40384615384615385,0.8269230769230769,0.35714285714285715,0.8571428571428571,0.0004
208,1.549201786518097,1.471977949142456,0.36538461538461536,0.8269230769230769,0.42857142857142855,0.8571428571428571,0.0004
209,1.5436060428619385,1.5178192853927612,0.38461538461538464,0.8269230769230769,0.21428571428571427,0.8571428571428571,0.0004
210,1.556347370147705,1.5134117603302002,0.4807692307692308,0.8269230769230769,0.21428571428571427,0.8571428571428571,0.0004
211,1.5397657752037048,1.5261014699935913,0.4423076923076923,0.8269230769230769,0.21428571428571427,0.8571428571428571,0.0004
212,1.4970743060112,1.5201307535171509,0.36538461538461536,0.8269230769230769,0.21428571428571427,0.8571428571428571,0.0004
213,1.5387014150619507,1.5531609058380127,0.40384615384615385,0.8269230769230769,0.21428571428571427,0.8571428571428571,0.0004
214,1.5329132676124573,1.534088134765625,0.34615384615384615,0.8269230769230769,0.21428571428571427,0.8571428571428571,0.0004
215,1.5615807175636292,1.4994961023330688,0.3269230769230769,0.8269230769230769,0.21428571428571427,0.8571428571428571,0.0004
216,1.5523302555084229,1.4766685962677002,0.34615384615384615,0.8269230769230769,0.35714285714285715,0.8571428571428571,0.0004
217,1.5583853721618652,1.5694847106933594,0.3076923076923077,0.8269230769230769,0.35714285714285715,0.8571428571428571,0.0004
218,1.5222477316856384,1.4490994215011597,0.46153846153846156,0.8269230769230769,0.35714285714285715,0.8571428571428571,0.0004
219,1.5441728234291077,1.6921004056930542,0.38461538461538464,0.8269230769230769,0.2857142857142857,0.8571428571428571,0.0004
220,1.55379718542099,1.7949116230010986,0.4230769230769231,0.8269230769230769,0.21428571428571427,0.8571428571428571,0.0004
221,1.7481650114059448,1.7389795780181885,0.36538461538461536,0.8269230769230769,0.21428571428571427,0.8571428571428571,0.0004
222,1.625082015991211,1.6986143589019775,0.36538461538461536,0.8269230769230769,0.21428571428571427,0.8571428571428571,0.0004
223,1.5746788382530212,1.6379971504211426,0.38461538461538464,0.8269230769230769,0.21428571428571427,0.8571428571428571,0.0004
224,1.5854953527450562,1.5803889036178589,0.38461538461538464,0.8269230769230769,0.21428571428571427,0.8571428571428571,0.0004
225,1.5518771409988403,1.5732097625732422,0.36538461538461536,0.8269230769230769,0.21428571428571427,0.8571428571428571,0.0004
226,1.569627046585083,1.5707240104675293,0.38461538461538464,0.8269230769230769,0.21428571428571427,0.8571428571428571,0.0004
227,1.5610716938972473,1.557875394821167,0.40384615384615385,0.8269230769230769,0.21428571428571427,0.8571428571428571,0.0004
228,1.608078420162201,1.5469163656234741,0.3076923076923077,0.8269230769230769,0.2857142857142857,0.8571428571428571,0.0004
229,1.5307378768920898,1.535827875137329,0.40384615384615385,0.8269230769230769,0.35714285714285715,0.8571428571428571,0.0004
230,1.5451143980026245,1.51370108127594,0.4230769230769231,0.8269230769230769,0.2857142857142857,0.8571428571428571,0.0004
231,1.531285047531128,1.542249083518982,0.5,0.8269230769230769,0.21428571428571427,0.8571428571428571,0.0004
232,1.551929235458374,1.508426308631897,0.40384615384615385,0.8269230769230769,0.35714285714285715,0.8571428571428571,0.0004
233,1.5966398119926453,1.5126291513442993,0.36538461538461536,0.8269230769230769,0.5714285714285714,0.8571428571428571,0.0004
234,1.5751271843910217,1.4975049495697021,0.4423076923076923,0.8269230769230769,0.5,0.8571428571428571,0.0004
235,1.4995045065879822,1.504536747932434,0.3269230769230769,0.8269230769230769,0.42857142857142855,0.8571428571428571,0.0004
236,1.5415631532669067,1.4832853078842163,0.40384615384615385,0.8269230769230769,0.5,0.8571428571428571,0.0004
237,1.5797592401504517,1.4768831729888916,0.38461538461538464,0.8269230769230769,0.5,0.8571428571428571,0.0004
238,1.5073055028915405,1.4106611013412476,0.38461538461538464,0.8269230769230769,0.5,0.8571428571428571,0.0004
239,1.5971237421035767,1.5009541511535645,0.38461538461538464,0.8269230769230769,0.42857142857142855,0.8571428571428571,0.0004
240,1.545835554599762,1.4790112972259521,0.2692307692307692,0.8269230769230769,0.42857142857142855,0.8571428571428571,0.0004
241,1.5124613046646118,1.4695605039596558,0.36538461538461536,0.8269230769230769,0.42857142857142855,0.8571428571428571,0.0004
242,1.5206347703933716,1.4748274087905884,0.40384615384615385,0.8269230769230769,0.42857142857142855,0.8571428571428571,0.0004
243,1.5436455011367798,1.4514251947402954,0.36538461538461536,0.8269230769230769,0.42857142857142855,0.8571428571428571,0.0004
244,1.4982578754425049,1.4409093856811523,0.38461538461538464,0.8269230769230769,0.5,0.8571428571428571,0.0004
245,1.5199480652809143,1.4300848245620728,0.38461538461538464,0.8269230769230769,0.42857142857142855,0.8571428571428571,0.0004
246,1.4757249355316162,1.407280445098877,0.40384615384615385,0.8269230769230769,0.42857142857142855,0.8571428571428571,0.0004
247,1.6078028678894043,1.4574904441833496,0.40384615384615385,0.8269230769230769,0.42857142857142855,0.8571428571428571,0.0004
248,1.7017551064491272,1.5004117488861084,0.38461538461538464,0.8269230769230769,0.42857142857142855,0.8571428571428571,0.0004
249,1.6640644669532776,1.4966011047363281,0.3269230769230769,0.8269230769230769,0.42857142857142855,0.8571428571428571,0.0004
250,1.7377623915672302,1.4708608388900757,0.25,0.8269230769230769,0.42857142857142855,0.8571428571428571,0.0004
251,1.6834587454795837,1.4830913543701172,0.36538461538461536,0.8269230769230769,0.42857142857142855,0.8571428571428571,0.0004
252,1.6505969762802124,1.486889123916626,0.3076923076923077,0.8269230769230769,0.42857142857142855,0.8571428571428571,0.0004
253,1.5907358527183533,1.4906318187713623,0.36538461538461536,0.8269230769230769,0.42857142857142855,0.8571428571428571,0.0004
254,1.5332790613174438,1.492875099182129,0.34615384615384615,0.8269230769230769,0.42857142857142855,0.8571428571428571,0.0004
255,1.5452029705047607,1.5111163854599,0.38461538461538464,0.8269230769230769,0.42857142857142855,0.8571428571428571,0.0004
256,1.5500763654708862,1.5482335090637207,0.36538461538461536,0.8269230769230769,0.35714285714285715,0.8571428571428571,0.0004
257,1.5604074001312256,1.5341159105300903,0.40384615384615385,0.8269230769230769,0.35714285714285715,0.8571428571428571,0.0004
258,1.5963960886001587,1.5474951267242432,0.5,0.8269230769230769,0.21428571428571427,0.8571428571428571,0.0004
259,1.5777093172073364,1.5540685653686523,0.4230769230769231,0.8269230769230769,0.21428571428571427,0.8571428571428571,0.0004
260,1.5683436393737793,1.5692425966262817,0.38461538461538464,0.8269230769230769,0.21428571428571427,0.8571428571428571,0.0004
261,1.6020549535751343,1.5492326021194458,0.40384615384615385,0.8269230769230769,0.21428571428571427,0.8571428571428571,0.0004
262,1.5660025477409363,1.5690584182739258,0.38461538461538464,0.8269230769230769,0.21428571428571427,0.8571428571428571,0.0004
263,1.5700836777687073,1.5661420822143555,0.4423076923076923,0.8269230769230769,0.21428571428571427,0.8571428571428571,0.0004
264,1.6531829833984375,1.559358835220337,0.34615384615384615,0.8269230769230769,0.21428571428571427,0.8571428571428571,0.0004
265,1.53209388256073,1.570302963256836,0.28846153846153844,0.8269230769230769,0.21428571428571427,0.8571428571428571,0.0004
266,1.5588160753250122,1.5594135522842407,0.28846153846153844,0.8269230769230769,0.21428571428571427,0.8571428571428571,0.0004
267,1.5930394530296326,1.5770827531814575,0.3076923076923077,0.8269230769230769,0.21428571428571427,0.8571428571428571,0.0004
268,1.5155933499336243,1.5733534097671509,0.46153846153846156,0.8269230769230769,0.21428571428571427,0.8571428571428571,0.0004
269,1.6166999340057373,1.5587369203567505,0.34615384615384615,0.8269230769230769,0.21428571428571427,0.8571428571428571,0.0004
270,1.4980679750442505,1.5020294189453125,0.38461538461538464,0.8269230769230769,0.21428571428571427,0.8571428571428571,0.0004
271,1.5529140830039978,1.5604374408721924,0.38461538461538464,0.8269230769230769,0.21428571428571427,0.8571428571428571,0.0004
272,1.5286065340042114,1.5481373071670532,0.38461538461538464,0.8269230769230769,0.21428571428571427,0.8571428571428571,0.0004
273,1.573717713356018,1.5475690364837646,0.34615384615384615,0.8269230769230769,0.21428571428571427,0.8571428571428571,0.0004
274,1.5486500263214111,1.5486606359481812,0.36538461538461536,0.8269230769230769,0.21428571428571427,0.8571428571428571,0.0004
275,1.5181515216827393,1.4967904090881348,0.40384615384615385,0.8269230769230769,0.21428571428571427,0.8571428571428571,0.0004
276,1.5305280089378357,1.5904922485351562,0.36538461538461536,0.8269230769230769,0.21428571428571427,0.8571428571428571,0.0004
277,1.6037510633468628,1.6774673461914062,0.38461538461538464,0.8269230769230769,0.21428571428571427,0.8571428571428571,0.0004
278,1.4905932545661926,1.4938807487487793,0.40384615384615385,0.8269230769230769,0.21428571428571427,0.8571428571428571,0.0004
279,1.5013338327407837,1.499372959136963,0.3269230769230769,0.8269230769230769,0.21428571428571427,0.8571428571428571,0.0004
280,1.4724649786949158,1.6813504695892334,0.4423076923076923,0.8269230769230769,0.21428571428571427,0.8571428571428571,0.0004
281,1.4127370715141296,1.4430440664291382,0.5,0.8269230769230769,0.21428571428571427,0.8571428571428571,0.0004
282,1.444098174571991,1.4889954328536987,0.4423076923076923,0.8269230769230769,0.5,0.8571428571428571,0.0004
283,1.5425770282745361,1.4081144332885742,0.40384615384615385,0.8269230769230769,0.6428571428571429,0.8571428571428571,0.0004
284,1.4560262560844421,1.5105066299438477,0.4423076923076923,0.8269230769230769,0.5,0.8571428571428571,0.0004
285,1.4413968324661255,1.3202533721923828,0.5384615384615384,0.8269230769230769,0.6428571428571429,0.8571428571428571,0.0004
286,1.450735867023468,1.505307912826538,0.46153846153846156,0.8269230769230769,0.5714285714285714,0.8571428571428571,0.0004
287,1.4902883768081665,1.3856265544891357,0.5,0.8269230769230769,0.5714285714285714,0.8571428571428571,0.0004
288,1.443544626235962,1.4578852653503418,0.46153846153846156,0.8269230769230769,0.5,0.8571428571428571,0.0004
289,1.4303199648857117,1.454338550567627,0.5192307692307693,0.8269230769230769,0.5,0.8571428571428571,0.0004
290,1.4916369915008545,1.478844165802002,0.5192307692307693,0.8269230769230769,0.5714285714285714,0.8571428571428571,0.0004
291,1.3732256889343262,1.4002630710601807,0.5192307692307693,0.8269230769230769,0.6428571428571429,0.8571428571428571,0.0004
292,1.4602389931678772,1.3176250457763672,0.4807692307692308,0.8269230769230769,0.6428571428571429,0.8571428571428571,0.0004
293,1.4013422131538391,1.3717066049575806,0.5384615384615384,0.8269230769230769,0.5714285714285714,0.8571428571428571,0.0004
294,1.4215238094329834,1.456127405166626,0.4807692307692308,0.8269230769230769,0.5714285714285714,0.8571428571428571,0.0004
295,1.4656277298927307,1.7494776248931885,0.46153846153846156,0.8269230769230769,0.42857142857142855,0.8571428571428571,0.0004
296,1.369395673274994,1.6490504741668701,0.40384615384615385,0.8269230769230769,0.5,0.8571428571428571,0.0004
297,1.4381205439567566,1.4906467199325562,0.5,0.8269230769230769,0.5714285714285714,0.8571428571428571,0.0004
298,1.5788597464561462,1.4555583000183105,0.4807692307692308,0.8269230769230769,0.5714285714285714,0.8571428571428571,0.0004
299,1.4024761319160461,1.339465618133545,0.46153846153846156,0.8269230769230769,0.5714285714285714,0.8571428571428571,0.0004
300,1.2806678414344788,1.4654350280761719,0.6538461538461539,0.8269230769230769,0.5,0.8571428571428571,0.0004
301,1.329675316810608,1.450822353363037,0.6538461538461539,0.8269230769230769,0.5714285714285714,0.8571428571428571,0.0004
302,1.432198166847229,1.461290955543518,0.4807692307692308,0.8269230769230769,0.5,0.8571428571428571,0.0004
303,1.504863440990448,1.313661813735962,0.4423076923076923,0.8269230769230769,0.5714285714285714,0.8571428571428571,0.0004
304,1.3796881437301636,1.2554078102111816,0.5384615384615384,0.8269230769230769,0.6428571428571429,0.8571428571428571,0.0004
305,1.3420105576515198,1.344712495803833,0.5384615384615384,0.8269230769230769,0.5714285714285714,0.8571428571428571,0.0004
306,1.292263686656952,1.253025770187378,0.6538461538461539,0.8269230769230769,0.6428571428571429,0.8571428571428571,0.0004
307,1.6060043573379517,1.9376747608184814,0.5,0.8269230769230769,0.42857142857142855,0.8571428571428571,0.0004
308,1.6861465573310852,1.5644643306732178,0.5,0.8269230769230769,0.5714285714285714,0.8571428571428571,0.0004
309,1.331470012664795,1.7687021493911743,0.5961538461538461,0.8269230769230769,0.42857142857142855,0.8571428571428571,0.0004
310,1.4274290800094604,1.4292367696762085,0.4807692307692308,0.8269230769230769,0.5,0.8571428571428571,0.0004
311,1.3360651731491089,1.513916254043579,0.5384615384615384,0.8269230769230769,0.5,0.8571428571428571,0.0004
312,1.4286044836044312,1.4008336067199707,0.4807692307692308,0.8269230769230769,0.5,0.8571428571428571,0.0004
313,1.5387375950813293,1.5312483310699463,0.46153846153846156,0.8269230769230769,0.5,0.8571428571428571,0.0004
314,1.5417826175689697,1.4267208576202393,0.5,0.8269230769230769,0.5714285714285714,0.8571428571428571,0.0004
315,1.5226351618766785,1.4716768264770508,0.40384615384615385,0.8269230769230769,0.42857142857142855,0.8571428571428571,0.0004
316,1.5677692294120789,1.3936690092086792,0.38461538461538464,0.8269230769230769,0.5714285714285714,0.8571428571428571,0.0004
317,1.562235176563263,1.4727957248687744,0.34615384615384615,0.8269230769230769,0.42857142857142855,0.8571428571428571,0.0004
318,1.6339475512504578,1.4086717367172241,0.3269230769230769,0.8269230769230769,0.5,0.8571428571428571,0.0004
319,1.5379563570022583,1.4888615608215332,0.40384615384615385,0.8269230769230769,0.35714285714285715,0.8571428571428571,0.0004
320,1.5615851879119873,1.4260227680206299,0.36538461538461536,0.8269230769230769,0.42857142857142855,0.8571428571428571,0.0004
321,1.5429763793945312,1.5021885633468628,0.38461538461538464,0.8269230769230769,0.35714285714285715,0.8571428571428571,0.0004
322,1.553086757659912,1.4331012964248657,0.28846153846153844,0.8269230769230769,0.42857142857142855,0.8571428571428571,0.0004
323,1.5929141640663147,1.470792293548584,0.34615384615384615,0.8269230769230769,0.35714285714285715,0.8571428571428571,0.0004
324,1.5347372889518738,1.5098072290420532,0.28846153846153844,0.8269230769230769,0.35714285714285715,0.8571428571428571,0.0004
325,1.5190075039863586,1.5102753639221191,0.4807692307692308,0.8269230769230769,0.35714285714285715,0.8571428571428571,0.0004
326,1.6055410504341125,1.514917016029358,0.34615384615384615,0.8269230769230769,0.35714285714285715,0.8571428571428571,0.0004
327,1.5596681833267212,1.5233898162841797,0.36538461538461536,0.8269230769230769,0.35714285714285715,0.8571428571428571,0.0004
328,1.5261285305023193,1.4642038345336914,0.2692307692307692,0.8269230769230769,0.42857142857142855,0.8571428571428571,0.0004
329,1.5504390001296997,1.5241191387176514,0.34615384615384615,0.8269230769230769,0.21428571428571427,0.8571428571428571,0.0004
330,1.5330322980880737,1.532120943069458,0.3269230769230769,0.8269230769230769,0.21428571428571427,0.8571428571428571,0.0004
331,1.6267447471618652,1.5333309173583984,0.38461538461538464,0.8269230769230769,0.2857142857142857,0.8571428571428571,0.0004
332,1.6215770244598389,1.5255730152130127,0.3269230769230769,0.8269230769230769,0.2857142857142857,0.8571428571428571,0.0004
333,1.5745913982391357,1.5359469652175903,0.36538461538461536,0.8269230769230769,0.21428571428571427,0.8571428571428571,0.0004
334,1.5361858010292053,1.5358915328979492,0.4230769230769231,0.8269230769230769,0.21428571428571427,0.8571428571428571,0.0004
335,1.5938530564308167,1.5358753204345703,0.2692307692307692,0.8269230769230769,0.21428571428571427,0.8571428571428571,0.0004
336,1.5811872482299805,1.5346133708953857,0.36538461538461536,0.8269230769230769,0.21428571428571427,0.8571428571428571,0.0004
337,1.5791847705841064,1.5318557024002075,0.23076923076923078,0.8269230769230769,0.21428571428571427,0.8571428571428571,0.0004
338,1.5850059390068054,1.5333683490753174,0.4230769230769231,0.8269230769230769,0.21428571428571427,0.8571428571428571,0.0004
339,1.590027093887329,1.4678298234939575,0.36538461538461536,0.8269230769230769,0.21428571428571427,0.8571428571428571,0.0004
340,1.6342849135398865,1.5311903953552246,0.25,0.8269230769230769,0.21428571428571427,0.8571428571428571,0.0004
341,1.5351658463478088,1.4482512474060059,0.36538461538461536,0.8269230769230769,0.21428571428571427,0.8571428571428571,0.0004
342,1.5609266757965088,1.4989198446273804,0.40384615384615385,0.8269230769230769,0.21428571428571427,0.8571428571428571,0.0004
343,1.546467900276184,1.517040729522705,0.38461538461538464,0.8269230769230769,0.21428571428571427,0.8571428571428571,0.0004
344,1.5586788654327393,1.513166904449463,0.36538461538461536,0.8269230769230769,0.21428571428571427,0.8571428571428571,0.0004
345,1.5892435312271118,1.465712070465088,0.38461538461538464,0.8269230769230769,0.21428571428571427,0.8571428571428571,0.0004
346,1.5346766114234924,1.4651488065719604,0.36538461538461536,0.8269230769230769,0.2857142857142857,0.8571428571428571,0.0004
347,1.5547814965248108,1.522374153137207,0.34615384615384615,0.8269230769230769,0.2857142857142857,0.8571428571428571,0.0004
348,1.5680593848228455,1.5231075286865234,0.3076923076923077,0.8269230769230769,0.21428571428571427,0.8571428571428571,0.0004
349,1.5677539706230164,1.459739089012146,0.3076923076923077,0.8269230769230769,0.21428571428571427,0.8571428571428571,0.0004
350,1.5789648294448853,1.512636423110962,0.36538461538461536,0.8269230769230769,0.42857142857142855,0.8571428571428571,0.0004
351,1.494963824748993,1.5094623565673828,0.38461538461538464,0.8269230769230769,0.5,0.8571428571428571,0.0004
352,1.6319552659988403,1.5344092845916748,0.28846153846153844,0.8269230769230769,0.42857142857142855,0.8571428571428571,0.0004
353,1.543690025806427,1.3933299779891968,0.38461538461538464,0.8269230769230769,0.5,0.8571428571428571,0.0004
354,1.5261756777763367,1.5168687105178833,0.38461538461538464,0.8269230769230769,0.2857142857142857,0.8571428571428571,0.0004
355,1.5503857731819153,1.5176396369934082,0.40384615384615385,0.8269230769230769,0.35714285714285715,0.8571428571428571,0.0004
356,1.5910671949386597,1.5123385190963745,0.4230769230769231,0.8269230769230769,0.35714285714285715,0.8571428571428571,0.0004
357,1.4692396521568298,1.5147185325622559,0.46153846153846156,0.8269230769230769,0.2857142857142857,0.8571428571428571,0.0004
358,1.5711064338684082,1.484485149383545,0.4423076923076923,0.8269230769230769,0.2857142857142857,0.8571428571428571,0.0004
359,1.5049811601638794,1.5225613117218018,0.40384615384615385,0.8269230769230769,0.21428571428571427,0.8571428571428571,0.0004
360,1.5593408346176147,1.5265977382659912,0.38461538461538464,0.8269230769230769,0.2857142857142857,0.8571428571428571,0.0004
361,1.5801112055778503,1.4574731588363647,0.36538461538461536,0.8269230769230769,0.21428571428571427,0.8571428571428571,0.0004
362,1.5190824270248413,1.466468334197998,0.46153846153846156,0.8269230769230769,0.21428571428571427,0.8571428571428571,0.0004
363,1.4979815483093262,1.4648174047470093,0.38461538461538464,0.8269230769230769,0.21428571428571427,0.8571428571428571,0.0004
364,1.5098729729652405,1.4705885648727417,0.40384615384615385,0.8269230769230769,0.21428571428571427,0.8571428571428571,0.0004
365,1.5110740065574646,1.5148324966430664,0.40384615384615385,0.8269230769230769,0.21428571428571427,0.8571428571428571,0.0004
366,1.6066906452178955,1.5309027433395386,0.36538461538461536,0.8269230769230769,0.21428571428571427,0.8571428571428571,0.0004
367,1.557944655418396,1.5181492567062378,0.40384615384615385,0.8269230769230769,0.21428571428571427,0.8571428571428571,0.0004
368,1.5263936519622803,1.464816927909851,0.4230769230769231,0.8269230769230769,0.21428571428571427,0.8571428571428571,0.0004
369,1.5193965435028076,1.4659335613250732,0.36538461538461536,0.8269230769230769,0.2857142857142857,0.8571428571428571,0.0004
370,1.479641079902649,1.496520757675171,0.36538461538461536,0.8269230769230769,0.35714285714285715,0.8571428571428571,0.0004
371,1.5216618776321411,1.4930675029754639,0.25,0.8269230769230769,0.21428571428571427,0.8571428571428571,0.0004
372,1.5974323153495789,1.4579851627349854,0.3269230769230769,0.8269230769230769,0.14285714285714285,0.8571428571428571,0.0004
373,1.5378161072731018,1.4591732025146484,0.4423076923076923,0.8269230769230769,0.21428571428571427,0.8571428571428571,0.0004
374,1.5364116430282593,1.452818512916565,0.38461538461538464,0.8269230769230769,0.5,0.8571428571428571,0.0004
375,1.5167531371116638,1.5154279470443726,0.36538461538461536,0.8269230769230769,0.35714285714285715,0.8571428571428571,0.0004
376,1.5513346195220947,1.5187644958496094,0.34615384615384615,0.8269230769230769,0.42857142857142855,0.8571428571428571,0.0004
377,1.4770944714546204,1.5044041872024536,0.5192307692307693,0.8269230769230769,0.35714285714285715,0.8571428571428571,0.0004
378,1.5393242835998535,1.4472336769104004,0.34615384615384615,0.8269230769230769,0.42857142857142855,0.8571428571428571,0.0004
379,1.5735729336738586,1.4770801067352295,0.2692307692307692,0.8269230769230769,0.6428571428571429,0.8571428571428571,0.0004
380,1.4195101261138916,1.45952308177948,0.40384615384615385,0.8269230769230769,0.6428571428571429,0.8571428571428571,0.0004
381,1.4831565618515015,1.5064750909805298,0.46153846153846156,0.8269230769230769,0.42857142857142855,0.8571428571428571,0.0004
382,1.5413542985916138,1.4476956129074097,0.4230769230769231,0.8269230769230769,0.42857142857142855,0.8571428571428571,0.0004
383,1.4524577260017395,1.4666414260864258,0.38461538461538464,0.8269230769230769,0.42857142857142855,0.8571428571428571,0.0004
384,1.4611095786094666,1.4261868000030518,0.4230769230769231,0.8269230769230769,0.5,0.8571428571428571,0.0004
385,1.382756531238556,1.4034783840179443,0.5192307692307693,0.8269230769230769,0.7142857142857143,0.8571428571428571,0.0004
386,1.523550033569336,1.5208626985549927,0.34615384615384615,0.8269230769230769,0.42857142857142855,0.8571428571428571,0.0004
387,1.4606738686561584,1.5519511699676514,0.4423076923076923,0.8269230769230769,0.5,0.8571428571428571,0.0004
388,1.5029290914535522,1.3613638877868652,0.4230769230769231,0.8269230769230769,0.5,0.8571428571428571,0.0004
389,1.4750716090202332,1.4357632398605347,0.3269230769230769,0.8269230769230769,0.5,0.8571428571428571,0.0004
390,1.4561676383018494,1.4277372360229492,0.5,0.8269230769230769,0.5714285714285714,0.8571428571428571,0.0004
391,1.4644564986228943,1.5561423301696777,0.4807692307692308,0.8269230769230769,0.42857142857142855,0.8571428571428571,0.0004
392,1.5502748489379883,1.3549487590789795,0.36538461538461536,0.8269230769230769,0.5,0.8571428571428571,0.0004
393,1.4854417443275452,1.4329967498779297,0.4230769230769231,0.8269230769230769,0.5,0.8571428571428571,0.0004
394,1.3663747906684875,1.4807461500167847,0.4807692307692308,0.8269230769230769,0.5714285714285714,0.8571428571428571,0.0004
395,1.421464204788208,1.3437504768371582,0.46153846153846156,0.8269230769230769,0.6428571428571429,0.8571428571428571,0.0004
396,1.4660228490829468,1.627686619758606,0.4230769230769231,0.8269230769230769,0.42857142857142855,0.8571428571428571,0.0004
397,1.4923152327537537,1.486503005027771,0.36538461538461536,0.8269230769230769,0.5,0.8571428571428571,0.0004
398,1.4044646620750427,1.4198039770126343,0.46153846153846156,0.8269230769230769,0.5,0.8571428571428571,0.0004
399,1.5435829162597656,1.5194907188415527,0.38461538461538464,0.8269230769230769,0.35714285714285715,0.8571428571428571,0.0004
400,1.4744967222213745,1.5991345643997192,0.40384615384615385,0.8269230769230769,0.35714285714285715,0.8571428571428571,0.0004
401,1.437121868133545,1.341485619544983,0.5384615384615384,0.8269230769230769,0.5714285714285714,0.8571428571428571,0.0004
402,1.4329384565353394,1.4280481338500977,0.36538461538461536,0.8269230769230769,0.42857142857142855,0.8571428571428571,0.0004
403,1.4598841071128845,1.4198111295700073,0.5,0.8269230769230769,0.5714285714285714,0.8571428571428571,0.0004
404,1.4266855120658875,1.3434386253356934,0.4423076923076923,0.8269230769230769,0.5714285714285714,0.8571428571428571,0.0004
405,1.4299954175949097,1.5123319625854492,0.5576923076923077,0.8269230769230769,0.21428571428571427,0.8571428571428571,0.0004
406,1.5315431356430054,1.5103119611740112,0.36538461538461536,0.8269230769230769,0.2857142857142857,0.8571428571428571,0.0004
407,1.3953725695610046,1.3438321352005005,0.4230769230769231,0.8269230769230769,0.6428571428571429,0.8571428571428571,0.0004
408,1.4412834644317627,1.4110233783721924,0.4230769230769231,0.8269230769230769,0.5714285714285714,0.8571428571428571,0.0004
409,1.496901273727417,1.5690827369689941,0.38461538461538464,0.8269230769230769,0.5714285714285714,0.8571428571428571,0.0004
410,1.5149400234222412,1.4544074535369873,0.36538461538461536,0.8269230769230769,0.7142857142857143,0.8571428571428571,0.0004
411,1.4041871428489685,1.4694417715072632,0.5769230769230769,0.8269230769230769,0.42857142857142855,0.8571428571428571,0.0004
412,1.4684606790542603,1.4312283992767334,0.34615384615384615,0.8269230769230769,0.6428571428571429,0.8571428571428571,0.0004
413,1.4836185574531555,1.4292329549789429,0.4230769230769231,0.8269230769230769,0.7142857142857143,0.8571428571428571,0.0004
414,1.4854374527931213,1.596533179283142,0.3269230769230769,0.8269230769230769,0.5,0.8571428571428571,0.0004
415,1.4698098301887512,1.553615689277649,0.4807692307692308,0.8269230769230769,0.5714285714285714,0.8571428571428571,0.0004
416,1.5448498129844666,1.4008780717849731,0.40384615384615385,0.8269230769230769,0.5,0.8571428571428571,0.0004
417,1.3447902202606201,1.3739334344863892,0.6730769230769231,0.8269230769230769,0.5714285714285714,0.8571428571428571,0.0004
418,1.4544774889945984,1.5855870246887207,0.4423076923076923,0.8269230769230769,0.35714285714285715,0.8571428571428571,0.0004
419,1.465321660041809,1.372164249420166,0.40384615384615385,0.8269230769230769,0.35714285714285715,0.8571428571428571,0.0004
420,1.4217586517333984,1.439542531967163,0.36538461538461536,0.8269230769230769,0.35714285714285715,0.8571428571428571,0.0004
421,1.4783769249916077,1.427295207977295,0.4807692307692308,0.8269230769230769,0.35714285714285715,0.8571428571428571,0.0004
422,1.36066734790802,1.4308668375015259,0.5384615384615384,0.8269230769230769,0.5714285714285714,0.8571428571428571,0.0004
423,1.3594099879264832,1.3215090036392212,0.4807692307692308,0.8269230769230769,0.7142857142857143,0.8571428571428571,0.0004
424,1.4068549275398254,1.5170953273773193,0.5769230769230769,0.8269230769230769,0.5714285714285714,0.8571428571428571,0.0004
425,1.4148309826850891,1.4647293090820312,0.5961538461538461,0.8269230769230769,0.7142857142857143,0.8571428571428571,0.0004
426,1.5355550050735474,1.5001157522201538,0.4230769230769231,0.8269230769230769,0.6428571428571429,0.8571428571428571,0.0004
427,1.382644534111023,1.4569681882858276,0.5,0.8269230769230769,0.5714285714285714,0.8571428571428571,0.0004
428,1.4046128988265991,1.1937578916549683,0.5961538461538461,0.8269230769230769,0.6428571428571429,0.8571428571428571,0.0004
429,1.3763625025749207,1.3751845359802246,0.4423076923076923,0.8269230769230769,0.5714285714285714,0.8571428571428571,0.0004
430,1.5741794109344482,1.3806895017623901,0.5,0.8269230769230769,0.5714285714285714,0.8571428571428571,0.0004
431,1.3401930332183838,1.3568195104599,0.5192307692307693,0.8269230769230769,0.5714285714285714,0.8571428571428571,0.0004
432,1.498978853225708,1.4107177257537842,0.4807692307692308,0.8269230769230769,0.5714285714285714,0.8571428571428571,0.0004
433,1.420695960521698,1.4534895420074463,0.40384615384615385,0.8269230769230769,0.5,0.8571428571428571,0.0004
434,1.4206625819206238,1.5202422142028809,0.5,0.8269230769230769,0.42857142857142855,0.8571428571428571,0.0004
435,1.4645360708236694,1.2946498394012451,0.5384615384615384,0.8269230769230769,0.5714285714285714,0.8571428571428571,0.0004
436,1.4206242561340332,1.3301353454589844,0.5192307692307693,0.8269230769230769,0.5,0.8571428571428571,0.0004
437,1.4928988218307495,1.6233785152435303,0.4807692307692308,0.8269230769230769,0.5,0.8571428571428571,0.0004
438,1.4239037036895752,1.46138596534729,0.5384615384615384,0.8269230769230769,0.5,0.8571428571428571,0.0004
439,1.4208528995513916,1.2479702234268188,0.46153846153846156,0.8269230769230769,0.7142857142857143,0.8571428571428571,0.0004
440,1.2378572821617126,1.3050711154937744,0.5961538461538461,0.8269230769230769,0.6428571428571429,0.8571428571428571,0.0004
441,1.439900279045105,1.457930088043213,0.5384615384615384,0.8269230769230769,0.5714285714285714,0.8571428571428571,0.0004
442,1.3800343871116638,1.5656927824020386,0.5769230769230769,0.8269230769230769,0.5,0.8571428571428571,0.0004
443,1.426512360572815,1.4626986980438232,0.5,0.8269230769230769,0.5714285714285714,0.8571428571428571,0.0004
444,1.4287325143814087,1.274798035621643,0.5769230769230769,0.8269230769230769,0.6428571428571429,0.8571428571428571,0.0004
445,1.4614170789718628,1.429228663444519,0.5192307692307693,0.8269230769230769,0.6428571428571429,0.8571428571428571,0.0004
446,1.5124484300613403,1.2848454713821411,0.4230769230769231,0.8269230769230769,0.5714285714285714,0.8571428571428571,0.0004
447,1.5244377255439758,1.390817403793335,0.4423076923076923,0.8269230769230769,0.5,0.8571428571428571,0.0004
448,1.4989014863967896,1.5635565519332886,0.40384615384615385,0.8269230769230769,0.5,0.8571428571428571,0.0004
449,1.3557406067848206,1.4765245914459229,0.5192307692307693,0.8269230769230769,0.5,0.8571428571428571,0.0004
450,1.5004668235778809,1.6017804145812988,0.46153846153846156,0.8269230769230769,0.42857142857142855,0.8571428571428571,0.0004
451,1.4320432543754578,1.3782678842544556,0.4807692307692308,0.8269230769230769,0.5714285714285714,0.8571428571428571,0.0004
452,1.5329726338386536,1.522950530052185,0.46153846153846156,0.8269230769230769,0.42857142857142855,0.8571428571428571,0.0004
453,1.4397826194763184,1.2595465183258057,0.4807692307692308,0.8269230769230769,0.5714285714285714,0.8571428571428571,0.0004
454,1.3803492784500122,1.3502519130706787,0.4807692307692308,0.8269230769230769,0.5,0.8571428571428571,0.0004
455,1.2907634973526,1.3123576641082764,0.5384615384615384,0.8269230769230769,0.5714285714285714,0.8571428571428571,0.0004
456,1.5027798414230347,1.4253759384155273,0.4807692307692308,0.8269230769230769,0.5,0.8571428571428571,0.0004
457,1.3929277658462524,1.6123130321502686,0.5769230769230769,0.8269230769230769,0.35714285714285715,0.8571428571428571,0.0004
458,1.5721411108970642,1.4075863361358643,0.4230769230769231,0.8269230769230769,0.5714285714285714,0.8571428571428571,0.0004
459,1.3709170818328857,1.3794217109680176,0.5,0.8269230769230769,0.42857142857142855,0.8571428571428571,0.0004
460,1.3309187293052673,1.3740264177322388,0.5769230769230769,0.8269230769230769,0.5,0.8571428571428571,0.0004
461,1.3162622451782227,1.3728572130203247,0.5576923076923077,0.8269230769230769,0.5,0.8571428571428571,0.0004
462,1.419783353805542,1.3608996868133545,0.5769230769230769,0.8269230769230769,0.5,0.8571428571428571,0.0004
463,1.2838366031646729,1.310623288154602,0.5576923076923077,0.8269230769230769,0.5714285714285714,0.8571428571428571,0.0004
464,1.4230631589889526,1.5199384689331055,0.4423076923076923,0.8269230769230769,0.42857142857142855,0.8571428571428571,0.0004
465,1.451656699180603,1.331695318222046,0.4230769230769231,0.8269230769230769,0.6428571428571429,0.8571428571428571,0.0004
466,1.442309856414795,1.3278180360794067,0.4807692307692308,0.8269230769230769,0.5714285714285714,0.8571428571428571,0.0004
467,1.3817179799079895,1.5295298099517822,0.5961538461538461,0.8269230769230769,0.5714285714285714,0.8571428571428571,0.0004
468,1.3796441555023193,1.2958877086639404,0.5384615384615384,0.8269230769230769,0.5714285714285714,0.8571428571428571,0.0004
469,1.394066333770752,1.3753515481948853,0.5,0.8269230769230769,0.6428571428571429,0.8571428571428571,0.0004
470,1.451041042804718,1.4168438911437988,0.5,0.8269230769230769,0.5714285714285714,0.8571428571428571,0.0004
471,1.4164958000183105,1.2575883865356445,0.6346153846153846,0.8269230769230769,0.5714285714285714,0.8571428571428571,0.0004
472,1.5363189578056335,1.1429517269134521,0.4423076923076923,0.8269230769230769,0.6428571428571429,0.8571428571428571,0.0004
473,1.3376485109329224,1.3361307382583618,0.5384615384615384,0.8269230769230769,0.5714285714285714,0.8571428571428571,0.0004
474,1.4612658023834229,1.3417928218841553,0.4807692307692308,0.8269230769230769,0.5714285714285714,0.8571428571428571,0.0004
475,1.5143238306045532,1.3421400785446167,0.4807692307692308,0.8269230769230769,0.5714285714285714,0.8571428571428571,0.0004
476,1.4243194460868835,1.4052306413650513,0.4807692307692308,0.8269230769230769,0.5,0.8571428571428571,0.0004
477,1.5388453602790833,1.5140501260757446,0.4423076923076923,0.8269230769230769,0.35714285714285715,0.8571428571428571,0.0004
478,1.3957726955413818,1.3008509874343872,0.5576923076923077,0.8269230769230769,0.5714285714285714,0.8571428571428571,0.0004
479,1.3409208059310913,1.2911087274551392,0.5384615384615384,0.8269230769230769,0.7142857142857143,0.8571428571428571,0.0004
480,1.2910131216049194,1.2103420495986938,0.5769230769230769,0.8269230769230769,0.7857142857142857,0.8571428571428571,0.0004
481,1.4337372183799744,1.2524592876434326,0.5,0.8269230769230769,0.7142857142857143,0.8571428571428571,0.0004
482,1.3614193201065063,1.2891082763671875,0.6153846153846154,0.8269230769230769,0.7857142857142857,0.8571428571428571,0.0004
483,1.5318657159805298,1.5390647649765015,0.4807692307692308,0.8269230769230769,0.6428571428571429,0.8571428571428571,0.0004
484,1.3485506176948547,1.4693307876586914,0.5769230769230769,0.8269230769230769,0.5714285714285714,0.8571428571428571,0.0004
485,1.4308777451515198,1.3153775930404663,0.46153846153846156,0.8269230769230769,0.5714285714285714,0.8571428571428571,0.0004
486,1.4176117777824402,1.3835746049880981,0.5,0.8269230769230769,0.5,0.8571428571428571,0.0004
487,1.4463662505149841,1.4125137329101562,0.46153846153846156,0.8269230769230769,0.5,0.8571428571428571,0.0004
488,1.5983043313026428,1.3349075317382812,0.36538461538461536,0.8269230769230769,0.5714285714285714,0.8571428571428571,0.0004
489,1.6139732599258423,1.3715263605117798,0.38461538461538464,0.8269230769230769,0.5,0.8571428571428571,0.0004
490,1.6406031250953674,1.5276013612747192,0.36538461538461536,0.8269230769230769,0.42857142857142855,0.8571428571428571,0.0004
491,1.517138421535492,1.414476990699768,0.40384615384615385,0.8269230769230769,0.5,0.8571428571428571,0.0004
492,1.4492377638816833,1.413801670074463,0.4230769230769231,0.8269230769230769,0.5,0.8571428571428571,0.0004
493,1.4185433983802795,1.4141141176223755,0.46153846153846156,0.8269230769230769,0.5,0.8571428571428571,0.0004
494,1.4037959575653076,1.5499976873397827,0.4807692307692308,0.8269230769230769,0.42857142857142855,0.8571428571428571,0.0004
495,1.4597331881523132,1.324977159500122,0.5384615384615384,0.8269230769230769,0.5714285714285714,0.8571428571428571,0.0004
496,1.4108107686042786,1.3318564891815186,0.5576923076923077,0.8269230769230769,0.6428571428571429,0.8571428571428571,0.0004
497,1.4975401759147644,1.6232945919036865,0.46153846153846156,0.8269230769230769,0.42857142857142855,0.8571428571428571,0.0004
498,1.421813726425171,1.5033199787139893,0.5384615384615384,0.8269230769230769,0.5,0.8571428571428571,0.0004
499,1.4779670238494873,1.3021631240844727,0.4423076923076923,0.8269230769230769,0.5714285714285714,0.8571428571428571,0.0004
500,1.51055109500885,1.4105055332183838,0.38461538461538464,0.8269230769230769,0.5,0.8571428571428571,0.0004
501,1.4814059138298035,1.3826959133148193,0.4230769230769231,0.8269230769230769,0.5,0.8571428571428571,0.0004
502,1.4317089319229126,1.5158300399780273,0.4807692307692308,0.8269230769230769,0.5,0.8571428571428571,0.0004
503,1.5161912441253662,1.4742767810821533,0.4423076923076923,0.8269230769230769,0.42857142857142855,0.8571428571428571,0.0004
504,1.4036067128181458,1.4210916757583618,0.4230769230769231,0.8269230769230769,0.5,0.8571428571428571,0.0004
505,1.4617722034454346,1.476254940032959,0.40384615384615385,0.8269230769230769,0.42857142857142855,0.8571428571428571,0.0004
506,1.4100260734558105,1.3995798826217651,0.4807692307692308,0.8269230769230769,0.5,0.8571428571428571,0.0004
507,1.5172688961029053,1.4345176219940186,0.28846153846153844,0.8269230769230769,0.5,0.8571428571428571,0.0004
508,1.404118299484253,1.403449296951294,0.5,0.8269230769230769,0.5,0.8571428571428571,0.0004
509,1.4718220233917236,1.4113795757293701,0.36538461538461536,0.8269230769230769,0.5,0.8571428571428571,0.0004
510,1.439778447151184,1.5022014379501343,0.34615384615384615,0.8269230769230769,0.5,0.8571428571428571,0.0004
511,1.4439326524734497,1.325166940689087,0.4423076923076923,0.8269230769230769,0.5,0.8571428571428571,0.0004
512,1.372049629688263,1.3268051147460938,0.5576923076923077,0.8269230769230769,0.5714285714285714,0.8571428571428571,0.0004
513,1.5280598998069763,1.5065187215805054,0.36538461538461536,0.8269230769230769,0.42857142857142855,0.8571428571428571,0.0004
514,1.4533047676086426,1.3914244174957275,0.36538461538461536,0.8269230769230769,0.6428571428571429,0.8571428571428571,0.0004
515,1.4276493191719055,1.4627103805541992,0.40384615384615385,0.8269230769230769,0.6428571428571429,0.8571428571428571,0.0004
516,1.4658017754554749,1.399687647819519,0.40384615384615385,0.8269230769230769,0.5714285714285714,0.8571428571428571,0.0004
517,1.3969231843948364,1.4987561702728271,0.46153846153846156,0.8269230769230769,0.5,0.8571428571428571,0.0004
518,1.4038052558898926,1.4585340023040771,0.36538461538461536,0.8269230769230769,0.42857142857142855,0.8571428571428571,0.0004
519,1.415175437927246,1.4127180576324463,0.5961538461538461,0.8269230769230769,0.5,0.8571428571428571,0.0004
520,1.3892874717712402,1.4389286041259766,0.5192307692307693,0.8269230769230769,0.35714285714285715,0.8571428571428571,0.0004
521,1.2953643798828125,1.5990958213806152,0.6153846153846154,0.8269230769230769,0.5714285714285714,0.8571428571428571,0.0004
522,1.3156165480613708,1.3804521560668945,0.5192307692307693,0.8269230769230769,0.42857142857142855,0.8571428571428571,0.0004
523,1.4413344860076904,1.43776535987854,0.4423076923076923,0.8269230769230769,0.42857142857142855,0.8571428571428571,0.0004
524,1.456108808517456,1.4581890106201172,0.36538461538461536,0.8269230769230769,0.42857142857142855,0.8571428571428571,0.0004
525,1.447072684764862,1.422012448310852,0.4807692307692308,0.8269230769230769,0.5,0.8571428571428571,0.0004
526,1.4141659140586853,1.3521512746810913,0.4230769230769231,0.8269230769230769,0.5714285714285714,0.8571428571428571,0.0004
527,1.429438292980194,1.3818135261535645,0.36538461538461536,0.8269230769230769,0.5,0.8571428571428571,0.0004
528,1.5400692224502563,1.4456472396850586,0.40384615384615385,0.8269230769230769,0.42857142857142855,0.8571428571428571,0.0004
529,1.4790189862251282,1.4391367435455322,0.3269230769230769,0.8269230769230769,0.42857142857142855,0.8571428571428571,0.0004
530,1.3984555006027222,1.4764140844345093,0.40384615384615385,0.8269230769230769,0.35714285714285715,0.8571428571428571,0.0004
531,1.354096233844757,1.3103960752487183,0.4230769230769231,0.8269230769230769,0.5714285714285714,0.8571428571428571,0.0004
532,1.3722137808799744,1.5069084167480469,0.5192307692307693,0.8269230769230769,0.5714285714285714,0.8571428571428571,0.0004
533,1.2896307110786438,1.534717321395874,0.5,0.8269230769230769,0.42857142857142855,0.8571428571428571,0.0004
534,1.3143859505653381,1.4568829536437988,0.5769230769230769,0.8269230769230769,0.35714285714285715,0.8571428571428571,0.0004
535,1.3863713145256042,1.4193227291107178,0.4807692307692308,0.8269230769230769,0.42857142857142855,0.8571428571428571,0.0004
536,1.3807796239852905,1.3869407176971436,0.5,0.8269230769230769,0.5714285714285714,0.8571428571428571,0.0004
537,1.3424113392829895,1.184436321258545,0.5192307692307693,0.8269230769230769,0.7142857142857143,0.8571428571428571,0.0004
538,1.5343958735466003,1.6257930994033813,0.4230769230769231,0.8269230769230769,0.35714285714285715,0.8571428571428571,0.0004
539,1.3303701281547546,1.2538526058197021,0.5192307692307693,0.8269230769230769,0.5,0.8571428571428571,0.0004
540,1.3681626915931702,1.7011113166809082,0.5192307692307693,0.8269230769230769,0.35714285714285715,0.8571428571428571,0.0004
541,1.5294923186302185,1.6136915683746338,0.4423076923076923,0.8269230769230769,0.35714285714285715,0.8571428571428571,0.0004
542,1.4577438831329346,1.4252766370773315,0.4807692307692308,0.8269230769230769,0.5,0.8571428571428571,0.0004
543,1.288302481174469,1.5543134212493896,0.5,0.8269230769230769,0.5714285714285714,0.8571428571428571,0.0004
544,1.3072402477264404,1.4191453456878662,0.5192307692307693,0.8269230769230769,0.5,0.8571428571428571,0.0004
545,1.4041401147842407,1.521615982055664,0.4423076923076923,0.8269230769230769,0.5,0.8571428571428571,0.0004
546,1.5405680537223816,1.4726111888885498,0.4423076923076923,0.8269230769230769,0.5,0.8571428571428571,0.0004
547,1.4876724481582642,1.6951007843017578,0.4807692307692308,0.8269230769230769,0.42857142857142855,0.8571428571428571,0.0004
548,1.4549817442893982,1.4931035041809082,0.5,0.8269230769230769,0.42857142857142855,0.8571428571428571,0.0004
549,1.2762331366539001,1.6274511814117432,0.5,0.8269230769230769,0.5714285714285714,0.8571428571428571,0.0004
550,1.3884822726249695,1.4501698017120361,0.4230769230769231,0.8269230769230769,0.5,0.8571428571428571,0.0004
551,1.452751636505127,1.4478884935379028,0.4423076923076923,0.8076923076923077,0.6428571428571429,0.8571428571428571,0.0004
552,1.4283403158187866,1.4778380393981934,0.4807692307692308,0.8269230769230769,0.42857142857142855,0.8571428571428571,0.0004
553,1.479684829711914,1.533684492111206,0.4807692307692308,0.8076923076923077,0.5,0.8571428571428571,0.0004
554,1.3350719213485718,1.5238590240478516,0.5769230769230769,0.8269230769230769,0.42857142857142855,0.8571428571428571,0.0004
555,1.4212823510169983,1.425674319267273,0.4807692307692308,0.8269230769230769,0.42857142857142855,0.8571428571428571,0.0004
556,1.4268496632575989,1.2640836238861084,0.5,0.8269230769230769,0.5,0.8571428571428571,0.0004
557,1.3083766102790833,1.544834017753601,0.6153846153846154,0.8269230769230769,0.35714285714285715,0.8571428571428571,0.0004
558,1.3124994039535522,1.4516725540161133,0.5,0.8269230769230769,0.42857142857142855,0.8571428571428571,0.0004
559,1.3274551033973694,1.3996968269348145,0.4807692307692308,0.8269230769230769,0.5,0.8571428571428571,0.0004
560,1.4810029864311218,1.7015540599822998,0.4230769230769231,0.8269230769230769,0.21428571428571427,0.8571428571428571,0.0004
561,1.4989997148513794,1.5125662088394165,0.38461538461538464,0.8269230769230769,0.42857142857142855,0.8571428571428571,0.0004
562,1.264522910118103,1.4617762565612793,0.5576923076923077,0.8269230769230769,0.2857142857142857,0.8571428571428571,0.0004
563,1.3306819796562195,1.384293556213379,0.5,0.8269230769230769,0.42857142857142855,0.8571428571428571,0.0004
564,1.2466681599617004,1.4954715967178345,0.6153846153846154,0.8269230769230769,0.35714285714285715,0.8571428571428571,0.0004
565,1.4148292541503906,1.4754337072372437,0.5,0.8461538461538461,0.35714285714285715,0.8571428571428571,0.0004
566,1.3186751008033752,1.5185201168060303,0.6153846153846154,0.8269230769230769,0.5,0.8571428571428571,0.0004
567,1.286141276359558,1.4672882556915283,0.5961538461538461,0.8076923076923077,0.5714285714285714,0.8571428571428571,0.0004
568,1.2584561705589294,1.447650671005249,0.6346153846153846,0.8269230769230769,0.5,0.8571428571428571,0.0004
569,1.340760052204132,1.5629963874816895,0.46153846153846156,0.8461538461538461,0.2857142857142857,0.8571428571428571,0.0004
570,1.2932270169258118,1.6644357442855835,0.5961538461538461,0.8076923076923077,0.42857142857142855,0.8571428571428571,0.0004
571,1.2352052330970764,1.3262691497802734,0.5961538461538461,0.7884615384615384,0.5,0.8571428571428571,0.0004
572,1.1553093791007996,1.6371464729309082,0.6923076923076923,0.8076923076923077,0.5,0.8571428571428571,0.0004
573,1.2867788672447205,1.6328917741775513,0.5,0.8461538461538461,0.6428571428571429,0.8571428571428571,0.0004
574,1.2956225275993347,1.3184738159179688,0.5576923076923077,0.7884615384615384,0.5714285714285714,0.8571428571428571,0.0004
575,1.4163106083869934,1.6531202793121338,0.4807692307692308,0.8461538461538461,0.5714285714285714,0.8571428571428571,0.0004
576,1.423969805240631,1.6845544576644897,0.5,0.8269230769230769,0.42857142857142855,0.8571428571428571,0.0004
577,1.381832480430603,1.3732143640518188,0.5384615384615384,0.7884615384615384,0.5714285714285714,0.8571428571428571,0.0004
578,1.3081172108650208,1.3892443180084229,0.5192307692307693,0.7884615384615384,0.5,0.9285714285714286,0.0004
579,1.2534989714622498,1.234713077545166,0.4807692307692308,0.8076923076923077,0.6428571428571429,0.8571428571428571,0.0004
580,1.1161903142929077,1.2830530405044556,0.6153846153846154,0.8653846153846154,0.6428571428571429,0.7857142857142857,0.0004
581,1.2308154106140137,1.653687834739685,0.6346153846153846,0.8846153846153846,0.5714285714285714,0.7142857142857143,0.0004
582,1.3889866471290588,1.4292117357254028,0.5,0.7884615384615384,0.5,0.8571428571428571,0.0004
583,1.237729549407959,1.571568250656128,0.6538461538461539,0.8653846153846154,0.5714285714285714,0.8571428571428571,0.0004
584,1.4662048816680908,1.5841195583343506,0.5192307692307693,0.8076923076923077,0.5714285714285714,0.8571428571428571,0.0004
585,1.8463645577430725,1.724871039390564,0.38461538461538464,0.8269230769230769,0.42857142857142855,0.8571428571428571,0.0004
586,1.745776891708374,1.7046973705291748,0.46153846153846156,0.8269230769230769,0.42857142857142855,0.8571428571428571,0.0004
587,1.6562040448188782,1.6446497440338135,0.36538461538461536,0.8269230769230769,0.5,0.8571428571428571,0.0004
588,1.7793872356414795,1.6963306665420532,0.3269230769230769,0.8269230769230769,0.42857142857142855,0.8571428571428571,0.0004
589,1.8898128867149353,1.6713899374008179,0.34615384615384615,0.8269230769230769,0.42857142857142855,0.8571428571428571,0.0004
590,1.7418333888053894,1.6483818292617798,0.34615384615384615,0.8269230769230769,0.42857142857142855,0.8571428571428571,0.0004
591,1.6335211396217346,1.5830864906311035,0.40384615384615385,0.8269230769230769,0.5,0.8571428571428571,0.0004
592,1.726393222808838,1.6007370948791504,0.36538461538461536,0.8269230769230769,0.42857142857142855,0.8571428571428571,0.0004
593,1.7827996611595154,1.5248547792434692,0.38461538461538464,0.8269230769230769,0.5,0.8571428571428571,0.0004
594,1.6973480582237244,1.5104069709777832,0.2692307692307692,0.8269230769230769,0.21428571428571427,0.8571428571428571,0.0004
595,1.6035155057907104,1.549107551574707,0.36538461538461536,0.8269230769230769,0.14285714285714285,0.8571428571428571,0.0004
596,1.5897079706192017,1.526686668395996,0.28846153846153844,0.8269230769230769,0.2857142857142857,0.8571428571428571,0.0004
597,1.6630812883377075,1.5158970355987549,0.3076923076923077,0.8269230769230769,0.21428571428571427,0.8571428571428571,0.0004
598,1.5586403608322144,1.4984793663024902,0.4423076923076923,0.8269230769230769,0.21428571428571427,0.8571428571428571,0.0004
599,1.54542875289917,1.6019901037216187,0.4230769230769231,0.8269230769230769,0.21428571428571427,0.8571428571428571,0.0004
600,1.5133455991744995,1.552177906036377,0.38461538461538464,0.8269230769230769,0.21428571428571427,0.8571428571428571,0.0004
601,1.5207664966583252,1.5725980997085571,0.34615384615384615,0.8269230769230769,0.21428571428571427,0.8571428571428571,0.0004
602,1.5183969140052795,1.5514720678329468,0.3269230769230769,0.8269230769230769,0.21428571428571427,0.8571428571428571,0.0004
603,1.5134387612342834,1.582073450088501,0.36538461538461536,0.8269230769230769,0.21428571428571427,0.8571428571428571,0.0004
604,1.6223151683807373,1.5839987993240356,0.3076923076923077,0.8269230769230769,0.2857142857142857,0.8571428571428571,0.0004
605,1.5881170630455017,1.591245174407959,0.36538461538461536,0.8269230769230769,0.35714285714285715,0.8571428571428571,0.0004
606,1.5579646825790405,1.7052662372589111,0.46153846153846156,0.8269230769230769,0.2857142857142857,0.8571428571428571,0.0004
607,1.5925761461257935,1.5368659496307373,0.36538461538461536,0.8269230769230769,0.35714285714285715,0.8571428571428571,0.0004
608,1.5886437892913818,1.587126612663269,0.3076923076923077,0.8269230769230769,0.35714285714285715,0.8571428571428571,0.0004
609,1.5875467658042908,1.6055772304534912,0.34615384615384615,0.8269230769230769,0.35714285714285715,0.8571428571428571,0.0004
610,1.6047635078430176,1.5223510265350342,0.38461538461538464,0.8269230769230769,0.42857142857142855,0.8571428571428571,0.0004
611,1.581939935684204,1.5155068635940552,0.3269230769230769,0.8269230769230769,0.42857142857142855,0.8571428571428571,0.0004
612,1.5473434329032898,1.5767912864685059,0.38461538461538464,0.8269230769230769,0.35714285714285715,0.8571428571428571,0.0004
613,1.5687898397445679,1.494943380355835,0.38461538461538464,0.8269230769230769,0.42857142857142855,0.8571428571428571,0.0004
614,1.57699316740036,1.48796808719635,0.3076923076923077,0.8269230769230769,0.42857142857142855,0.8571428571428571,0.0004
615,1.6283148527145386,1.5521571636199951,0.40384615384615385,0.8269230769230769,0.35714285714285715,0.8571428571428571,0.0004
616,1.572426438331604,1.5426034927368164,0.38461538461538464,0.8269230769230769,0.35714285714285715,0.8571428571428571,0.0004
617,1.4902515411376953,1.6251366138458252,0.4230769230769231,0.8269230769230769,0.2857142857142857,0.8571428571428571,0.0004
618,1.5588780045509338,1.521681308746338,0.38461538461538464,0.8269230769230769,0.35714285714285715,0.8571428571428571,0.0004
619,1.5821439027786255,1.6064319610595703,0.36538461538461536,0.8269230769230769,0.2857142857142857,0.8571428571428571,0.0004
620,1.537295162677765,1.5239245891571045,0.36538461538461536,0.8269230769230769,0.35714285714285715,0.8571428571428571,0.0004
621,1.5399699807167053,1.4554402828216553,0.38461538461538464,0.8269230769230769,0.42857142857142855,0.8571428571428571,0.0004
622,1.4873612523078918,1.5097060203552246,0.36538461538461536,0.8269230769230769,0.35714285714285715,0.8571428571428571,0.0004
623,1.6060426831245422,1.516781210899353,0.36538461538461536,0.8269230769230769,0.35714285714285715,0.8571428571428571,0.0004
624,1.5628572702407837,1.5035400390625,0.36538461538461536,0.8269230769230769,0.35714285714285715,0.8571428571428571,0.0004
625,1.6147705912590027,1.5105974674224854,0.28846153846153844,0.8269230769230769,0.35714285714285715,0.8571428571428571,0.0004
626,1.50601065158844,1.4994643926620483,0.4230769230769231,0.8269230769230769,0.35714285714285715,0.8571428571428571,0.0004
627,1.5426356792449951,1.5038341283798218,0.4423076923076923,0.8269230769230769,0.35714285714285715,0.8571428571428571,0.0004
628,1.5005334615707397,1.4328532218933105,0.36538461538461536,0.8269230769230769,0.42857142857142855,0.8571428571428571,0.0004
629,1.5524460673332214,1.4346386194229126,0.36538461538461536,0.8269230769230769,0.42857142857142855,0.8571428571428571,0.0004
630,1.5444128513336182,1.4966562986373901,0.2692307692307692,0.8269230769230769,0.35714285714285715,0.8571428571428571,0.0004
631,1.5019757151603699,1.5288310050964355,0.4230769230769231,0.8269230769230769,0.2857142857142857,0.8571428571428571,0.0004
632,1.5314104557037354,1.5163029432296753,0.46153846153846156,0.8269230769230769,0.35714285714285715,0.8571428571428571,0.0004
633,1.5130656957626343,1.5662354230880737,0.38461538461538464,0.8269230769230769,0.2857142857142857,0.8571428571428571,0.0004
634,1.5849739909172058,1.4998130798339844,0.2692307692307692,0.8269230769230769,0.42857142857142855,0.8571428571428571,0.0004
635,1.5420145392417908,1.5066908597946167,0.2692307692307692,0.8269230769230769,0.35714285714285715,0.8571428571428571,0.0004
636,1.5146024227142334,1.502394676208496,0.38461538461538464,0.8269230769230769,0.35714285714285715,0.8571428571428571,0.0004
637,1.4633066058158875,1.4635992050170898,0.36538461538461536,0.8269230769230769,0.42857142857142855,0.8571428571428571,0.0004
638,1.5229116678237915,1.5039952993392944,0.4423076923076923,0.8269230769230769,0.42857142857142855,0.8571428571428571,0.0004
639,1.5251704454421997,1.4987379312515259,0.38461538461538464,0.8269230769230769,0.35714285714285715,0.8571428571428571,0.0004
640,1.610992193222046,1.5064787864685059,0.3269230769230769,0.8269230769230769,0.35714285714285715,0.8571428571428571,0.0004
641,1.5383678674697876,1.4389417171478271,0.36538461538461536,0.8269230769230769,0.5,0.8571428571428571,0.0004
642,1.4977121949195862,1.4403669834136963,0.5,0.8269230769230769,0.5,0.8571428571428571,0.0004
643,1.5572818517684937,1.5135059356689453,0.36538461538461536,0.8269230769230769,0.35714285714285715,0.8571428571428571,0.0004
644,1.5527183413505554,1.43988835811615,0.34615384615384615,0.8269230769230769,0.5,0.8571428571428571,0.0004
645,1.528075098991394,1.4519844055175781,0.4423076923076923,0.8269230769230769,0.2857142857142857,0.8571428571428571,0.0004
646,1.4609110951423645,1.4998760223388672,0.34615384615384615,0.8269230769230769,0.7142857142857143,0.8571428571428571,0.0004
647,1.4767595529556274,1.5108318328857422,0.3269230769230769,0.8269230769230769,0.5,0.8571428571428571,0.0004
648,1.5224764347076416,1.5132123231887817,0.3269230769230769,0.8269230769230769,0.5,0.8571428571428571,0.0004
649,1.6303102374076843,1.474656581878662,0.36538461538461536,0.8269230769230769,0.42857142857142855,0.8571428571428571,0.0004
650,1.5118366479873657,1.6131000518798828,0.4230769230769231,0.8269230769230769,0.2857142857142857,0.8571428571428571,0.0004
651,1.5264058113098145,1.5178914070129395,0.40384615384615385,0.8269230769230769,0.42857142857142855,0.8571428571428571,0.0004
652,1.475856900215149,1.5163567066192627,0.5,0.8269230769230769,0.42857142857142855,0.8571428571428571,0.0004
653,1.4748040437698364,1.5148749351501465,0.4230769230769231,0.8269230769230769,0.42857142857142855,0.8571428571428571,0.0004
654,1.6442538499832153,1.4698729515075684,0.4230769230769231,0.8269230769230769,0.5,0.8571428571428571,0.0004
655,1.523646593093872,1.5138287544250488,0.40384615384615385,0.8269230769230769,0.5714285714285714,0.8571428571428571,0.0004
656,1.4927345514297485,1.4397929906845093,0.38461538461538464,0.8269230769230769,0.6428571428571429,0.8571428571428571,0.0004
657,1.5530343651771545,1.5313472747802734,0.40384615384615385,0.8269230769230769,0.42857142857142855,0.8571428571428571,0.0004
658,1.5155497789382935,1.5260964632034302,0.36538461538461536,0.8269230769230769,0.2857142857142857,0.8571428571428571,0.0004
659,1.5030276775360107,1.517579197883606,0.4230769230769231,0.8269230769230769,0.5,0.8571428571428571,0.0004
660,1.5169389247894287,1.5120322704315186,0.3269230769230769,0.8269230769230769,0.5,0.8571428571428571,0.0004
661,1.519322156906128,1.4487528800964355,0.3269230769230769,0.8269230769230769,0.35714285714285715,0.8571428571428571,0.0004
662,1.4911958575248718,1.5190019607543945,0.4807692307692308,0.8269230769230769,0.2857142857142857,0.8571428571428571,0.0004
663,1.5410908460617065,1.4393281936645508,0.38461538461538464,0.8269230769230769,0.42857142857142855,0.8571428571428571,0.0004
664,1.4364822506904602,1.5149338245391846,0.5192307692307693,0.8269230769230769,0.5,0.8571428571428571,0.0004
665,1.5350044965744019,1.6296030282974243,0.46153846153846156,0.8269230769230769,0.42857142857142855,0.8571428571428571,0.0004
666,1.5106132626533508,1.4765625,0.40384615384615385,0.8269230769230769,0.35714285714285715,0.8571428571428571,0.0004
667,1.516654372215271,1.539636492729187,0.5769230769230769,0.8269230769230769,0.35714285714285715,0.8571428571428571,0.0004
668,1.4432601928710938,1.5137804746627808,0.34615384615384615,0.8269230769230769,0.35714285714285715,0.8571428571428571,0.0004
669,1.5484110116958618,1.437209129333496,0.3269230769230769,0.8269230769230769,0.42857142857142855,0.8571428571428571,0.0004
670,1.552023470401764,1.4332016706466675,0.38461538461538464,0.8269230769230769,0.42857142857142855,0.8571428571428571,0.0004
671,1.5048253536224365,1.4432594776153564,0.4423076923076923,0.8269230769230769,0.42857142857142855,0.8571428571428571,0.0004
672,1.4397637844085693,1.5118663311004639,0.40384615384615385,0.8269230769230769,0.35714285714285715,0.8571428571428571,0.0004
673,1.504368245601654,1.4384832382202148,0.36538461538461536,0.8269230769230769,0.42857142857142855,0.8571428571428571,0.0004
674,1.5417460799217224,1.4939454793930054,0.28846153846153844,0.8269230769230769,0.5,0.8571428571428571,0.0004
675,1.5289369225502014,1.5141913890838623,0.40384615384615385,0.8269230769230769,0.35714285714285715,0.8571428571428571,0.0004
676,1.5277733206748962,1.509904384613037,0.3269230769230769,0.8269230769230769,0.35714285714285715,0.8571428571428571,0.0004
677,1.5985490083694458,1.4401944875717163,0.4230769230769231,0.8269230769230769,0.42857142857142855,0.8571428571428571,0.0004
678,1.4801486730575562,1.4960527420043945,0.4423076923076923,0.8269230769230769,0.5,0.8571428571428571,0.0004
679,1.5973927974700928,1.4633809328079224,0.2692307692307692,0.8269230769230769,0.5714285714285714,0.8571428571428571,0.0004
680,1.5221666097640991,1.5396069288253784,0.36538461538461536,0.8269230769230769,0.5,0.8571428571428571,0.0004
681,1.5939237475395203,1.4225425720214844,0.38461538461538464,0.8269230769230769,0.5,0.8571428571428571,0.0004
682,1.5141807198524475,1.5022192001342773,0.40384615384615385,0.8269230769230769,0.5,0.8571428571428571,0.0004
683,1.5074291229248047,1.54742431640625,0.3076923076923077,0.8269230769230769,0.35714285714285715,0.8571428571428571,0.0004
684,1.4529120922088623,1.4348118305206299,0.46153846153846156,0.8269230769230769,0.5,0.8571428571428571,0.0004
685,1.5193037390708923,1.4406733512878418,0.4423076923076923,0.8269230769230769,0.5,0.8571428571428571,0.0004
686,1.4681390523910522,1.5084315538406372,0.4423076923076923,0.8269230769230769,0.42857142857142855,0.8571428571428571,0.0004
687,1.5871651768684387,1.4308472871780396,0.38461538461538464,0.8269230769230769,0.5714285714285714,0.8571428571428571,0.0004
688,1.5452443957328796,1.5123867988586426,0.34615384615384615,0.8269230769230769,0.35714285714285715,0.8571428571428571,0.0004
689,1.4593904614448547,1.49341881275177,0.4230769230769231,0.8269230769230769,0.5,0.8571428571428571,0.0004
690,1.548363447189331,1.3681594133377075,0.28846153846153844,0.8269230769230769,0.5714285714285714,0.8571428571428571,0.0004
691,1.506410539150238,1.4383589029312134,0.36538461538461536,0.8269230769230769,0.42857142857142855,0.8571428571428571,0.0004
692,1.4955825805664062,1.5112907886505127,0.3076923076923077,0.8269230769230769,0.42857142857142855,0.8571428571428571,0.0004
693,1.5770934224128723,1.4521329402923584,0.36538461538461536,0.8269230769230769,0.42857142857142855,0.8571428571428571,0.0004
694,1.5254380106925964,1.5101213455200195,0.36538461538461536,0.8269230769230769,0.42857142857142855,0.8571428571428571,0.0004
695,1.5381091237068176,1.643219232559204,0.4423076923076923,0.8269230769230769,0.35714285714285715,0.8571428571428571,0.0004
696,1.473785161972046,1.4951180219650269,0.4230769230769231,0.8269230769230769,0.35714285714285715,0.8571428571428571,0.0004
697,1.5386351943016052,1.5041873455047607,0.38461538461538464,0.8269230769230769,0.35714285714285715,0.8571428571428571,0.0004
698,1.4738277792930603,1.503859519958496,0.4230769230769231,0.8269230769230769,0.5,0.8571428571428571,0.0004
699,1.4786916971206665,1.507209062576294,0.38461538461538464,0.8269230769230769,0.42857142857142855,0.8571428571428571,0.0004
700,1.5321799516677856,1.5338292121887207,0.46153846153846156,0.8269230769230769,0.35714285714285715,0.8571428571428571,0.0004
701,1.5161808729171753,1.5468735694885254,0.46153846153846156,0.8269230769230769,0.35714285714285715,0.8571428571428571,0.0004
702,1.5264987349510193,1.668692946434021,0.36538461538461536,0.8269230769230769,0.35714285714285715,0.8571428571428571,0.0004
703,1.4888391494750977,1.4993493556976318,0.38461538461538464,0.8269230769230769,0.21428571428571427,0.8571428571428571,0.0004
704,1.5704811215400696,1.5200023651123047,0.40384615384615385,0.8269230769230769,0.21428571428571427,0.8571428571428571,0.0004
705,1.4822542667388916,1.6185535192489624,0.38461538461538464,0.8269230769230769,0.21428571428571427,0.8571428571428571,0.0004
706,1.5097621083259583,1.4951850175857544,0.34615384615384615,0.8269230769230769,0.35714285714285715,0.8571428571428571,0.0004
707,1.5385130047798157,1.5206828117370605,0.36538461538461536,0.8269230769230769,0.21428571428571427,0.8571428571428571,0.0004
708,1.4619084596633911,1.4558351039886475,0.36538461538461536,0.8269230769230769,0.21428571428571427,0.8571428571428571,0.0004
709,1.5361332893371582,1.5239455699920654,0.38461538461538464,0.8269230769230769,0.21428571428571427,0.8571428571428571,0.0004
710,1.6399973630905151,1.5123426914215088,0.3269230769230769,0.8269230769230769,0.21428571428571427,0.8571428571428571,0.0004
711,1.4508716464042664,1.5083606243133545,0.36538461538461536,0.8269230769230769,0.2857142857142857,0.8571428571428571,0.0004
712,1.5499483942985535,1.518614411354065,0.25,0.8269230769230769,0.21428571428571427,0.8571428571428571,0.0004
713,1.5113041996955872,1.5217115879058838,0.34615384615384615,0.8269230769230769,0.42857142857142855,0.8571428571428571,0.0004
714,1.5181536674499512,1.536451816558838,0.46153846153846156,0.8269230769230769,0.5,0.8571428571428571,0.0004
715,1.5028699040412903,1.5065515041351318,0.38461538461538464,0.8269230769230769,0.42857142857142855,0.8571428571428571,0.0004
716,1.7080256938934326,1.505237340927124,0.2692307692307692,0.8269230769230769,0.42857142857142855,0.8571428571428571,0.0004
717,1.5450324416160583,1.4974334239959717,0.46153846153846156,0.8269230769230769,0.42857142857142855,0.8571428571428571,0.0004
718,1.5265961289405823,1.4430593252182007,0.38461538461538464,0.8269230769230769,0.5,0.8571428571428571,0.0004
719,1.5956270098686218,1.5099704265594482,0.4230769230769231,0.8269230769230769,0.42857142857142855,0.8571428571428571,0.0004
720,1.4919863939285278,1.4722801446914673,0.4230769230769231,0.8269230769230769,0.35714285714285715,0.8571428571428571,0.0004
721,1.5327768325805664,1.516905426979065,0.4230769230769231,0.8269230769230769,0.2857142857142857,0.8571428571428571,0.0004
722,1.4613723158836365,1.512575626373291,0.46153846153846156,0.8269230769230769,0.21428571428571427,0.8571428571428571,0.0004
723,1.5111093521118164,1.5138096809387207,0.34615384615384615,0.8269230769230769,0.2857142857142857,0.8571428571428571,0.0004
724,1.6023252606391907,1.5097110271453857,0.36538461538461536,0.8269230769230769,0.2857142857142857,0.8571428571428571,0.0004
725,1.457839012145996,1.4414145946502686,0.28846153846153844,0.8269230769230769,0.35714285714285715,0.8571428571428571,0.0004
726,1.5517094731330872,1.5123594999313354,0.34615384615384615,0.8269230769230769,0.2857142857142857,0.8571428571428571,0.0004
727,1.4709380865097046,1.511969804763794,0.5,0.8269230769230769,0.42857142857142855,0.8571428571428571,0.0004
728,1.5224295258522034,1.5069725513458252,0.38461538461538464,0.8269230769230769,0.35714285714285715,0.8571428571428571,0.0004
729,1.560228705406189,1.4988499879837036,0.34615384615384615,0.8269230769230769,0.42857142857142855,0.8571428571428571,0.0004
730,1.5039407014846802,1.45294189453125,0.36538461538461536,0.8269230769230769,0.14285714285714285,0.8571428571428571,0.0004
731,1.6456072330474854,1.5176433324813843,0.3076923076923077,0.8269230769230769,0.21428571428571427,0.8571428571428571,0.0004
732,1.5743865370750427,1.5210375785827637,0.46153846153846156,0.8269230769230769,0.21428571428571427,0.8571428571428571,0.0004
733,1.5253795385360718,1.4458503723144531,0.36538461538461536,0.8269230769230769,0.35714285714285715,0.8571428571428571,0.0004
734,1.5116950869560242,1.5172975063323975,0.36538461538461536,0.8269230769230769,0.2857142857142857,0.8571428571428571,0.0004
735,1.5175750851631165,1.5430912971496582,0.3269230769230769,0.8269230769230769,0.21428571428571427,0.8571428571428571,0.0004
736,1.5306196808815002,1.5184130668640137,0.4230769230769231,0.8269230769230769,0.2857142857142857,0.8571428571428571,0.0004
737,1.557267665863037,1.4516963958740234,0.2692307692307692,0.8269230769230769,0.2857142857142857,0.8571428571428571,0.0004
738,1.5711870193481445,1.5609443187713623,0.28846153846153844,0.8269230769230769,0.21428571428571427,0.8571428571428571,0.0004
739,1.4649531841278076,1.442838191986084,0.4230769230769231,0.8269230769230769,0.35714285714285715,0.8571428571428571,0.0004
740,1.5749290585517883,1.52346670627594,0.4423076923076923,0.8269230769230769,0.21428571428571427,0.8571428571428571,0.0004
741,1.545046091079712,1.4671791791915894,0.36538461538461536,0.8269230769230769,0.2857142857142857,0.8571428571428571,0.0004
742,1.5036060214042664,1.4578170776367188,0.36538461538461536,0.8269230769230769,0.21428571428571427,0.8571428571428571,0.0004
743,1.5405174493789673,1.5871816873550415,0.3269230769230769,0.8269230769230769,0.21428571428571427,0.8571428571428571,0.0004
744,1.5298289060592651,1.536237120628357,0.3269230769230769,0.8269230769230769,0.21428571428571427,0.8571428571428571,0.0004
745,1.566352367401123,1.4529677629470825,0.34615384615384615,0.8269230769230769,0.2857142857142857,0.8571428571428571,0.0004
746,1.4821839928627014,1.4541308879852295,0.3269230769230769,0.8269230769230769,0.42857142857142855,0.8571428571428571,0.0004
747,1.5408848524093628,1.4748015403747559,0.40384615384615385,0.8269230769230769,0.5,0.8571428571428571,0.0004
748,1.5519460439682007,1.511955976486206,0.40384615384615385,0.8269230769230769,0.42857142857142855,0.8571428571428571,0.0004
749,1.5127227306365967,1.3783721923828125,0.4423076923076923,0.8269230769230769,0.5714285714285714,0.8571428571428571,0.0004
750,1.5580706000328064,1.4340416193008423,0.4230769230769231,0.8269230769230769,0.5,0.8571428571428571,0.0004
751,1.5470897555351257,1.504378080368042,0.40384615384615385,0.8269230769230769,0.5,0.8571428571428571,0.0004
752,1.5702475309371948,1.442239761352539,0.34615384615384615,0.8269230769230769,0.5,0.8571428571428571,0.0004
753,1.5633873343467712,1.521033763885498,0.34615384615384615,0.8269230769230769,0.42857142857142855,0.8571428571428571,0.0004
754,1.5606563687324524,1.5040850639343262,0.34615384615384615,0.8269230769230769,0.42857142857142855,0.8571428571428571,0.0004
755,1.5168593525886536,1.3749569654464722,0.34615384615384615,0.8269230769230769,0.6428571428571429,0.8571428571428571,0.0004
756,1.50645911693573,1.5135929584503174,0.38461538461538464,0.8269230769230769,0.5,0.8571428571428571,0.0004
757,1.4551336169242859,1.5067180395126343,0.38461538461538464,0.8269230769230769,0.5,0.8571428571428571,0.0004
758,1.482795000076294,1.5782182216644287,0.4230769230769231,0.8269230769230769,0.21428571428571427,0.8571428571428571,0.0004
759,1.479264259338379,1.4992448091506958,0.46153846153846156,0.8269230769230769,0.6428571428571429,0.8571428571428571,0.0004
760,1.5502697825431824,1.580651879310608,0.34615384615384615,0.8269230769230769,0.35714285714285715,0.8571428571428571,0.0004
761,1.4739782214164734,1.4928696155548096,0.4230769230769231,0.8269230769230769,0.5714285714285714,0.8571428571428571,0.0004
762,1.4937265515327454,1.5115320682525635,0.40384615384615385,0.8269230769230769,0.42857142857142855,0.8571428571428571,0.0004
763,1.5749120116233826,1.5139451026916504,0.3076923076923077,0.8269230769230769,0.42857142857142855,0.8571428571428571,0.0004
764,1.5715460777282715,1.4448617696762085,0.38461538461538464,0.8269230769230769,0.5,0.8571428571428571,0.0004
765,1.474371075630188,1.5101237297058105,0.46153846153846156,0.8269230769230769,0.42857142857142855,0.8571428571428571,0.0004
766,1.537749469280243,1.5027358531951904,0.38461538461538464,0.8269230769230769,0.42857142857142855,0.8571428571428571,0.0004
767,1.5455405712127686,1.5232391357421875,0.25,0.8269230769230769,0.35714285714285715,0.8571428571428571,0.0004
768,1.4750486016273499,1.5943043231964111,0.4423076923076923,0.8269230769230769,0.2857142857142857,0.8571428571428571,0.0004
769,1.5498701930046082,1.534730315208435,0.34615384615384615,0.8269230769230769,0.2857142857142857,0.8571428571428571,0.0004
770,1.4497771263122559,1.4965665340423584,0.46153846153846156,0.8269230769230769,0.6428571428571429,0.8571428571428571,0.0004
771,1.4675666093826294,1.4463722705841064,0.46153846153846156,0.8269230769230769,0.5,0.8571428571428571,0.0004
772,1.521679937839508,1.4373847246170044,0.38461538461538464,0.8269230769230769,0.5,0.8571428571428571,0.0004
773,1.5018967390060425,1.5101661682128906,0.3269230769230769,0.8269230769230769,0.5,0.8571428571428571,0.0004
774,1.5169997215270996,1.5072472095489502,0.28846153846153844,0.8269230769230769,0.5714285714285714,0.8571428571428571,0.0004
775,1.5318779349327087,1.3521993160247803,0.4423076923076923,0.8269230769230769,0.5,0.8571428571428571,0.0004
776,1.535459041595459,1.5087144374847412,0.36538461538461536,0.8269230769230769,0.5,0.8571428571428571,0.0004
777,1.477672517299652,1.4965968132019043,0.38461538461538464,0.8269230769230769,0.5,0.8571428571428571,0.0004
778,1.5221343636512756,1.4997422695159912,0.38461538461538464,0.8269230769230769,0.35714285714285715,0.8571428571428571,0.0004
779,1.4586106538772583,1.426848292350769,0.4230769230769231,0.8269230769230769,0.6428571428571429,0.8571428571428571,0.0004
780,1.5320760607719421,1.5037018060684204,0.3076923076923077,0.8269230769230769,0.5,0.8571428571428571,0.0004
781,1.5262179970741272,1.5502517223358154,0.36538461538461536,0.8269230769230769,0.2857142857142857,0.8571428571428571,0.0004
782,1.4980014562606812,1.3735934495925903,0.5192307692307693,0.8269230769230769,0.5,0.8571428571428571,0.0004
783,1.5121055841445923,1.4744141101837158,0.34615384615384615,0.8269230769230769,0.42857142857142855,0.8571428571428571,0.0004
784,1.5279849767684937,1.459189534187317,0.40384615384615385,0.8269230769230769,0.2857142857142857,0.8571428571428571,0.0004
785,1.5225390791893005,1.5169684886932373,0.38461538461538464,0.8269230769230769,0.42857142857142855,0.8571428571428571,0.0004
786,1.5348600149154663,1.6172568798065186,0.3076923076923077,0.8269230769230769,0.14285714285714285,0.8571428571428571,0.0004
787,1.5208168625831604,1.5757849216461182,0.40384615384615385,0.8269230769230769,0.2857142857142857,0.8571428571428571,0.0004
788,1.5200032591819763,1.5360984802246094,0.38461538461538464,0.8269230769230769,0.21428571428571427,0.8571428571428571,0.0004
789,1.5562811493873596,1.4609159231185913,0.46153846153846156,0.8269230769230769,0.2857142857142857,0.8571428571428571,0.0004
790,1.5161933898925781,1.6641925573349,0.3269230769230769,0.8269230769230769,0.14285714285714285,0.8571428571428571,0.0004
791,1.555194616317749,1.517786979675293,0.36538461538461536,0.8269230769230769,0.2857142857142857,0.8571428571428571,0.0004
792,1.4920859932899475,1.5243990421295166,0.40384615384615385,0.8269230769230769,0.2857142857142857,0.8571428571428571,0.0004
793,1.5915378332138062,1.5084023475646973,0.3269230769230769,0.8269230769230769,0.42857142857142855,0.8571428571428571,0.0004
794,1.5219325423240662,1.4444018602371216,0.36538461538461536,0.8269230769230769,0.42857142857142855,0.8571428571428571,0.0004
795,1.4814274311065674,1.5199813842773438,0.5,0.8269230769230769,0.21428571428571427,0.8571428571428571,0.0004
796,1.5212665796279907,1.534796953201294,0.36538461538461536,0.8269230769230769,0.42857142857142855,0.8571428571428571,0.0004
797,1.5071079730987549,1.4975004196166992,0.5384615384615384,0.8269230769230769,0.5,0.8571428571428571,0.0004
798,1.4826354384422302,1.4895727634429932,0.46153846153846156,0.8269230769230769,0.6428571428571429,0.8571428571428571,0.0004
799,1.5285223126411438,1.3741521835327148,0.36538461538461536,0.8269230769230769,0.42857142857142855,0.8571428571428571,0.0004
800,1.5040387511253357,1.4854028224945068,0.3076923076923077,0.8269230769230769,0.5,0.8571428571428571,0.0004
801,1.5175607204437256,1.4879761934280396,0.40384615384615385,0.8269230769230769,0.7142857142857143,0.8571428571428571,0.0004
802,1.5186082124710083,1.5105794668197632,0.40384615384615385,0.8269230769230769,0.35714285714285715,0.8571428571428571,0.0004
803,1.5023656487464905,1.4270540475845337,0.36538461538461536,0.8269230769230769,0.5714285714285714,0.8571428571428571,0.0004
804,1.4384766817092896,1.507448434829712,0.5576923076923077,0.8269230769230769,0.35714285714285715,0.8571428571428571,0.0004
805,1.5326276421546936,1.5089706182479858,0.4423076923076923,0.8269230769230769,0.2857142857142857,0.8571428571428571,0.0004
806,1.513699233531952,1.5078798532485962,0.46153846153846156,0.8269230769230769,0.35714285714285715,0.8571428571428571,0.0004
807,1.4654465317726135,1.5856989622116089,0.4807692307692308,0.8269230769230769,0.5714285714285714,0.8571428571428571,0.0004
808,1.487654685974121,1.507321834564209,0.3076923076923077,0.8269230769230769,0.35714285714285715,0.8571428571428571,0.0004
809,1.4965273141860962,1.5126049518585205,0.36538461538461536,0.8269230769230769,0.2857142857142857,0.8571428571428571,0.0004
810,1.5892709493637085,1.4323979616165161,0.4230769230769231,0.8269230769230769,0.5,0.8571428571428571,0.0004
811,1.4604101181030273,1.5400903224945068,0.4807692307692308,0.8269230769230769,0.35714285714285715,0.8571428571428571,0.0004
812,1.5004920959472656,1.4438611268997192,0.4230769230769231,0.8269230769230769,0.42857142857142855,0.8571428571428571,0.0004
813,1.4643535017967224,1.5215024948120117,0.4807692307692308,0.8269230769230769,0.42857142857142855,0.8571428571428571,0.0004
814,1.5203369855880737,1.521535873413086,0.40384615384615385,0.8269230769230769,0.21428571428571427,0.8571428571428571,0.0004
815,1.480893850326538,1.4798383712768555,0.38461538461538464,0.8269230769230769,0.42857142857142855,0.8571428571428571,0.0004
816,1.5559161901474,1.4789535999298096,0.25,0.8269230769230769,0.35714285714285715,0.8571428571428571,0.0004
817,1.547577440738678,1.6430100202560425,0.36538461538461536,0.8269230769230769,0.21428571428571427,0.8571428571428571,0.0004
818,1.5310257077217102,1.576440453529358,0.40384615384615385,0.8269230769230769,0.2857142857142857,0.8571428571428571,0.0004
819,1.484818458557129,1.5060542821884155,0.4230769230769231,0.8269230769230769,0.2857142857142857,0.8571428571428571,0.0004
820,1.5242629051208496,1.604851484298706,0.3269230769230769,0.8269230769230769,0.21428571428571427,0.8571428571428571,0.0004
821,1.5265179872512817,1.5199373960494995,0.40384615384615385,0.8269230769230769,0.35714285714285715,0.8571428571428571,0.0004
822,1.5399249196052551,1.5290496349334717,0.34615384615384615,0.8269230769230769,0.21428571428571427,0.8571428571428571,0.0004
823,1.4552856087684631,1.4978764057159424,0.36538461538461536,0.8269230769230769,0.5714285714285714,0.8571428571428571,0.0004
824,1.6176196932792664,1.5200263261795044,0.34615384615384615,0.8269230769230769,0.2857142857142857,0.8571428571428571,0.0004
825,1.4730937480926514,1.4261211156845093,0.5,0.8269230769230769,0.5,0.8571428571428571,0.0004
826,1.5346827507019043,1.4321200847625732,0.34615384615384615,0.8269230769230769,0.42857142857142855,0.8571428571428571,0.0004
827,1.5015172362327576,1.526248812675476,0.28846153846153844,0.8269230769230769,0.35714285714285715,0.8571428571428571,0.0004
828,1.527314305305481,1.5074732303619385,0.3269230769230769,0.8269230769230769,0.35714285714285715,0.8571428571428571,0.0004
829,1.485589861869812,1.4770957231521606,0.3076923076923077,0.8269230769230769,0.7142857142857143,0.8571428571428571,0.0004
830,1.5319604873657227,1.5163686275482178,0.4423076923076923,0.8269230769230769,0.2857142857142857,0.8571428571428571,0.0004
831,1.5970784425735474,1.4961193799972534,0.38461538461538464,0.8269230769230769,0.5714285714285714,0.8571428571428571,0.0004
832,1.512930989265442,1.6292964220046997,0.46153846153846156,0.8269230769230769,0.21428571428571427,0.8571428571428571,0.0004
833,1.4197089672088623,1.5067317485809326,0.5,0.8269230769230769,0.5714285714285714,0.8571428571428571,0.0004
834,1.54237699508667,1.4838826656341553,0.3076923076923077,0.8269230769230769,0.7142857142857143,0.8571428571428571,0.0004
835,1.5831758379936218,1.5404253005981445,0.3269230769230769,0.8269230769230769,0.42857142857142855,0.8571428571428571,0.0004
836,1.555739939212799,1.4318029880523682,0.38461538461538464,0.8269230769230769,0.5,0.8571428571428571,0.0004
837,1.5169517993927002,1.426142692565918,0.46153846153846156,0.8269230769230769,0.5714285714285714,0.8571428571428571,0.0004
838,1.6100795269012451,1.520087718963623,0.3269230769230769,0.8269230769230769,0.35714285714285715,0.8571428571428571,0.0004
839,1.4651383757591248,1.4418535232543945,0.5,0.8269230769230769,0.35714285714285715,0.8571428571428571,0.0004
840,1.6552057266235352,1.5138349533081055,0.34615384615384615,0.8269230769230769,0.5,0.8571428571428571,0.0004
841,1.4950473308563232,1.6233272552490234,0.38461538461538464,0.8269230769230769,0.35714285714285715,0.8571428571428571,0.0004
842,1.5775488018989563,1.3755444288253784,0.3269230769230769,0.8269230769230769,0.5,0.8571428571428571,0.0004
843,1.554829180240631,1.6089661121368408,0.34615384615384615,0.8269230769230769,0.42857142857142855,0.8571428571428571,0.0004
844,1.518454372882843,1.5322613716125488,0.34615384615384615,0.8269230769230769,0.5714285714285714,0.8571428571428571,0.0004
845,1.5754328966140747,1.3708592653274536,0.40384615384615385,0.8269230769230769,0.5,0.8571428571428571,0.0004
846,1.5358582735061646,1.4490702152252197,0.4423076923076923,0.8269230769230769,0.42857142857142855,0.8571428571428571,0.0004
847,1.5371522903442383,1.437441349029541,0.34615384615384615,0.8269230769230769,0.5,0.8571428571428571,0.0004
848,1.5254594683647156,1.3731566667556763,0.38461538461538464,0.8269230769230769,0.5,0.8571428571428571,0.0004
849,1.4257938861846924,1.5374391078948975,0.5,0.8269230769230769,0.5714285714285714,0.8571428571428571,0.0004
850,1.537590205669403,1.4310493469238281,0.38461538461538464,0.8269230769230769,0.5714285714285714,0.8571428571428571,0.0004
851,1.5410199761390686,1.4799206256866455,0.36538461538461536,0.8269230769230769,0.42857142857142855,0.8571428571428571,0.0004
852,1.5020408630371094,1.5221960544586182,0.4423076923076923,0.8269230769230769,0.35714285714285715,0.8571428571428571,0.0004
853,1.4483503103256226,1.5070617198944092,0.4230769230769231,0.8269230769230769,0.35714285714285715,0.8571428571428571,0.0004
854,1.5277385711669922,1.441899299621582,0.4230769230769231,0.8269230769230769,0.6428571428571429,0.8571428571428571,0.0004
855,1.5371820330619812,1.4150829315185547,0.34615384615384615,0.8269230769230769,0.5714285714285714,0.8571428571428571,0.0004
856,1.607836902141571,1.502989649772644,0.40384615384615385,0.8269230769230769,0.5714285714285714,0.8571428571428571,0.0004
857,1.4986194372177124,1.4760076999664307,0.5,0.8269230769230769,0.42857142857142855,0.8571428571428571,0.0004
858,1.5682308077812195,1.5127662420272827,0.38461538461538464,0.8269230769230769,0.5,0.8571428571428571,0.0004
859,1.5348562002182007,1.5151386260986328,0.36538461538461536,0.8269230769230769,0.42857142857142855,0.8571428571428571,0.0004
860,1.6171237230300903,1.4688444137573242,0.40384615384615385,0.8269230769230769,0.5714285714285714,0.8571428571428571,0.0004
861,1.5081625580787659,1.6741164922714233,0.46153846153846156,0.8269230769230769,0.35714285714285715,0.8571428571428571,0.0004
862,1.4766609072685242,1.5013749599456787,0.46153846153846156,0.8269230769230769,0.42857142857142855,0.8571428571428571,0.0004
863,1.4918299913406372,1.4268832206726074,0.3269230769230769,0.8269230769230769,0.5,0.8571428571428571,0.0004
864,1.4635179042816162,1.5084924697875977,0.4423076923076923,0.8269230769230769,0.35714285714285715,0.8571428571428571,0.0004
865,1.557407021522522,1.5094650983810425,0.34615384615384615,0.8269230769230769,0.35714285714285715,0.8571428571428571,0.0004
866,1.520220160484314,1.3843287229537964,0.36538461538461536,0.8269230769230769,0.6428571428571429,0.8571428571428571,0.0004
867,1.4933685064315796,1.4981414079666138,0.4230769230769231,0.8269230769230769,0.5714285714285714,0.8571428571428571,0.0004
868,1.5896060466766357,1.4280952215194702,0.3269230769230769,0.8269230769230769,0.5,0.8571428571428571,0.0004
869,1.5319185256958008,1.4957959651947021,0.46153846153846156,0.8269230769230769,0.21428571428571427,0.8571428571428571,0.0004
870,1.4120151996612549,1.336708903312683,0.4807692307692308,0.8269230769230769,0.6428571428571429,0.8571428571428571,0.0004
871,1.5277371406555176,1.4374300241470337,0.4230769230769231,0.8269230769230769,0.42857142857142855,0.8571428571428571,0.0004
872,1.4263298511505127,1.3531200885772705,0.4230769230769231,0.8269230769230769,0.5,0.8571428571428571,0.0004
873,1.5843685865402222,1.5048785209655762,0.34615384615384615,0.8269230769230769,0.6428571428571429,0.8571428571428571,0.0004
874,1.5098373889923096,1.4116671085357666,0.5,0.8269230769230769,0.6428571428571429,0.8571428571428571,0.0004
875,1.4946683049201965,1.6191442012786865,0.3076923076923077,0.8269230769230769,0.35714285714285715,0.8571428571428571,0.0004
876,1.493267297744751,1.4304075241088867,0.46153846153846156,0.8269230769230769,0.5714285714285714,0.8571428571428571,0.0004
877,1.5393781661987305,1.6129038333892822,0.40384615384615385,0.8269230769230769,0.42857142857142855,0.8571428571428571,0.0004
878,1.5623376369476318,1.654913306236267,0.36538461538461536,0.8269230769230769,0.42857142857142855,0.8571428571428571,0.0004
879,1.5475839972496033,1.4991047382354736,0.4423076923076923,0.8269230769230769,0.42857142857142855,0.8571428571428571,0.0004
880,1.4788175821304321,1.4521210193634033,0.4423076923076923,0.8269230769230769,0.35714285714285715,0.8571428571428571,0.0004
881,1.5458232760429382,1.4691262245178223,0.5,0.8269230769230769,0.42857142857142855,0.8571428571428571,0.0004
882,1.6337288618087769,1.5010828971862793,0.21153846153846154,0.8269230769230769,0.35714285714285715,0.8571428571428571,0.0004
883,1.5071508884429932,1.5187041759490967,0.36538461538461536,0.8269230769230769,0.21428571428571427,0.8571428571428571,0.0004
884,1.474123239517212,1.4327878952026367,0.46153846153846156,0.8269230769230769,0.5714285714285714,0.8571428571428571,0.0004
885,1.5165922045707703,1.4459937810897827,0.4230769230769231,0.8269230769230769,0.42857142857142855,0.8571428571428571,0.0004
886,1.4927877187728882,1.429046630859375,0.4423076923076923,0.8269230769230769,0.5,0.8571428571428571,0.0004
887,1.5560431480407715,1.4379041194915771,0.28846153846153844,0.8269230769230769,0.5,0.8571428571428571,0.0004
888,1.502490758895874,1.4177039861679077,0.34615384615384615,0.8269230769230769,0.5,0.8571428571428571,0.0004
889,1.4429895281791687,1.3691328763961792,0.4230769230769231,0.8269230769230769,0.42857142857142855,0.8571428571428571,0.0004
890,1.5492709875106812,1.6154232025146484,0.4230769230769231,0.8269230769230769,0.5,0.8571428571428571,0.0004
891,1.513971209526062,1.5492396354675293,0.5384615384615384,0.8269230769230769,0.42857142857142855,0.8571428571428571,0.0004
892,1.5360071063041687,1.4436562061309814,0.3269230769230769,0.8269230769230769,0.35714285714285715,0.8571428571428571,0.0004
893,1.5050861239433289,1.6410865783691406,0.4423076923076923,0.8269230769230769,0.42857142857142855,0.8571428571428571,0.0004
894,1.5581302642822266,1.5134377479553223,0.46153846153846156,0.8269230769230769,0.35714285714285715,0.8571428571428571,0.0004
895,1.5761908292770386,1.3624707460403442,0.5384615384615384,0.8269230769230769,0.6428571428571429,0.8571428571428571,0.0004
896,1.4846590161323547,1.4973958730697632,0.40384615384615385,0.8269230769230769,0.6428571428571429,0.8571428571428571,0.0004
897,1.4749054908752441,1.502601146697998,0.38461538461538464,0.8269230769230769,0.5,0.8571428571428571,0.0004
898,1.45022052526474,1.6147011518478394,0.4230769230769231,0.8269230769230769,0.5,0.8571428571428571,0.0004
899,1.4808059930801392,1.5126447677612305,0.38461538461538464,0.8269230769230769,0.21428571428571427,0.8571428571428571,0.0004
900,1.542067289352417,1.4913427829742432,0.4423076923076923,0.8269230769230769,0.35714285714285715,0.8571428571428571,0.0004
901,1.5485313534736633,1.5078938007354736,0.3076923076923077,0.8269230769230769,0.35714285714285715,0.8571428571428571,0.0004
902,1.5505377650260925,1.5003414154052734,0.28846153846153844,0.8269230769230769,0.42857142857142855,0.8571428571428571,0.0004
903,1.5985916256904602,1.5052646398544312,0.4423076923076923,0.8269230769230769,0.35714285714285715,0.8571428571428571,0.0004
904,1.4871283173561096,1.505558729171753,0.5576923076923077,0.8269230769230769,0.6428571428571429,0.8571428571428571,0.0004
905,1.4985055923461914,1.538807988166809,0.40384615384615385,0.8269230769230769,0.42857142857142855,0.8571428571428571,0.0004
906,1.5702490210533142,1.4000053405761719,0.38461538461538464,0.8269230769230769,0.5,0.8571428571428571,0.0004
907,1.5247330069541931,1.4990394115447998,0.4230769230769231,0.8269230769230769,0.5714285714285714,0.8571428571428571,0.0004
908,1.5538060665130615,1.5374228954315186,0.46153846153846156,0.8269230769230769,0.35714285714285715,0.8571428571428571,0.0004
909,1.4864173531532288,1.5074577331542969,0.40384615384615385,0.8269230769230769,0.42857142857142855,0.8571428571428571,0.0004
910,1.550155758857727,1.5079345703125,0.36538461538461536,0.8269230769230769,0.14285714285714285,0.8571428571428571,0.0004
911,1.5183557271957397,1.5523707866668701,0.40384615384615385,0.8269230769230769,0.35714285714285715,0.8571428571428571,0.0004
912,1.4739850759506226,1.4506385326385498,0.4807692307692308,0.8269230769230769,0.42857142857142855,0.8571428571428571,0.0004
913,1.5219415426254272,1.3863011598587036,0.4423076923076923,0.8269230769230769,0.2857142857142857,0.8571428571428571,0.0004
914,1.5525074005126953,1.440967082977295,0.46153846153846156,0.8269230769230769,0.2857142857142857,0.8571428571428571,0.0004
915,1.4462933540344238,1.5132286548614502,0.4423076923076923,0.8269230769230769,0.21428571428571427,0.8571428571428571,0.0004
916,1.4921403527259827,1.5125253200531006,0.40384615384615385,0.8269230769230769,0.35714285714285715,0.8571428571428571,0.0004
917,1.5557003021240234,1.4744393825531006,0.46153846153846156,0.8269230769230769,0.2857142857142857,0.8571428571428571,0.0004
918,1.4300342202186584,1.4548040628433228,0.46153846153846156,0.8269230769230769,0.35714285714285715,0.8571428571428571,0.0004
919,1.485008955001831,1.5108513832092285,0.36538461538461536,0.8269230769230769,0.42857142857142855,0.8571428571428571,0.0004
920,1.5557225942611694,1.504406213760376,0.4807692307692308,0.8269230769230769,0.42857142857142855,0.8571428571428571,0.0004
921,1.5052955150604248,1.5789434909820557,0.36538461538461536,0.8269230769230769,0.35714285714285715,0.8571428571428571,0.0004
922,1.419467568397522,1.5105528831481934,0.5576923076923077,0.8269230769230769,0.5,0.8571428571428571,0.0004
923,1.5269411206245422,1.5130354166030884,0.5192307692307693,0.8269230769230769,0.2857142857142857,0.8571428571428571,0.0004
924,1.5247365832328796,1.5312834978103638,0.40384615384615385,0.8269230769230769,0.5,0.8571428571428571,0.0004
925,1.481897234916687,1.5956182479858398,0.4807692307692308,0.8269230769230769,0.35714285714285715,0.8571428571428571,0.0004
926,1.5318435430526733,1.5105090141296387,0.36538461538461536,0.8269230769230769,0.35714285714285715,0.8571428571428571,0.0004
927,1.5163254141807556,1.430910587310791,0.4230769230769231,0.8269230769230769,0.5,0.8571428571428571,0.0004
928,1.4963844418525696,1.5882437229156494,0.4230769230769231,0.8269230769230769,0.5714285714285714,0.8571428571428571,0.0004
929,1.512904942035675,1.4308661222457886,0.40384615384615385,0.8269230769230769,0.6428571428571429,0.8571428571428571,0.0004
930,1.5984532833099365,1.5376137495040894,0.36538461538461536,0.8269230769230769,0.42857142857142855,0.8571428571428571,0.0004
931,1.512093722820282,1.4457752704620361,0.3076923076923077,0.8269230769230769,0.5714285714285714,0.8571428571428571,0.0004
932,1.5164800882339478,1.4895219802856445,0.4807692307692308,0.8269230769230769,0.35714285714285715,0.8571428571428571,0.0004
933,1.379639208316803,1.4975063800811768,0.6538461538461539,0.8269230769230769,0.5,0.8571428571428571,0.0004
934,1.4922487139701843,1.4302359819412231,0.46153846153846156,0.8269230769230769,0.42857142857142855,0.8571428571428571,0.0004
935,1.550873577594757,1.5293728113174438,0.3269230769230769,0.8269230769230769,0.5,0.8571428571428571,0.0004
936,1.4762632250785828,1.4933167695999146,0.40384615384615385,0.8269230769230769,0.5714285714285714,0.8571428571428571,0.0004
937,1.5109065175056458,1.6058481931686401,0.38461538461538464,0.8269230769230769,0.42857142857142855,0.8571428571428571,0.0004
938,1.647385060787201,1.36817467212677,0.2692307692307692,0.8269230769230769,0.5,0.8571428571428571,0.0004
939,1.4637983441352844,1.598880410194397,0.36538461538461536,0.8269230769230769,0.5714285714285714,0.8571428571428571,0.0004
940,1.4451190829277039,1.3970787525177002,0.4807692307692308,0.8269230769230769,0.7142857142857143,0.8571428571428571,0.0004
941,1.4830191135406494,1.436837911605835,0.4807692307692308,0.8269230769230769,0.6428571428571429,0.8571428571428571,0.0004
942,1.4846723675727844,1.492985486984253,0.3269230769230769,0.8269230769230769,0.6428571428571429,0.8571428571428571,0.0004
943,1.4350329637527466,1.4240498542785645,0.4807692307692308,0.8269230769230769,0.5714285714285714,0.8571428571428571,0.0004
944,1.536348044872284,1.4634459018707275,0.38461538461538464,0.8269230769230769,0.42857142857142855,0.8571428571428571,0.0004
945,1.5279405117034912,1.4499437808990479,0.4230769230769231,0.8269230769230769,0.5,0.8571428571428571,0.0004
946,1.530394971370697,1.4465103149414062,0.34615384615384615,0.8269230769230769,0.42857142857142855,0.8571428571428571,0.0004
947,1.52494215965271,1.509096384048462,0.2692307692307692,0.8269230769230769,0.5,0.8571428571428571,0.0004
948,1.5445698499679565,1.420549988746643,0.36538461538461536,0.8269230769230769,0.5714285714285714,0.8571428571428571,0.0004
949,1.5675222873687744,1.4578382968902588,0.3269230769230769,0.8269230769230769,0.5,0.8571428571428571,0.0004
950,1.4465699791908264,1.4755399227142334,0.5192307692307693,0.8269230769230769,0.5714285714285714,0.8571428571428571,0.0004
951,1.5875591039657593,1.5247254371643066,0.3269230769230769,0.8269230769230769,0.35714285714285715,0.8571428571428571,0.0004
952,1.5201478004455566,1.5121915340423584,0.4807692307692308,0.8269230769230769,0.35714285714285715,0.8571428571428571,0.0004
953,1.5413413047790527,1.4943175315856934,0.4423076923076923,0.8269230769230769,0.5,0.8571428571428571,0.0004
954,1.4011972546577454,1.608917474746704,0.46153846153846156,0.8269230769230769,0.35714285714285715,0.8571428571428571,0.0004
955,1.552433729171753,1.439295768737793,0.4423076923076923,0.8269230769230769,0.42857142857142855,0.8571428571428571,0.0004
956,1.4077875018119812,1.5115764141082764,0.5,0.8269230769230769,0.5,0.8571428571428571,0.0004
957,1.4985017776489258,1.3765738010406494,0.4423076923076923,0.8269230769230769,0.5,0.8571428571428571,0.0004
958,1.5541837811470032,1.4815850257873535,0.36538461538461536,0.8269230769230769,0.5714285714285714,0.8571428571428571,0.0004
959,1.5443650484085083,1.352509617805481,0.34615384615384615,0.8269230769230769,0.5714285714285714,0.8571428571428571,0.0004
960,1.5276323556900024,1.5029282569885254,0.4230769230769231,0.8269230769230769,0.5,0.8571428571428571,0.0004
961,1.4945460557937622,1.4294205904006958,0.38461538461538464,0.8269230769230769,0.6428571428571429,0.8571428571428571,0.0004
962,1.5248311161994934,1.402432918548584,0.4423076923076923,0.8269230769230769,0.6428571428571429,0.8571428571428571,0.0004
963,1.5255240201950073,1.4534316062927246,0.38461538461538464,0.8269230769230769,0.5,0.8571428571428571,0.0004
964,1.5545130968093872,1.4522379636764526,0.34615384615384615,0.8269230769230769,0.35714285714285715,0.8571428571428571,0.0004
965,1.4464160203933716,1.4300955533981323,0.5,0.8269230769230769,0.5,0.8571428571428571,0.0004
966,1.410394310951233,1.5504372119903564,0.4807692307692308,0.8269230769230769,0.2857142857142857,0.8571428571428571,0.0004
967,1.3787051439285278,1.597285270690918,0.5769230769230769,0.8269230769230769,0.5,0.8571428571428571,0.0004
968,1.6135026812553406,1.476588487625122,0.36538461538461536,0.8269230769230769,0.5,0.8571428571428571,0.0004
969,1.4727897644042969,1.5313920974731445,0.36538461538461536,0.8269230769230769,0.5714285714285714,0.8571428571428571,0.0004
970,1.513739824295044,1.4348171949386597,0.4423076923076923,0.8269230769230769,0.5,0.8571428571428571,0.0004
971,1.500831961631775,1.505499005317688,0.5384615384615384,0.8269230769230769,0.42857142857142855,0.8571428571428571,0.0004
972,1.4927088022232056,1.3892083168029785,0.46153846153846156,0.8269230769230769,0.5714285714285714,0.8571428571428571,0.0004
973,1.5625733137130737,1.4468533992767334,0.3076923076923077,0.8269230769230769,0.5,0.8571428571428571,0.0004
974,1.5039297342300415,1.4169374704360962,0.2692307692307692,0.8269230769230769,0.5714285714285714,0.8571428571428571,0.0004
975,1.4631881713867188,1.3053590059280396,0.34615384615384615,0.8269230769230769,0.6428571428571429,0.8571428571428571,0.0004
976,1.4916579723358154,1.4775569438934326,0.36538461538461536,0.8269230769230769,0.5714285714285714,0.8571428571428571,0.0004
977,1.5353715419769287,1.5500552654266357,0.4807692307692308,0.8269230769230769,0.5,0.8571428571428571,0.0004
978,1.4481551051139832,1.6251128911972046,0.4423076923076923,0.8269230769230769,0.42857142857142855,0.8571428571428571,0.0004
979,1.5521342158317566,1.3912196159362793,0.4423076923076923,0.8269230769230769,0.5,0.8571428571428571,0.0004
980,1.5561256408691406,1.4129223823547363,0.40384615384615385,0.8269230769230769,0.5,0.8571428571428571,0.0004
981,1.4854114055633545,1.4836962223052979,0.4230769230769231,0.8269230769230769,0.42857142857142855,0.8571428571428571,0.0004
