epoch,train_loss,val_loss,train_acc_action,train_acc_status,val_acc_action,val_acc_status,learning_rate
1,1.8186229467391968,1.8298113346099854,0.36538461538461536,0.17307692307692307,0.21428571428571427,0.14285714285714285,0.0004
2,1.8143045902252197,1.8243436813354492,0.36538461538461536,0.17307692307692307,0.21428571428571427,0.14285714285714285,0.0004
3,1.8004342913627625,1.8179223537445068,0.36538461538461536,0.19230769230769232,0.21428571428571427,0.14285714285714285,0.0004
4,1.797252893447876,1.812204360961914,0.36538461538461536,0.25,0.21428571428571427,0.14285714285714285,0.0004
5,1.7952841520309448,1.8059812784194946,0.36538461538461536,0.5192307692307693,0.21428571428571427,0.8571428571428571,0.0004
6,1.7807904481887817,1.7984477281570435,0.36538461538461536,0.5576923076923077,0.21428571428571427,0.8571428571428571,0.0004
7,1.785688877105713,1.7895644903182983,0.36538461538461536,0.6538461538461539,0.21428571428571427,0.8571428571428571,0.0004
8,1.7730486989021301,1.778804063796997,0.36538461538461536,0.6923076923076923,0.21428571428571427,0.8571428571428571,0.0004
9,1.7738293409347534,1.764802098274231,0.28846153846153844,0.7692307692307693,0.21428571428571427,0.8571428571428571,0.0004
10,1.7411047220230103,1.7461777925491333,0.40384615384615385,0.7692307692307693,0.21428571428571427,0.8571428571428571,0.0004
11,1.713115394115448,1.7169674634933472,0.3269230769230769,0.8653846153846154,0.35714285714285715,0.8571428571428571,0.0004
12,1.7098847031593323,1.6643803119659424,0.28846153846153844,0.8269230769230769,0.35714285714285715,0.8571428571428571,0.0004
13,1.6545023918151855,1.5989432334899902,0.3076923076923077,0.8269230769230769,0.35714285714285715,0.8571428571428571,0.0004
14,1.7372859716415405,1.571725845336914,0.2692307692307692,0.8269230769230769,0.35714285714285715,0.8571428571428571,0.0004
15,1.659340500831604,1.5576469898223877,0.4423076923076923,0.8269230769230769,0.35714285714285715,0.8571428571428571,0.0004
16,1.6760690212249756,1.5450960397720337,0.25,0.8269230769230769,0.35714285714285715,0.8571428571428571,0.0004
17,1.598436713218689,1.5364841222763062,0.40384615384615385,0.8269230769230769,0.35714285714285715,0.8571428571428571,0.0004
18,1.6111099123954773,1.532294511795044,0.34615384615384615,0.8269230769230769,0.35714285714285715,0.8571428571428571,0.0004
19,1.6199086904525757,1.5313575267791748,0.40384615384615385,0.8269230769230769,0.35714285714285715,0.8571428571428571,0.0004
20,1.6072900295257568,1.5346367359161377,0.3076923076923077,0.8269230769230769,0.35714285714285715,0.8571428571428571,0.0004
21,1.574694275856018,1.5370392799377441,0.38461538461538464,0.8269230769230769,0.21428571428571427,0.8571428571428571,0.0004
22,1.5964553952217102,1.539072036743164,0.38461538461538464,0.8269230769230769,0.21428571428571427,0.8571428571428571,0.0004
23,1.5599249005317688,1.540932297706604,0.36538461538461536,0.8269230769230769,0.21428571428571427,0.8571428571428571,0.0004
24,1.6193413734436035,1.5423136949539185,0.28846153846153844,0.8269230769230769,0.21428571428571427,0.8571428571428571,0.0004
25,1.5531624555587769,1.5416734218597412,0.34615384615384615,0.8269230769230769,0.21428571428571427,0.8571428571428571,0.0004
26,1.5493521690368652,1.5404446125030518,0.4230769230769231,0.8269230769230769,0.21428571428571427,0.8571428571428571,0.0004
27,1.64973783493042,1.539581537246704,0.5192307692307693,0.8269230769230769,0.21428571428571427,0.8571428571428571,0.0004
28,1.5777645707130432,1.5402469635009766,0.34615384615384615,0.8269230769230769,0.21428571428571427,0.8571428571428571,0.0004
29,1.6920612454414368,1.5430094003677368,0.34615384615384615,0.8269230769230769,0.21428571428571427,0.8571428571428571,0.0004
30,1.6528527736663818,1.5462892055511475,0.25,0.8269230769230769,0.21428571428571427,0.8571428571428571,0.0004
31,1.5394744277000427,1.54946768283844,0.4423076923076923,0.8269230769230769,0.21428571428571427,0.8571428571428571,0.0004
32,1.551647663116455,1.552912950515747,0.25,0.8269230769230769,0.21428571428571427,0.8571428571428571,0.0004
33,1.5944539904594421,1.554876685142517,0.3076923076923077,0.8269230769230769,0.21428571428571427,0.8571428571428571,0.0004
34,1.596340537071228,1.5571726560592651,0.3076923076923077,0.8269230769230769,0.21428571428571427,0.8571428571428571,0.0004
35,1.5529258251190186,1.5593924522399902,0.46153846153846156,0.8269230769230769,0.21428571428571427,0.8571428571428571,0.0004
36,1.6489112377166748,1.5610431432724,0.3269230769230769,0.8269230769230769,0.21428571428571427,0.8571428571428571,0.0004
37,1.621399164199829,1.5622116327285767,0.36538461538461536,0.8269230769230769,0.21428571428571427,0.8571428571428571,0.0004
38,1.612555742263794,1.5623621940612793,0.25,0.8269230769230769,0.21428571428571427,0.8571428571428571,0.0004
39,1.6276745796203613,1.5625578165054321,0.28846153846153844,0.8269230769230769,0.21428571428571427,0.8571428571428571,0.0004
40,1.5356460809707642,1.5619179010391235,0.2692307692307692,0.8269230769230769,0.21428571428571427,0.8571428571428571,0.0004
41,1.6355533599853516,1.560782790184021,0.25,0.8269230769230769,0.21428571428571427,0.8571428571428571,0.0004
42,1.593002200126648,1.5600067377090454,0.2692307692307692,0.8269230769230769,0.21428571428571427,0.8571428571428571,0.0004
43,1.5811830759048462,1.5581417083740234,0.36538461538461536,0.8269230769230769,0.21428571428571427,0.8571428571428571,0.0004
44,1.6035093069076538,1.5560245513916016,0.36538461538461536,0.8269230769230769,0.21428571428571427,0.8571428571428571,0.0004
45,1.6079758405685425,1.5538372993469238,0.2692307692307692,0.8269230769230769,0.21428571428571427,0.8571428571428571,0.0004
46,1.6296929717063904,1.5517833232879639,0.3076923076923077,0.8269230769230769,0.21428571428571427,0.8571428571428571,0.0004
47,1.623744010925293,1.5503637790679932,0.25,0.8269230769230769,0.21428571428571427,0.8571428571428571,0.0004
48,1.531015396118164,1.5480949878692627,0.4230769230769231,0.8269230769230769,0.21428571428571427,0.8571428571428571,0.0004
49,1.5893889665603638,1.5454955101013184,0.2692307692307692,0.8269230769230769,0.21428571428571427,0.8571428571428571,0.0004
50,1.6020779609680176,1.5426069498062134,0.2692307692307692,0.8269230769230769,0.21428571428571427,0.8571428571428571,0.0004
51,1.6643942594528198,1.5408567190170288,0.25,0.8269230769230769,0.21428571428571427,0.8571428571428571,0.0004
52,1.617000937461853,1.540297508239746,0.2692307692307692,0.8269230769230769,0.21428571428571427,0.8571428571428571,0.0004
53,1.6053305268287659,1.5406248569488525,0.25,0.8269230769230769,0.21428571428571427,0.8571428571428571,0.0004
54,1.578933596611023,1.5401242971420288,0.5,0.8269230769230769,0.21428571428571427,0.8571428571428571,0.0004
55,1.5355773568153381,1.5392389297485352,0.3269230769230769,0.8269230769230769,0.21428571428571427,0.8571428571428571,0.0004
56,1.5708577632904053,1.5378499031066895,0.34615384615384615,0.8269230769230769,0.21428571428571427,0.8571428571428571,0.0004
57,1.579576551914215,1.5368562936782837,0.38461538461538464,0.8269230769230769,0.21428571428571427,0.8571428571428571,0.0004
58,1.6239479780197144,1.5365203619003296,0.3269230769230769,0.8269230769230769,0.21428571428571427,0.8571428571428571,0.0004
59,1.559938371181488,1.5361623764038086,0.2692307692307692,0.8269230769230769,0.21428571428571427,0.8571428571428571,0.0004
60,1.5371098518371582,1.5346369743347168,0.38461538461538464,0.8269230769230769,0.21428571428571427,0.8571428571428571,0.0004
61,1.560680329799652,1.5327298641204834,0.2692307692307692,0.8461538461538461,0.21428571428571427,0.8571428571428571,0.0004
62,1.5480533838272095,1.5315008163452148,0.36538461538461536,0.8269230769230769,0.21428571428571427,0.8571428571428571,0.0004
63,1.5517653226852417,1.5303068161010742,0.4230769230769231,0.8269230769230769,0.21428571428571427,0.8571428571428571,0.0004
64,1.5866010785102844,1.529025673866272,0.23076923076923078,0.8269230769230769,0.21428571428571427,0.8571428571428571,0.0004
65,1.6551594138145447,1.52839994430542,0.3269230769230769,0.8269230769230769,0.21428571428571427,0.8571428571428571,0.0004
66,1.7278990745544434,1.5287517309188843,0.3076923076923077,0.8269230769230769,0.21428571428571427,0.8571428571428571,0.0004
67,1.5828912258148193,1.530694842338562,0.3269230769230769,0.8269230769230769,0.21428571428571427,0.8571428571428571,0.0004
68,1.5529122352600098,1.5324665307998657,0.36538461538461536,0.8269230769230769,0.21428571428571427,0.8571428571428571,0.0004
69,1.5799371600151062,1.5339857339859009,0.3269230769230769,0.8269230769230769,0.21428571428571427,0.8571428571428571,0.0004
70,1.5641690492630005,1.5359333753585815,0.36538461538461536,0.8269230769230769,0.21428571428571427,0.8571428571428571,0.0004
71,1.5813847184181213,1.5374659299850464,0.4423076923076923,0.8269230769230769,0.21428571428571427,0.8571428571428571,0.0004
72,1.59421706199646,1.5389009714126587,0.36538461538461536,0.8269230769230769,0.21428571428571427,0.8571428571428571,0.0004
73,1.570405662059784,1.5403468608856201,0.4423076923076923,0.8269230769230769,0.21428571428571427,0.8571428571428571,0.0004
74,1.625089168548584,1.5426466464996338,0.25,0.8269230769230769,0.21428571428571427,0.8571428571428571,0.0004
75,1.5544080138206482,1.5447111129760742,0.25,0.8269230769230769,0.21428571428571427,0.8571428571428571,0.0004
76,1.5780455470085144,1.5458382368087769,0.3269230769230769,0.8269230769230769,0.21428571428571427,0.8571428571428571,0.0004
77,1.6144095659255981,1.5466716289520264,0.34615384615384615,0.8269230769230769,0.21428571428571427,0.8571428571428571,0.0004
78,1.5507043600082397,1.5474340915679932,0.38461538461538464,0.8269230769230769,0.21428571428571427,0.8571428571428571,0.0004
79,1.5949808359146118,1.5472521781921387,0.2692307692307692,0.8269230769230769,0.21428571428571427,0.8571428571428571,0.0004
80,1.6175235509872437,1.546842098236084,0.2692307692307692,0.8269230769230769,0.21428571428571427,0.8571428571428571,0.0004
81,1.5884005427360535,1.5465019941329956,0.3269230769230769,0.8269230769230769,0.21428571428571427,0.8571428571428571,0.0004
82,1.6051080822944641,1.5463261604309082,0.23076923076923078,0.8269230769230769,0.21428571428571427,0.8571428571428571,0.0004
83,1.570449411869049,1.5461291074752808,0.28846153846153844,0.8269230769230769,0.21428571428571427,0.8571428571428571,0.0004
84,1.5365666151046753,1.5455248355865479,0.3076923076923077,0.8269230769230769,0.21428571428571427,0.8571428571428571,0.0004
85,1.5649135112762451,1.5440781116485596,0.34615384615384615,0.8269230769230769,0.21428571428571427,0.8571428571428571,0.0004
86,1.5551332831382751,1.5427429676055908,0.3269230769230769,0.8269230769230769,0.21428571428571427,0.8571428571428571,0.0004
87,1.576622724533081,1.5412447452545166,0.38461538461538464,0.8269230769230769,0.21428571428571427,0.8571428571428571,0.0004
88,1.6627508997917175,1.539798378944397,0.40384615384615385,0.8269230769230769,0.21428571428571427,0.8571428571428571,0.0004
89,1.5821250081062317,1.5390962362289429,0.38461538461538464,0.8269230769230769,0.21428571428571427,0.8571428571428571,0.0004
90,1.5408158898353577,1.5379762649536133,0.4423076923076923,0.8269230769230769,0.21428571428571427,0.8571428571428571,0.0004
91,1.588680386543274,1.536970853805542,0.36538461538461536,0.8269230769230769,0.21428571428571427,0.8571428571428571,0.0004
92,1.5734440684318542,1.5362281799316406,0.40384615384615385,0.8269230769230769,0.21428571428571427,0.8571428571428571,0.0004
93,1.5488104820251465,1.535528540611267,0.40384615384615385,0.8269230769230769,0.21428571428571427,0.8571428571428571,0.0004
94,1.6191506385803223,1.535017967224121,0.3076923076923077,0.8269230769230769,0.21428571428571427,0.8571428571428571,0.0004
95,1.6194332242012024,1.5349435806274414,0.40384615384615385,0.8269230769230769,0.21428571428571427,0.8571428571428571,0.0004
96,1.5903414487838745,1.5356605052947998,0.3076923076923077,0.8269230769230769,0.21428571428571427,0.8571428571428571,0.0004
97,1.5714369416236877,1.535843849182129,0.3269230769230769,0.8269230769230769,0.21428571428571427,0.8571428571428571,0.0004
98,1.614566147327423,1.5368822813034058,0.2692307692307692,0.8269230769230769,0.21428571428571427,0.8571428571428571,0.0004
99,1.5794519782066345,1.5380061864852905,0.3269230769230769,0.8269230769230769,0.21428571428571427,0.8571428571428571,0.0004
100,1.576144516468048,1.539793848991394,0.38461538461538464,0.8269230769230769,0.21428571428571427,0.8571428571428571,0.0004
101,1.5550572872161865,1.540292739868164,0.3076923076923077,0.8269230769230769,0.21428571428571427,0.8571428571428571,0.0004
102,1.5955581665039062,1.5400575399398804,0.3269230769230769,0.8269230769230769,0.21428571428571427,0.8571428571428571,0.0004
103,1.5719197988510132,1.539921522140503,0.38461538461538464,0.8269230769230769,0.21428571428571427,0.8571428571428571,0.0004
104,1.6183648109436035,1.5404863357543945,0.34615384615384615,0.8269230769230769,0.21428571428571427,0.8571428571428571,0.0004
105,1.5668511986732483,1.54054856300354,0.19230769230769232,0.8269230769230769,0.21428571428571427,0.8571428571428571,0.0004
106,1.5592390298843384,1.5401678085327148,0.40384615384615385,0.8269230769230769,0.21428571428571427,0.8571428571428571,0.0004
107,1.5453870296478271,1.5393261909484863,0.40384615384615385,0.8269230769230769,0.21428571428571427,0.8571428571428571,0.0004
108,1.573027491569519,1.5384312868118286,0.34615384615384615,0.8269230769230769,0.21428571428571427,0.8571428571428571,0.0004
109,1.5773866176605225,1.5371772050857544,0.4423076923076923,0.8269230769230769,0.21428571428571427,0.8571428571428571,0.0004
110,1.6101177334785461,1.5361428260803223,0.3269230769230769,0.8269230769230769,0.21428571428571427,0.8571428571428571,0.0004
111,1.5532727241516113,1.5356359481811523,0.34615384615384615,0.8269230769230769,0.21428571428571427,0.8571428571428571,0.0004
112,1.6284148693084717,1.5347189903259277,0.38461538461538464,0.8269230769230769,0.21428571428571427,0.8571428571428571,0.0004
113,1.5884085893630981,1.534663200378418,0.40384615384615385,0.8269230769230769,0.21428571428571427,0.8571428571428571,0.0004
114,1.5715512037277222,1.5354876518249512,0.4423076923076923,0.8269230769230769,0.21428571428571427,0.8571428571428571,0.0004
115,1.5589640140533447,1.5361924171447754,0.36538461538461536,0.8269230769230769,0.21428571428571427,0.8571428571428571,0.0004
116,1.5554181337356567,1.5367435216903687,0.40384615384615385,0.8269230769230769,0.21428571428571427,0.8571428571428571,0.0004
117,1.6107908487319946,1.5371880531311035,0.4230769230769231,0.8269230769230769,0.21428571428571427,0.8571428571428571,0.0004
118,1.5572848320007324,1.5377464294433594,0.36538461538461536,0.8269230769230769,0.21428571428571427,0.8571428571428571,0.0004
119,1.545996069908142,1.5387593507766724,0.34615384615384615,0.8269230769230769,0.21428571428571427,0.8571428571428571,0.0004
120,1.6319945454597473,1.5388480424880981,0.46153846153846156,0.8269230769230769,0.21428571428571427,0.8571428571428571,0.0004
121,1.6125678420066833,1.539515733718872,0.5192307692307693,0.8269230769230769,0.21428571428571427,0.8571428571428571,0.0004
122,1.5381622314453125,1.5404202938079834,0.3076923076923077,0.8269230769230769,0.21428571428571427,0.8571428571428571,0.0004
123,1.5259557962417603,1.541229009628296,0.36538461538461536,0.8269230769230769,0.21428571428571427,0.8571428571428571,0.0004
124,1.5665330290794373,1.5420753955841064,0.34615384615384615,0.8269230769230769,0.21428571428571427,0.8571428571428571,0.0004
125,1.5881112217903137,1.543063759803772,0.23076923076923078,0.8269230769230769,0.21428571428571427,0.8571428571428571,0.0004
126,1.6168339252471924,1.5437031984329224,0.3269230769230769,0.8269230769230769,0.21428571428571427,0.8571428571428571,0.0004
127,1.5378828048706055,1.5442736148834229,0.4230769230769231,0.8269230769230769,0.21428571428571427,0.8571428571428571,0.0004
128,1.6578220129013062,1.5449578762054443,0.25,0.8269230769230769,0.21428571428571427,0.8571428571428571,0.0004
129,1.5659328699111938,1.5457708835601807,0.34615384615384615,0.8269230769230769,0.21428571428571427,0.8571428571428571,0.0004
130,1.5273890495300293,1.5456265211105347,0.4230769230769231,0.8269230769230769,0.21428571428571427,0.8571428571428571,0.0004
131,1.6115323305130005,1.5457453727722168,0.28846153846153844,0.8269230769230769,0.21428571428571427,0.8571428571428571,0.0004
132,1.5755688548088074,1.5454503297805786,0.34615384615384615,0.8269230769230769,0.21428571428571427,0.8571428571428571,0.0004
133,1.6144249439239502,1.5455023050308228,0.3076923076923077,0.8269230769230769,0.21428571428571427,0.8571428571428571,0.0004
134,1.6024625301361084,1.5453892946243286,0.4423076923076923,0.8269230769230769,0.21428571428571427,0.8571428571428571,0.0004
135,1.5681122541427612,1.5459022521972656,0.3269230769230769,0.8269230769230769,0.21428571428571427,0.8571428571428571,0.0004
136,1.6221836805343628,1.5459362268447876,0.3076923076923077,0.8269230769230769,0.21428571428571427,0.8571428571428571,0.0004
137,1.5500507354736328,1.5461006164550781,0.38461538461538464,0.8269230769230769,0.21428571428571427,0.8571428571428571,0.0004
138,1.5490163564682007,1.545616865158081,0.38461538461538464,0.8269230769230769,0.21428571428571427,0.8571428571428571,0.0004
139,1.587157130241394,1.5448559522628784,0.2692307692307692,0.8269230769230769,0.21428571428571427,0.8571428571428571,0.0004
140,1.5876295566558838,1.54397451877594,0.3269230769230769,0.8269230769230769,0.21428571428571427,0.8571428571428571,0.0004
141,1.6193021535873413,1.5428287982940674,0.3076923076923077,0.8269230769230769,0.21428571428571427,0.8571428571428571,0.0004
142,1.5925920605659485,1.5423996448516846,0.38461538461538464,0.8269230769230769,0.21428571428571427,0.8571428571428571,0.0004
143,1.543186604976654,1.5414862632751465,0.34615384615384615,0.8269230769230769,0.21428571428571427,0.8571428571428571,0.0004
144,1.5387831330299377,1.5405226945877075,0.4230769230769231,0.8269230769230769,0.21428571428571427,0.8571428571428571,0.0004
145,1.5445591807365417,1.5389167070388794,0.4230769230769231,0.8269230769230769,0.21428571428571427,0.8571428571428571,0.0004
146,1.6261350512504578,1.5375224351882935,0.34615384615384615,0.8269230769230769,0.21428571428571427,0.8571428571428571,0.0004
147,1.6036812663078308,1.5360116958618164,0.38461538461538464,0.8269230769230769,0.21428571428571427,0.8571428571428571,0.0004
148,1.6003572344779968,1.5346777439117432,0.3076923076923077,0.8269230769230769,0.21428571428571427,0.8571428571428571,0.0004
149,1.598082721233368,1.5337672233581543,0.2692307692307692,0.8269230769230769,0.21428571428571427,0.8571428571428571,0.0004
150,1.5876607298851013,1.5335330963134766,0.28846153846153844,0.8269230769230769,0.21428571428571427,0.8571428571428571,0.0004
151,1.5906128287315369,1.5329742431640625,0.23076923076923078,0.8269230769230769,0.21428571428571427,0.8571428571428571,0.0004
152,1.5130990147590637,1.5322725772857666,0.38461538461538464,0.8269230769230769,0.21428571428571427,0.8571428571428571,0.0004
153,1.5892927050590515,1.5314276218414307,0.3269230769230769,0.8269230769230769,0.21428571428571427,0.8571428571428571,0.0004
154,1.571872353553772,1.5308470726013184,0.3269230769230769,0.8269230769230769,0.21428571428571427,0.8571428571428571,0.0004
155,1.622449278831482,1.5305229425430298,0.36538461538461536,0.8269230769230769,0.21428571428571427,0.8571428571428571,0.0004
156,1.531047761440277,1.5302824974060059,0.36538461538461536,0.8269230769230769,0.21428571428571427,0.8571428571428571,0.0004
157,1.65452241897583,1.5302377939224243,0.25,0.8269230769230769,0.21428571428571427,0.8571428571428571,0.0004
158,1.5481245517730713,1.530089259147644,0.34615384615384615,0.8269230769230769,0.21428571428571427,0.8571428571428571,0.0004
159,1.6056928038597107,1.5302114486694336,0.40384615384615385,0.8269230769230769,0.21428571428571427,0.8571428571428571,0.0004
160,1.5682396292686462,1.5306596755981445,0.36538461538461536,0.8269230769230769,0.21428571428571427,0.8571428571428571,0.0004
161,1.565489113330841,1.5309662818908691,0.34615384615384615,0.8269230769230769,0.21428571428571427,0.8571428571428571,0.0004
162,1.5849955081939697,1.5310790538787842,0.28846153846153844,0.8269230769230769,0.21428571428571427,0.8571428571428571,0.0004
163,1.6100516319274902,1.5316746234893799,0.36538461538461536,0.8269230769230769,0.21428571428571427,0.8571428571428571,0.0004
164,1.5435680747032166,1.5325754880905151,0.34615384615384615,0.8269230769230769,0.21428571428571427,0.8571428571428571,0.0004
165,1.60438472032547,1.5336644649505615,0.3269230769230769,0.8269230769230769,0.21428571428571427,0.8571428571428571,0.0004
166,1.564674198627472,1.5345110893249512,0.3269230769230769,0.8269230769230769,0.21428571428571427,0.8571428571428571,0.0004
167,1.5906773209571838,1.5353254079818726,0.40384615384615385,0.8269230769230769,0.21428571428571427,0.8571428571428571,0.0004
168,1.5862638354301453,1.5362828969955444,0.3269230769230769,0.8269230769230769,0.21428571428571427,0.8571428571428571,0.0004
169,1.5926863551139832,1.5377936363220215,0.40384615384615385,0.8269230769230769,0.21428571428571427,0.8571428571428571,0.0004
170,1.5701040029525757,1.538184642791748,0.3076923076923077,0.8269230769230769,0.21428571428571427,0.8571428571428571,0.0004
171,1.6356655955314636,1.5379407405853271,0.3076923076923077,0.8269230769230769,0.21428571428571427,0.8571428571428571,0.0004
172,1.5645710825920105,1.5389894247055054,0.3269230769230769,0.8269230769230769,0.21428571428571427,0.8571428571428571,0.0004
173,1.6218395233154297,1.5389257669448853,0.3076923076923077,0.8269230769230769,0.21428571428571427,0.8571428571428571,0.0004
174,1.6295458674430847,1.5399360656738281,0.25,0.8269230769230769,0.21428571428571427,0.8571428571428571,0.0004
175,1.5836086869239807,1.5405688285827637,0.17307692307692307,0.8269230769230769,0.21428571428571427,0.8571428571428571,0.0004
176,1.6452931761741638,1.5413142442703247,0.3076923076923077,0.8269230769230769,0.21428571428571427,0.8571428571428571,0.0004
177,1.5615599751472473,1.5426603555679321,0.38461538461538464,0.8269230769230769,0.21428571428571427,0.8571428571428571,0.0004
178,1.6477010250091553,1.5435681343078613,0.23076923076923078,0.8269230769230769,0.21428571428571427,0.8571428571428571,0.0004
179,1.542418897151947,1.5449886322021484,0.28846153846153844,0.8269230769230769,0.21428571428571427,0.8571428571428571,0.0004
180,1.5567412376403809,1.545100450515747,0.28846153846153844,0.8269230769230769,0.21428571428571427,0.8571428571428571,0.0004
181,1.6226088404655457,1.5442736148834229,0.23076923076923078,0.8269230769230769,0.21428571428571427,0.8571428571428571,0.0004
182,1.538347065448761,1.5436333417892456,0.34615384615384615,0.8269230769230769,0.21428571428571427,0.8571428571428571,0.0004
183,1.5782369375228882,1.5423004627227783,0.28846153846153844,0.8269230769230769,0.21428571428571427,0.8571428571428571,0.0004
184,1.526734173297882,1.5404324531555176,0.40384615384615385,0.8269230769230769,0.21428571428571427,0.8571428571428571,0.0004
185,1.5918251276016235,1.538817286491394,0.3076923076923077,0.8269230769230769,0.21428571428571427,0.8571428571428571,0.0004
186,1.568969190120697,1.5375378131866455,0.3269230769230769,0.8269230769230769,0.21428571428571427,0.8571428571428571,0.0004
187,1.61614990234375,1.53618323802948,0.4230769230769231,0.8269230769230769,0.21428571428571427,0.8571428571428571,0.0004
188,1.5727002620697021,1.5351861715316772,0.36538461538461536,0.8269230769230769,0.21428571428571427,0.8571428571428571,0.0004
189,1.6277398467063904,1.5343973636627197,0.3076923076923077,0.8269230769230769,0.21428571428571427,0.8571428571428571,0.0004
190,1.5836870670318604,1.5337188243865967,0.46153846153846156,0.8269230769230769,0.21428571428571427,0.8571428571428571,0.0004
191,1.5408148169517517,1.533177137374878,0.34615384615384615,0.8269230769230769,0.21428571428571427,0.8571428571428571,0.0004
192,1.558693289756775,1.5328381061553955,0.23076923076923078,0.8269230769230769,0.21428571428571427,0.8571428571428571,0.0004
193,1.5810651183128357,1.5320651531219482,0.36538461538461536,0.8269230769230769,0.21428571428571427,0.8571428571428571,0.0004
194,1.554768443107605,1.5312983989715576,0.40384615384615385,0.8269230769230769,0.21428571428571427,0.8571428571428571,0.0004
195,1.5854453444480896,1.530868411064148,0.2692307692307692,0.8269230769230769,0.21428571428571427,0.8571428571428571,0.0004
196,1.6200326681137085,1.5309078693389893,0.34615384615384615,0.8269230769230769,0.21428571428571427,0.8571428571428571,0.0004
197,1.551593840122223,1.5311601161956787,0.4230769230769231,0.8269230769230769,0.21428571428571427,0.8571428571428571,0.0004
198,1.6073005199432373,1.531820297241211,0.21153846153846154,0.8269230769230769,0.21428571428571427,0.8571428571428571,0.0004
199,1.5945290327072144,1.5328497886657715,0.3076923076923077,0.8269230769230769,0.21428571428571427,0.8571428571428571,0.0004
200,1.5800715684890747,1.533994197845459,0.3076923076923077,0.8269230769230769,0.21428571428571427,0.8571428571428571,0.0004
201,1.5777702927589417,1.5355770587921143,0.3076923076923077,0.8269230769230769,0.21428571428571427,0.8571428571428571,0.0004
202,1.5708231925964355,1.5371909141540527,0.36538461538461536,0.8269230769230769,0.21428571428571427,0.8571428571428571,0.0004
203,1.5879367589950562,1.5388050079345703,0.36538461538461536,0.8269230769230769,0.21428571428571427,0.8571428571428571,0.0004
204,1.5286524295806885,1.5400331020355225,0.38461538461538464,0.8269230769230769,0.21428571428571427,0.8571428571428571,0.0004
205,1.5944738388061523,1.5401403903961182,0.38461538461538464,0.8269230769230769,0.21428571428571427,0.8571428571428571,0.0004
206,1.614867091178894,1.5407190322875977,0.36538461538461536,0.8269230769230769,0.21428571428571427,0.8571428571428571,0.0004
207,1.6145780086517334,1.5416507720947266,0.2692307692307692,0.8269230769230769,0.21428571428571427,0.8571428571428571,0.0004
208,1.5768156051635742,1.5425045490264893,0.40384615384615385,0.8269230769230769,0.21428571428571427,0.8571428571428571,0.0004
209,1.5894603729248047,1.5435044765472412,0.3269230769230769,0.8269230769230769,0.21428571428571427,0.8571428571428571,0.0004
210,1.535445749759674,1.5433735847473145,0.28846153846153844,0.8269230769230769,0.21428571428571427,0.8571428571428571,0.0004
211,1.4958281517028809,1.5422725677490234,0.3269230769230769,0.8269230769230769,0.21428571428571427,0.8571428571428571,0.0004
212,1.568145751953125,1.540688395500183,0.3076923076923077,0.8269230769230769,0.21428571428571427,0.8571428571428571,0.0004
213,1.591611385345459,1.5392084121704102,0.46153846153846156,0.8269230769230769,0.21428571428571427,0.8571428571428571,0.0004
214,1.5912734866142273,1.5384299755096436,0.36538461538461536,0.8269230769230769,0.21428571428571427,0.8571428571428571,0.0004
215,1.5738005638122559,1.5383604764938354,0.40384615384615385,0.8269230769230769,0.21428571428571427,0.8571428571428571,0.0004
216,1.617987871170044,1.538797378540039,0.28846153846153844,0.8269230769230769,0.21428571428571427,0.8571428571428571,0.0004
217,1.6242879629135132,1.5393050909042358,0.34615384615384615,0.8269230769230769,0.21428571428571427,0.8571428571428571,0.0004
218,1.5848708748817444,1.540078043937683,0.3269230769230769,0.8269230769230769,0.21428571428571427,0.8571428571428571,0.0004
219,1.5813157558441162,1.5401909351348877,0.40384615384615385,0.8269230769230769,0.21428571428571427,0.8571428571428571,0.0004
220,1.5755460858345032,1.5414153337478638,0.38461538461538464,0.8269230769230769,0.21428571428571427,0.8571428571428571,0.0004
221,1.6340540051460266,1.5426133871078491,0.25,0.8269230769230769,0.21428571428571427,0.8571428571428571,0.0004
222,1.6557644605636597,1.543924331665039,0.34615384615384615,0.8269230769230769,0.21428571428571427,0.8571428571428571,0.0004
223,1.6062323451042175,1.5467934608459473,0.2692307692307692,0.8269230769230769,0.21428571428571427,0.8571428571428571,0.0004
224,1.616519033908844,1.549085259437561,0.34615384615384615,0.8269230769230769,0.21428571428571427,0.8571428571428571,0.0004
225,1.658361554145813,1.551844596862793,0.2692307692307692,0.8269230769230769,0.21428571428571427,0.8571428571428571,0.0004
226,1.5947074890136719,1.554269552230835,0.36538461538461536,0.8269230769230769,0.21428571428571427,0.8571428571428571,0.0004
227,1.5481563806533813,1.5567923784255981,0.38461538461538464,0.8269230769230769,0.21428571428571427,0.8571428571428571,0.0004
228,1.6222020387649536,1.5579214096069336,0.36538461538461536,0.8269230769230769,0.21428571428571427,0.8571428571428571,0.0004
229,1.5616405010223389,1.5589014291763306,0.4230769230769231,0.8269230769230769,0.21428571428571427,0.8571428571428571,0.0004
230,1.599085509777069,1.5589460134506226,0.46153846153846156,0.8269230769230769,0.21428571428571427,0.8571428571428571,0.0004
231,1.6121799945831299,1.558929443359375,0.23076923076923078,0.8269230769230769,0.21428571428571427,0.8571428571428571,0.0004
232,1.575163185596466,1.5586326122283936,0.34615384615384615,0.8269230769230769,0.21428571428571427,0.8571428571428571,0.0004
233,1.5664477944374084,1.556670904159546,0.38461538461538464,0.8269230769230769,0.21428571428571427,0.8571428571428571,0.0004
234,1.586769461631775,1.55531644821167,0.36538461538461536,0.8269230769230769,0.21428571428571427,0.8571428571428571,0.0004
235,1.60080885887146,1.5534261465072632,0.28846153846153844,0.8269230769230769,0.21428571428571427,0.8571428571428571,0.0004
236,1.583373486995697,1.552018404006958,0.40384615384615385,0.8269230769230769,0.21428571428571427,0.8571428571428571,0.0004
237,1.5715143084526062,1.5503507852554321,0.34615384615384615,0.8269230769230769,0.21428571428571427,0.8571428571428571,0.0004
238,1.5823700428009033,1.5482027530670166,0.3269230769230769,0.8269230769230769,0.21428571428571427,0.8571428571428571,0.0004
239,1.5645034909248352,1.5464221239089966,0.40384615384615385,0.8269230769230769,0.21428571428571427,0.8571428571428571,0.0004
240,1.5303273797035217,1.5444518327713013,0.3269230769230769,0.8269230769230769,0.21428571428571427,0.8571428571428571,0.0004
241,1.552156388759613,1.5429104566574097,0.40384615384615385,0.8269230769230769,0.21428571428571427,0.8571428571428571,0.0004
242,1.571388840675354,1.5414257049560547,0.36538461538461536,0.8269230769230769,0.21428571428571427,0.8571428571428571,0.0004
243,1.6185153722763062,1.5407195091247559,0.2692307692307692,0.8269230769230769,0.21428571428571427,0.8571428571428571,0.0004
244,1.6238969564437866,1.540263056755066,0.40384615384615385,0.8269230769230769,0.21428571428571427,0.8571428571428571,0.0004
245,1.586792230606079,1.5401442050933838,0.2692307692307692,0.8269230769230769,0.21428571428571427,0.8571428571428571,0.0004
246,1.5318929553031921,1.5401511192321777,0.34615384615384615,0.8269230769230769,0.21428571428571427,0.8571428571428571,0.0004
247,1.6034582257270813,1.5401362180709839,0.38461538461538464,0.8269230769230769,0.21428571428571427,0.8571428571428571,0.0004
248,1.6081756949424744,1.5405139923095703,0.4423076923076923,0.8269230769230769,0.21428571428571427,0.8571428571428571,0.0004
249,1.6185548305511475,1.541237235069275,0.38461538461538464,0.8269230769230769,0.21428571428571427,0.8571428571428571,0.0004
250,1.521210789680481,1.5414493083953857,0.36538461538461536,0.8269230769230769,0.21428571428571427,0.8571428571428571,0.0004
251,1.5782206058502197,1.5421679019927979,0.3076923076923077,0.8269230769230769,0.21428571428571427,0.8571428571428571,0.0004
252,1.5785886645317078,1.5424065589904785,0.36538461538461536,0.8269230769230769,0.21428571428571427,0.8571428571428571,0.0004
253,1.6379088163375854,1.5423567295074463,0.28846153846153844,0.8269230769230769,0.21428571428571427,0.8571428571428571,0.0004
254,1.637062907218933,1.542787790298462,0.38461538461538464,0.8269230769230769,0.21428571428571427,0.8571428571428571,0.0004
255,1.6298201084136963,1.5440518856048584,0.34615384615384615,0.8269230769230769,0.21428571428571427,0.8571428571428571,0.0004
256,1.5510043501853943,1.544844388961792,0.34615384615384615,0.8269230769230769,0.21428571428571427,0.8571428571428571,0.0004
257,1.5324945449829102,1.5461273193359375,0.38461538461538464,0.8269230769230769,0.21428571428571427,0.8571428571428571,0.0004
258,1.6285884976387024,1.546959400177002,0.4230769230769231,0.8269230769230769,0.21428571428571427,0.8571428571428571,0.0004
259,1.5998717546463013,1.5474843978881836,0.3076923076923077,0.8269230769230769,0.21428571428571427,0.8571428571428571,0.0004
260,1.5827308893203735,1.5485548973083496,0.40384615384615385,0.8269230769230769,0.21428571428571427,0.8571428571428571,0.0004
261,1.5372368693351746,1.5488163232803345,0.34615384615384615,0.8269230769230769,0.21428571428571427,0.8571428571428571,0.0004
262,1.5860025882720947,1.54792058467865,0.34615384615384615,0.8269230769230769,0.21428571428571427,0.8571428571428571,0.0004
263,1.6486586332321167,1.5473405122756958,0.36538461538461536,0.8269230769230769,0.21428571428571427,0.8571428571428571,0.0004
264,1.584949016571045,1.547226905822754,0.3076923076923077,0.8269230769230769,0.21428571428571427,0.8571428571428571,0.0004
265,1.5831127166748047,1.546739101409912,0.34615384615384615,0.8269230769230769,0.21428571428571427,0.8571428571428571,0.0004
266,1.5384578704833984,1.5454328060150146,0.46153846153846156,0.8269230769230769,0.21428571428571427,0.8571428571428571,0.0004
267,1.5380973815917969,1.5436429977416992,0.38461538461538464,0.8269230769230769,0.21428571428571427,0.8571428571428571,0.0004
268,1.601438820362091,1.5418845415115356,0.3076923076923077,0.8269230769230769,0.21428571428571427,0.8571428571428571,0.0004
269,1.566491961479187,1.5401378870010376,0.38461538461538464,0.8269230769230769,0.21428571428571427,0.8571428571428571,0.0004
270,1.5939536094665527,1.5383530855178833,0.4230769230769231,0.8269230769230769,0.21428571428571427,0.8571428571428571,0.0004
271,1.5379481315612793,1.5368069410324097,0.4230769230769231,0.8269230769230769,0.21428571428571427,0.8571428571428571,0.0004
272,1.5652645230293274,1.5355881452560425,0.40384615384615385,0.8269230769230769,0.21428571428571427,0.8571428571428571,0.0004
273,1.5921432971954346,1.5346136093139648,0.3076923076923077,0.8269230769230769,0.21428571428571427,0.8571428571428571,0.0004
274,1.5859029293060303,1.5344759225845337,0.2692307692307692,0.8269230769230769,0.21428571428571427,0.8571428571428571,0.0004
275,1.5980196595191956,1.5338975191116333,0.3076923076923077,0.8269230769230769,0.21428571428571427,0.8571428571428571,0.0004
276,1.5966824293136597,1.5337086915969849,0.23076923076923078,0.8269230769230769,0.21428571428571427,0.8571428571428571,0.0004
277,1.5889156460762024,1.5335369110107422,0.28846153846153844,0.8269230769230769,0.21428571428571427,0.8571428571428571,0.0004
278,1.6126285791397095,1.5333868265151978,0.3076923076923077,0.8269230769230769,0.21428571428571427,0.8571428571428571,0.0004
279,1.5315600037574768,1.5336503982543945,0.36538461538461536,0.8269230769230769,0.21428571428571427,0.8571428571428571,0.0004
280,1.5540537238121033,1.5340720415115356,0.3076923076923077,0.8269230769230769,0.21428571428571427,0.8571428571428571,0.0004
281,1.5783789157867432,1.5342209339141846,0.40384615384615385,0.8269230769230769,0.21428571428571427,0.8571428571428571,0.0004
282,1.5523241758346558,1.5343079566955566,0.36538461538461536,0.8269230769230769,0.21428571428571427,0.8571428571428571,0.0004
283,1.5768530368804932,1.5345525741577148,0.34615384615384615,0.8269230769230769,0.21428571428571427,0.8571428571428571,0.0004
284,1.596822202205658,1.5348341464996338,0.25,0.8269230769230769,0.21428571428571427,0.8571428571428571,0.0004
285,1.5911463499069214,1.5352261066436768,0.3076923076923077,0.8269230769230769,0.21428571428571427,0.8571428571428571,0.0004
286,1.6231731176376343,1.5356025695800781,0.25,0.8269230769230769,0.21428571428571427,0.8571428571428571,0.0004
287,1.6005743145942688,1.5362404584884644,0.2692307692307692,0.8269230769230769,0.21428571428571427,0.8571428571428571,0.0004
288,1.6035599112510681,1.5370063781738281,0.3269230769230769,0.8269230769230769,0.21428571428571427,0.8571428571428571,0.0004
289,1.5564441084861755,1.5377880334854126,0.3269230769230769,0.8269230769230769,0.21428571428571427,0.8571428571428571,0.0004
290,1.641040325164795,1.538491129875183,0.2692307692307692,0.8269230769230769,0.21428571428571427,0.8571428571428571,0.0004
291,1.5894205570220947,1.5396593809127808,0.3269230769230769,0.8269230769230769,0.21428571428571427,0.8571428571428571,0.0004
292,1.58735191822052,1.5405795574188232,0.23076923076923078,0.8269230769230769,0.21428571428571427,0.8571428571428571,0.0004
293,1.5641034841537476,1.5413260459899902,0.34615384615384615,0.8269230769230769,0.21428571428571427,0.8571428571428571,0.0004
294,1.6065841913223267,1.541671633720398,0.38461538461538464,0.8269230769230769,0.21428571428571427,0.8571428571428571,0.0004
295,1.5534704327583313,1.5422425270080566,0.38461538461538464,0.8269230769230769,0.21428571428571427,0.8571428571428571,0.0004
296,1.5680710077285767,1.5427318811416626,0.36538461538461536,0.8269230769230769,0.21428571428571427,0.8571428571428571,0.0004
297,1.5725690126419067,1.5433475971221924,0.40384615384615385,0.8269230769230769,0.21428571428571427,0.8571428571428571,0.0004
298,1.5896435976028442,1.5441575050354004,0.3269230769230769,0.8269230769230769,0.21428571428571427,0.8571428571428571,0.0004
299,1.6020044088363647,1.5449438095092773,0.3076923076923077,0.8269230769230769,0.21428571428571427,0.8571428571428571,0.0004
300,1.6003090739250183,1.5456238985061646,0.3269230769230769,0.8269230769230769,0.21428571428571427,0.8571428571428571,0.0004
301,1.5506030321121216,1.546342134475708,0.36538461538461536,0.8269230769230769,0.21428571428571427,0.8571428571428571,0.0004
302,1.579701840877533,1.5475302934646606,0.34615384615384615,0.8269230769230769,0.21428571428571427,0.8571428571428571,0.0004
303,1.544268786907196,1.5476553440093994,0.36538461538461536,0.8269230769230769,0.21428571428571427,0.8571428571428571,0.0004
304,1.5986366271972656,1.5478733777999878,0.28846153846153844,0.8269230769230769,0.21428571428571427,0.8571428571428571,0.0004
305,1.5830705165863037,1.5480413436889648,0.3269230769230769,0.8269230769230769,0.21428571428571427,0.8571428571428571,0.0004
306,1.5436931848526,1.547989010810852,0.3076923076923077,0.8269230769230769,0.21428571428571427,0.8571428571428571,0.0004
307,1.5992671251296997,1.5474865436553955,0.4423076923076923,0.8269230769230769,0.21428571428571427,0.8571428571428571,0.0004
308,1.601134717464447,1.5472865104675293,0.2692307692307692,0.8269230769230769,0.21428571428571427,0.8571428571428571,0.0004
309,1.5975216627120972,1.5468008518218994,0.3076923076923077,0.8269230769230769,0.21428571428571427,0.8571428571428571,0.0004
310,1.5633202195167542,1.5461366176605225,0.38461538461538464,0.8269230769230769,0.21428571428571427,0.8571428571428571,0.0004
311,1.576008677482605,1.5455186367034912,0.3076923076923077,0.8269230769230769,0.21428571428571427,0.8571428571428571,0.0004
312,1.6125544905662537,1.5446316003799438,0.38461538461538464,0.8269230769230769,0.21428571428571427,0.8571428571428571,0.0004
313,1.5844687223434448,1.5438356399536133,0.3269230769230769,0.8269230769230769,0.21428571428571427,0.8571428571428571,0.0004
314,1.587310791015625,1.54304838180542,0.36538461538461536,0.8269230769230769,0.21428571428571427,0.8571428571428571,0.0004
315,1.5508122444152832,1.5421199798583984,0.34615384615384615,0.8269230769230769,0.21428571428571427,0.8571428571428571,0.0004
316,1.5551129579544067,1.5414602756500244,0.34615384615384615,0.8269230769230769,0.21428571428571427,0.8571428571428571,0.0004
317,1.568311333656311,1.5407378673553467,0.3269230769230769,0.8269230769230769,0.21428571428571427,0.8571428571428571,0.0004
318,1.64369136095047,1.5395582914352417,0.34615384615384615,0.8269230769230769,0.21428571428571427,0.8571428571428571,0.0004
319,1.5352806448936462,1.5389459133148193,0.3269230769230769,0.8269230769230769,0.21428571428571427,0.8571428571428571,0.0004
320,1.547351598739624,1.5378458499908447,0.34615384615384615,0.8269230769230769,0.21428571428571427,0.8571428571428571,0.0004
321,1.5547088384628296,1.5364124774932861,0.36538461538461536,0.8269230769230769,0.21428571428571427,0.8571428571428571,0.0004
322,1.568645715713501,1.535008192062378,0.4230769230769231,0.8269230769230769,0.21428571428571427,0.8571428571428571,0.0004
323,1.6201425790786743,1.5336322784423828,0.25,0.8269230769230769,0.21428571428571427,0.8571428571428571,0.0004
324,1.5533851981163025,1.5327467918395996,0.3076923076923077,0.8269230769230769,0.21428571428571427,0.8571428571428571,0.0004
325,1.5951464772224426,1.5324246883392334,0.28846153846153844,0.8269230769230769,0.21428571428571427,0.8571428571428571,0.0004
326,1.592934250831604,1.5322539806365967,0.3269230769230769,0.8269230769230769,0.21428571428571427,0.8571428571428571,0.0004
327,1.5706344842910767,1.5322047472000122,0.3076923076923077,0.8269230769230769,0.21428571428571427,0.8571428571428571,0.0004
328,1.5656251907348633,1.5316853523254395,0.38461538461538464,0.8269230769230769,0.21428571428571427,0.8571428571428571,0.0004
329,1.5758283138275146,1.5315768718719482,0.38461538461538464,0.8269230769230769,0.21428571428571427,0.8571428571428571,0.0004
330,1.6006467938423157,1.5314297676086426,0.38461538461538464,0.8269230769230769,0.21428571428571427,0.8571428571428571,0.0004
331,1.555043637752533,1.5315933227539062,0.40384615384615385,0.8269230769230769,0.21428571428571427,0.8571428571428571,0.0004
332,1.5980255603790283,1.5313776731491089,0.34615384615384615,0.8269230769230769,0.21428571428571427,0.8571428571428571,0.0004
333,1.5730435252189636,1.5316721200942993,0.23076923076923078,0.8269230769230769,0.21428571428571427,0.8571428571428571,0.0004
334,1.555622398853302,1.5315678119659424,0.3076923076923077,0.8269230769230769,0.21428571428571427,0.8571428571428571,0.0004
335,1.5581424832344055,1.5316321849822998,0.28846153846153844,0.8269230769230769,0.21428571428571427,0.8571428571428571,0.0004
336,1.4939688444137573,1.5314030647277832,0.38461538461538464,0.8269230769230769,0.21428571428571427,0.8571428571428571,0.0004
337,1.6108766198158264,1.5310301780700684,0.36538461538461536,0.8269230769230769,0.21428571428571427,0.8571428571428571,0.0004
338,1.5452935099601746,1.5307968854904175,0.40384615384615385,0.8269230769230769,0.21428571428571427,0.8571428571428571,0.0004
339,1.5519189834594727,1.5306880474090576,0.28846153846153844,0.8269230769230769,0.21428571428571427,0.8571428571428571,0.0004
340,1.5520071387290955,1.530778169631958,0.36538461538461536,0.8269230769230769,0.21428571428571427,0.8571428571428571,0.0004
341,1.5651781558990479,1.5309059619903564,0.46153846153846156,0.8269230769230769,0.21428571428571427,0.8571428571428571,0.0004
342,1.5633846521377563,1.531247615814209,0.36538461538461536,0.8269230769230769,0.21428571428571427,0.8571428571428571,0.0004
343,1.5790594220161438,1.5312674045562744,0.36538461538461536,0.8269230769230769,0.21428571428571427,0.8571428571428571,0.0004
344,1.5783352851867676,1.5318140983581543,0.40384615384615385,0.8269230769230769,0.21428571428571427,0.8571428571428571,0.0004
345,1.5959234833717346,1.532721757888794,0.36538461538461536,0.8269230769230769,0.21428571428571427,0.8571428571428571,0.0004
346,1.5973615646362305,1.533846139907837,0.28846153846153844,0.8269230769230769,0.21428571428571427,0.8571428571428571,0.0004
347,1.6132827997207642,1.534984827041626,0.3076923076923077,0.8269230769230769,0.21428571428571427,0.8571428571428571,0.0004
348,1.5623364448547363,1.5359653234481812,0.3269230769230769,0.8269230769230769,0.21428571428571427,0.8571428571428571,0.0004
349,1.5621169805526733,1.5367274284362793,0.3269230769230769,0.8269230769230769,0.21428571428571427,0.8571428571428571,0.0004
350,1.5747897624969482,1.53777277469635,0.36538461538461536,0.8269230769230769,0.21428571428571427,0.8571428571428571,0.0004
351,1.554155707359314,1.5383634567260742,0.34615384615384615,0.8269230769230769,0.21428571428571427,0.8571428571428571,0.0004
352,1.5729963183403015,1.5390312671661377,0.4230769230769231,0.8269230769230769,0.21428571428571427,0.8571428571428571,0.0004
353,1.5941506624221802,1.539444088935852,0.40384615384615385,0.8269230769230769,0.21428571428571427,0.8571428571428571,0.0004
354,1.6044501066207886,1.5401182174682617,0.4807692307692308,0.8269230769230769,0.21428571428571427,0.8571428571428571,0.0004
355,1.6706401109695435,1.5414692163467407,0.36538461538461536,0.8269230769230769,0.21428571428571427,0.8571428571428571,0.0004
356,1.5520052313804626,1.5429627895355225,0.34615384615384615,0.8269230769230769,0.21428571428571427,0.8571428571428571,0.0004
357,1.5398053526878357,1.543856143951416,0.3269230769230769,0.8269230769230769,0.21428571428571427,0.8571428571428571,0.0004
358,1.5684401392936707,1.544564127922058,0.4423076923076923,0.8269230769230769,0.21428571428571427,0.8571428571428571,0.0004
359,1.5446205139160156,1.5450026988983154,0.34615384615384615,0.8269230769230769,0.21428571428571427,0.8571428571428571,0.0004
360,1.560501754283905,1.5450255870819092,0.36538461538461536,0.8269230769230769,0.21428571428571427,0.8571428571428571,0.0004
361,1.6214897632598877,1.5451252460479736,0.2692307692307692,0.8269230769230769,0.21428571428571427,0.8571428571428571,0.0004
362,1.5177415609359741,1.5450384616851807,0.3076923076923077,0.8269230769230769,0.21428571428571427,0.8571428571428571,0.0004
363,1.5772214531898499,1.544985294342041,0.3076923076923077,0.8269230769230769,0.21428571428571427,0.8571428571428571,0.0004
364,1.6369308829307556,1.5451922416687012,0.3076923076923077,0.8269230769230769,0.21428571428571427,0.8571428571428571,0.0004
365,1.5290594100952148,1.5454484224319458,0.34615384615384615,0.8269230769230769,0.21428571428571427,0.8571428571428571,0.0004
366,1.5525755882263184,1.5452979803085327,0.36538461538461536,0.8269230769230769,0.21428571428571427,0.8571428571428571,0.0004
367,1.5879866480827332,1.5454027652740479,0.34615384615384615,0.8269230769230769,0.21428571428571427,0.8571428571428571,0.0004
368,1.5164774656295776,1.5451385974884033,0.40384615384615385,0.8269230769230769,0.21428571428571427,0.8571428571428571,0.0004
369,1.5575539469718933,1.5451738834381104,0.3269230769230769,0.8269230769230769,0.21428571428571427,0.8571428571428571,0.0004
370,1.5907538533210754,1.5446014404296875,0.36538461538461536,0.8269230769230769,0.21428571428571427,0.8571428571428571,0.0004
371,1.5943089723587036,1.544236421585083,0.4230769230769231,0.8269230769230769,0.21428571428571427,0.8571428571428571,0.0004
372,1.5475610494613647,1.5442790985107422,0.3269230769230769,0.8269230769230769,0.21428571428571427,0.8571428571428571,0.0004
373,1.5893489718437195,1.5439841747283936,0.2692307692307692,0.8269230769230769,0.21428571428571427,0.8571428571428571,0.0004
374,1.6740983724594116,1.5440335273742676,0.3269230769230769,0.8269230769230769,0.21428571428571427,0.8571428571428571,0.0004
375,1.5345506072044373,1.5440964698791504,0.28846153846153844,0.8269230769230769,0.21428571428571427,0.8571428571428571,0.0004
376,1.5554657578468323,1.544435739517212,0.3269230769230769,0.8269230769230769,0.21428571428571427,0.8571428571428571,0.0004
377,1.5774120092391968,1.544630765914917,0.34615384615384615,0.8269230769230769,0.21428571428571427,0.8571428571428571,0.0004
378,1.5827170014381409,1.5447295904159546,0.38461538461538464,0.8269230769230769,0.21428571428571427,0.8571428571428571,0.0004
379,1.5765665769577026,1.5446962118148804,0.28846153846153844,0.8269230769230769,0.21428571428571427,0.8571428571428571,0.0004
380,1.5708591938018799,1.5450429916381836,0.28846153846153844,0.8269230769230769,0.21428571428571427,0.8571428571428571,0.0004
381,1.554461121559143,1.5445730686187744,0.3269230769230769,0.8269230769230769,0.21428571428571427,0.8571428571428571,0.0004
382,1.5490989089012146,1.5439138412475586,0.34615384615384615,0.8269230769230769,0.21428571428571427,0.8571428571428571,0.0004
383,1.5640696287155151,1.543411135673523,0.34615384615384615,0.8269230769230769,0.21428571428571427,0.8571428571428571,0.0004
384,1.5667064785957336,1.5430402755737305,0.34615384615384615,0.8269230769230769,0.21428571428571427,0.8571428571428571,0.0004
385,1.5926885604858398,1.542098045349121,0.38461538461538464,0.8269230769230769,0.21428571428571427,0.8571428571428571,0.0004
386,1.5557122230529785,1.5416431427001953,0.34615384615384615,0.8269230769230769,0.21428571428571427,0.8571428571428571,0.0004
387,1.5989583134651184,1.5405592918395996,0.34615384615384615,0.8269230769230769,0.21428571428571427,0.8571428571428571,0.0004
388,1.5732423067092896,1.539932370185852,0.28846153846153844,0.8269230769230769,0.21428571428571427,0.8571428571428571,0.0004
389,1.5635467767715454,1.538748025894165,0.3076923076923077,0.8269230769230769,0.21428571428571427,0.8571428571428571,0.0004
390,1.5603072047233582,1.5377683639526367,0.40384615384615385,0.8269230769230769,0.21428571428571427,0.8571428571428571,0.0004
391,1.5816041827201843,1.5375460386276245,0.28846153846153844,0.8269230769230769,0.21428571428571427,0.8571428571428571,0.0004
392,1.579070508480072,1.5375220775604248,0.40384615384615385,0.8269230769230769,0.21428571428571427,0.8571428571428571,0.0004
393,1.6105072498321533,1.5375277996063232,0.34615384615384615,0.8269230769230769,0.21428571428571427,0.8571428571428571,0.0004
394,1.5534996390342712,1.5377275943756104,0.38461538461538464,0.8269230769230769,0.21428571428571427,0.8571428571428571,0.0004
395,1.5516761541366577,1.5377118587493896,0.36538461538461536,0.8269230769230769,0.21428571428571427,0.8571428571428571,0.0004
396,1.543432354927063,1.5374786853790283,0.34615384615384615,0.8269230769230769,0.21428571428571427,0.8571428571428571,0.0004
397,1.5511430501937866,1.5370781421661377,0.38461538461538464,0.8269230769230769,0.21428571428571427,0.8571428571428571,0.0004
398,1.5600937008857727,1.5365991592407227,0.3269230769230769,0.8269230769230769,0.21428571428571427,0.8571428571428571,0.0004
399,1.577583134174347,1.5362862348556519,0.36538461538461536,0.8269230769230769,0.21428571428571427,0.8571428571428571,0.0004
400,1.5479910969734192,1.536015510559082,0.34615384615384615,0.8269230769230769,0.21428571428571427,0.8571428571428571,0.0004
401,1.5791780948638916,1.5357434749603271,0.3269230769230769,0.8269230769230769,0.21428571428571427,0.8571428571428571,0.0004
402,1.5581018328666687,1.5358834266662598,0.38461538461538464,0.8269230769230769,0.21428571428571427,0.8571428571428571,0.0004
403,1.5351133942604065,1.5357999801635742,0.3269230769230769,0.8269230769230769,0.21428571428571427,0.8571428571428571,0.0004
404,1.5297723412513733,1.535504937171936,0.4230769230769231,0.8269230769230769,0.21428571428571427,0.8571428571428571,0.0004
405,1.5533020496368408,1.5355132818222046,0.3076923076923077,0.8269230769230769,0.21428571428571427,0.8571428571428571,0.0004
406,1.5280261635780334,1.5350823402404785,0.3076923076923077,0.8269230769230769,0.21428571428571427,0.8571428571428571,0.0004
407,1.607926845550537,1.5353463888168335,0.3076923076923077,0.8269230769230769,0.21428571428571427,0.8571428571428571,0.0004
408,1.518357753753662,1.5351322889328003,0.3269230769230769,0.8269230769230769,0.21428571428571427,0.8571428571428571,0.0004
409,1.5833219289779663,1.5348824262619019,0.34615384615384615,0.8269230769230769,0.21428571428571427,0.8571428571428571,0.0004
410,1.5652887225151062,1.5347535610198975,0.38461538461538464,0.8269230769230769,0.21428571428571427,0.8571428571428571,0.0004
411,1.5417689681053162,1.5346109867095947,0.38461538461538464,0.8269230769230769,0.21428571428571427,0.8571428571428571,0.0004
412,1.5585665106773376,1.5343490839004517,0.3076923076923077,0.8269230769230769,0.21428571428571427,0.8571428571428571,0.0004
413,1.5513555407524109,1.534237027168274,0.34615384615384615,0.8269230769230769,0.21428571428571427,0.8571428571428571,0.0004
414,1.5461089611053467,1.5342656373977661,0.34615384615384615,0.8269230769230769,0.21428571428571427,0.8571428571428571,0.0004
415,1.6028700470924377,1.5343854427337646,0.34615384615384615,0.8269230769230769,0.21428571428571427,0.8571428571428571,0.0004
416,1.533753752708435,1.5346362590789795,0.34615384615384615,0.8269230769230769,0.21428571428571427,0.8571428571428571,0.0004
417,1.5735026001930237,1.535191535949707,0.38461538461538464,0.8269230769230769,0.21428571428571427,0.8571428571428571,0.0004
418,1.5674169659614563,1.5351965427398682,0.40384615384615385,0.8269230769230769,0.21428571428571427,0.8571428571428571,0.0004
419,1.5911477208137512,1.5355074405670166,0.2692307692307692,0.8269230769230769,0.21428571428571427,0.8571428571428571,0.0004
420,1.6268070340156555,1.5359549522399902,0.3076923076923077,0.8269230769230769,0.21428571428571427,0.8571428571428571,0.0004
421,1.6435731053352356,1.536630630493164,0.28846153846153844,0.8269230769230769,0.21428571428571427,0.8571428571428571,0.0004
422,1.540170133113861,1.5376019477844238,0.36538461538461536,0.8269230769230769,0.21428571428571427,0.8571428571428571,0.0004
423,1.6097137928009033,1.5389784574508667,0.38461538461538464,0.8269230769230769,0.21428571428571427,0.8571428571428571,0.0004
424,1.6281187534332275,1.5402171611785889,0.3076923076923077,0.8269230769230769,0.21428571428571427,0.8571428571428571,0.0004
425,1.6247355937957764,1.5414642095565796,0.36538461538461536,0.8269230769230769,0.21428571428571427,0.8571428571428571,0.0004
426,1.5531436800956726,1.5426963567733765,0.4230769230769231,0.8269230769230769,0.21428571428571427,0.8571428571428571,0.0004
427,1.5901046395301819,1.543907642364502,0.36538461538461536,0.8269230769230769,0.21428571428571427,0.8571428571428571,0.0004
428,1.5576699376106262,1.545369029045105,0.40384615384615385,0.8269230769230769,0.21428571428571427,0.8571428571428571,0.0004
429,1.5542610883712769,1.5458483695983887,0.3076923076923077,0.8269230769230769,0.21428571428571427,0.8571428571428571,0.0004
430,1.5925503373146057,1.5462441444396973,0.36538461538461536,0.8269230769230769,0.21428571428571427,0.8571428571428571,0.0004
431,1.52554589509964,1.5461583137512207,0.38461538461538464,0.8269230769230769,0.21428571428571427,0.8571428571428571,0.0004
432,1.5648901462554932,1.545163631439209,0.38461538461538464,0.8269230769230769,0.21428571428571427,0.8571428571428571,0.0004
433,1.5532667636871338,1.5444374084472656,0.34615384615384615,0.8269230769230769,0.21428571428571427,0.8571428571428571,0.0004
434,1.5702369213104248,1.5433156490325928,0.40384615384615385,0.8269230769230769,0.21428571428571427,0.8571428571428571,0.0004
435,1.5899699926376343,1.5422725677490234,0.4230769230769231,0.8269230769230769,0.21428571428571427,0.8571428571428571,0.0004
436,1.6103557348251343,1.5413603782653809,0.28846153846153844,0.8269230769230769,0.21428571428571427,0.8571428571428571,0.0004
437,1.5617602467536926,1.5406265258789062,0.36538461538461536,0.8269230769230769,0.21428571428571427,0.8571428571428571,0.0004
438,1.5175584554672241,1.5400736331939697,0.40384615384615385,0.8269230769230769,0.21428571428571427,0.8571428571428571,0.0004
439,1.5539652109146118,1.5393376350402832,0.36538461538461536,0.8269230769230769,0.21428571428571427,0.8571428571428571,0.0004
440,1.5827705264091492,1.5385946035385132,0.38461538461538464,0.8269230769230769,0.21428571428571427,0.8571428571428571,0.0004
441,1.5556118488311768,1.538159966468811,0.38461538461538464,0.8269230769230769,0.21428571428571427,0.8571428571428571,0.0004
442,1.5756621956825256,1.5380113124847412,0.34615384615384615,0.8269230769230769,0.21428571428571427,0.8571428571428571,0.0004
443,1.4961614608764648,1.5378025770187378,0.40384615384615385,0.8269230769230769,0.21428571428571427,0.8571428571428571,0.0004
444,1.5661700963974,1.5375925302505493,0.4423076923076923,0.8269230769230769,0.21428571428571427,0.8571428571428571,0.0004
445,1.5679736733436584,1.5374934673309326,0.38461538461538464,0.8269230769230769,0.21428571428571427,0.8571428571428571,0.0004
446,1.5927488803863525,1.5374693870544434,0.2692307692307692,0.8269230769230769,0.21428571428571427,0.8571428571428571,0.0004
447,1.4972718358039856,1.5372687578201294,0.28846153846153844,0.8269230769230769,0.21428571428571427,0.8571428571428571,0.0004
448,1.5865313410758972,1.537279725074768,0.34615384615384615,0.8269230769230769,0.21428571428571427,0.8571428571428571,0.0004
449,1.5932297706604004,1.5375055074691772,0.4230769230769231,0.8269230769230769,0.21428571428571427,0.8571428571428571,0.0004
450,1.5772074460983276,1.5377745628356934,0.34615384615384615,0.8269230769230769,0.21428571428571427,0.8571428571428571,0.0004
451,1.6335409283638,1.5382850170135498,0.3269230769230769,0.8269230769230769,0.21428571428571427,0.8571428571428571,0.0004
452,1.5534319877624512,1.5386226177215576,0.3269230769230769,0.8269230769230769,0.21428571428571427,0.8571428571428571,0.0004
453,1.5662413239479065,1.5389238595962524,0.38461538461538464,0.8269230769230769,0.21428571428571427,0.8571428571428571,0.0004
454,1.5782074928283691,1.539322853088379,0.3269230769230769,0.8269230769230769,0.21428571428571427,0.8571428571428571,0.0004
455,1.613173007965088,1.5394786596298218,0.40384615384615385,0.8269230769230769,0.21428571428571427,0.8571428571428571,0.0004
456,1.538745403289795,1.540159821510315,0.3269230769230769,0.8269230769230769,0.21428571428571427,0.8571428571428571,0.0004
457,1.623582899570465,1.5405957698822021,0.4807692307692308,0.8269230769230769,0.21428571428571427,0.8571428571428571,0.0004
458,1.5615574717521667,1.5412298440933228,0.38461538461538464,0.8269230769230769,0.21428571428571427,0.8571428571428571,0.0004
459,1.567746877670288,1.5418258905410767,0.34615384615384615,0.8269230769230769,0.21428571428571427,0.8571428571428571,0.0004
460,1.5908928513526917,1.5421876907348633,0.3076923076923077,0.8269230769230769,0.21428571428571427,0.8571428571428571,0.0004
461,1.5617604851722717,1.5425684452056885,0.36538461538461536,0.8269230769230769,0.21428571428571427,0.8571428571428571,0.0004
462,1.554549217224121,1.5425503253936768,0.40384615384615385,0.8269230769230769,0.21428571428571427,0.8571428571428571,0.0004
463,1.575471580028534,1.5420722961425781,0.5,0.8269230769230769,0.21428571428571427,0.8571428571428571,0.0004
464,1.5658391118049622,1.5415480136871338,0.36538461538461536,0.8269230769230769,0.21428571428571427,0.8571428571428571,0.0004
465,1.5660919547080994,1.540147066116333,0.40384615384615385,0.8269230769230769,0.21428571428571427,0.8571428571428571,0.0004
466,1.5703648924827576,1.5389548540115356,0.28846153846153844,0.8269230769230769,0.21428571428571427,0.8571428571428571,0.0004
467,1.6304038763046265,1.5378568172454834,0.38461538461538464,0.8269230769230769,0.21428571428571427,0.8571428571428571,0.0004
468,1.5742616653442383,1.5372838973999023,0.3076923076923077,0.8269230769230769,0.21428571428571427,0.8571428571428571,0.0004
469,1.5668990015983582,1.5366618633270264,0.40384615384615385,0.8269230769230769,0.21428571428571427,0.8571428571428571,0.0004
470,1.5502386093139648,1.5359869003295898,0.2692307692307692,0.8269230769230769,0.21428571428571427,0.8571428571428571,0.0004
471,1.5652830004692078,1.535287857055664,0.34615384615384615,0.8269230769230769,0.21428571428571427,0.8571428571428571,0.0004
472,1.5516771078109741,1.5343962907791138,0.3076923076923077,0.8269230769230769,0.21428571428571427,0.8571428571428571,0.0004
473,1.5366056561470032,1.53367018699646,0.3269230769230769,0.8269230769230769,0.21428571428571427,0.8571428571428571,0.0004
474,1.5285475254058838,1.5330445766448975,0.3076923076923077,0.8269230769230769,0.21428571428571427,0.8571428571428571,0.0004
475,1.5435187816619873,1.532611608505249,0.36538461538461536,0.8269230769230769,0.21428571428571427,0.8571428571428571,0.0004
476,1.5679402947425842,1.532346487045288,0.34615384615384615,0.8269230769230769,0.21428571428571427,0.8571428571428571,0.0004
477,1.6184844970703125,1.5319862365722656,0.34615384615384615,0.8269230769230769,0.21428571428571427,0.8571428571428571,0.0004
478,1.5591245293617249,1.5320932865142822,0.3076923076923077,0.8269230769230769,0.21428571428571427,0.8571428571428571,0.0004
479,1.5617848634719849,1.5321385860443115,0.38461538461538464,0.8269230769230769,0.21428571428571427,0.8571428571428571,0.0004
480,1.6117008924484253,1.531935214996338,0.4230769230769231,0.8269230769230769,0.21428571428571427,0.8571428571428571,0.0004
481,1.6005412340164185,1.5322145223617554,0.3269230769230769,0.8269230769230769,0.21428571428571427,0.8571428571428571,0.0004
482,1.5573629140853882,1.5327664613723755,0.36538461538461536,0.8269230769230769,0.21428571428571427,0.8571428571428571,0.0004
483,1.5914803743362427,1.5334179401397705,0.3269230769230769,0.8269230769230769,0.21428571428571427,0.8571428571428571,0.0004
484,1.59989595413208,1.534651517868042,0.4423076923076923,0.8269230769230769,0.21428571428571427,0.8571428571428571,0.0004
485,1.5440926551818848,1.5351953506469727,0.34615384615384615,0.8269230769230769,0.21428571428571427,0.8571428571428571,0.0004
486,1.5539875626564026,1.5356332063674927,0.34615384615384615,0.8269230769230769,0.21428571428571427,0.8571428571428571,0.0004
487,1.5722397565841675,1.5357801914215088,0.38461538461538464,0.8269230769230769,0.21428571428571427,0.8571428571428571,0.0004
488,1.5689780116081238,1.5358153581619263,0.36538461538461536,0.8269230769230769,0.21428571428571427,0.8571428571428571,0.0004
489,1.6017180681228638,1.535752534866333,0.36538461538461536,0.8269230769230769,0.21428571428571427,0.8571428571428571,0.0004
490,1.6125087141990662,1.535651683807373,0.40384615384615385,0.8269230769230769,0.21428571428571427,0.8571428571428571,0.0004
491,1.5806330442428589,1.5355994701385498,0.3076923076923077,0.8269230769230769,0.21428571428571427,0.8571428571428571,0.0004
492,1.5764833092689514,1.5357706546783447,0.40384615384615385,0.8269230769230769,0.21428571428571427,0.8571428571428571,0.0004
493,1.6187679171562195,1.535543441772461,0.5,0.8269230769230769,0.21428571428571427,0.8571428571428571,0.0004
494,1.5581055879592896,1.536149024963379,0.34615384615384615,0.8269230769230769,0.21428571428571427,0.8571428571428571,0.0004
495,1.5761815905570984,1.5363267660140991,0.40384615384615385,0.8269230769230769,0.21428571428571427,0.8571428571428571,0.0004
496,1.5122390389442444,1.5363816022872925,0.46153846153846156,0.8269230769230769,0.21428571428571427,0.8571428571428571,0.0004
497,1.5869444012641907,1.5356900691986084,0.34615384615384615,0.8269230769230769,0.21428571428571427,0.8571428571428571,0.0004
498,1.566093385219574,1.5350393056869507,0.36538461538461536,0.8269230769230769,0.21428571428571427,0.8571428571428571,0.0004
499,1.604159951210022,1.5342622995376587,0.3269230769230769,0.8269230769230769,0.21428571428571427,0.8571428571428571,0.0004
500,1.5596725940704346,1.5337796211242676,0.38461538461538464,0.8269230769230769,0.21428571428571427,0.8571428571428571,0.0004
501,1.5315421223640442,1.5330955982208252,0.36538461538461536,0.8269230769230769,0.21428571428571427,0.8571428571428571,0.0004
502,1.6119134426116943,1.5328292846679688,0.23076923076923078,0.8269230769230769,0.21428571428571427,0.8571428571428571,0.0004
503,1.5111722350120544,1.5327874422073364,0.40384615384615385,0.8269230769230769,0.21428571428571427,0.8571428571428571,0.0004
504,1.5987460613250732,1.5323474407196045,0.3269230769230769,0.8269230769230769,0.21428571428571427,0.8571428571428571,0.0004
505,1.5879618525505066,1.5319606065750122,0.3076923076923077,0.8269230769230769,0.21428571428571427,0.8571428571428571,0.0004
506,1.5428510308265686,1.531759262084961,0.3269230769230769,0.8269230769230769,0.21428571428571427,0.8571428571428571,0.0004
507,1.5511823892593384,1.531935214996338,0.28846153846153844,0.8269230769230769,0.21428571428571427,0.8571428571428571,0.0004
508,1.5083560347557068,1.5315866470336914,0.4423076923076923,0.8269230769230769,0.21428571428571427,0.8571428571428571,0.0004
509,1.5377785563468933,1.5310444831848145,0.3076923076923077,0.8269230769230769,0.21428571428571427,0.8571428571428571,0.0004
510,1.5124863386154175,1.5304726362228394,0.4230769230769231,0.8269230769230769,0.21428571428571427,0.8571428571428571,0.0004
511,1.555013120174408,1.5298748016357422,0.38461538461538464,0.8269230769230769,0.21428571428571427,0.8571428571428571,0.0004
512,1.587303876876831,1.5294984579086304,0.2692307692307692,0.8269230769230769,0.21428571428571427,0.8571428571428571,0.0004
513,1.6407840251922607,1.529145359992981,0.40384615384615385,0.8269230769230769,0.21428571428571427,0.8571428571428571,0.0004
514,1.5479249358177185,1.5289595127105713,0.34615384615384615,0.8269230769230769,0.21428571428571427,0.8571428571428571,0.0004
515,1.5747427940368652,1.5289522409439087,0.3269230769230769,0.8269230769230769,0.21428571428571427,0.8571428571428571,0.0004
516,1.5276732444763184,1.5288316011428833,0.3076923076923077,0.8269230769230769,0.21428571428571427,0.8571428571428571,0.0004
517,1.513462483882904,1.5291450023651123,0.4423076923076923,0.8269230769230769,0.21428571428571427,0.8571428571428571,0.0004
518,1.6131006479263306,1.5291755199432373,0.4423076923076923,0.8269230769230769,0.21428571428571427,0.8571428571428571,0.0004
519,1.6026323437690735,1.5295085906982422,0.38461538461538464,0.8269230769230769,0.21428571428571427,0.8571428571428571,0.0004
520,1.5460818409919739,1.530200719833374,0.40384615384615385,0.8269230769230769,0.21428571428571427,0.8571428571428571,0.0004
521,1.593840777873993,1.5309875011444092,0.36538461538461536,0.8269230769230769,0.21428571428571427,0.8571428571428571,0.0004
522,1.554684042930603,1.5313903093338013,0.34615384615384615,0.8269230769230769,0.21428571428571427,0.8571428571428571,0.0004
523,1.5596638917922974,1.5317864418029785,0.4230769230769231,0.8269230769230769,0.21428571428571427,0.8571428571428571,0.0004
524,1.5452457070350647,1.5321307182312012,0.40384615384615385,0.8269230769230769,0.21428571428571427,0.8571428571428571,0.0004
525,1.5326260924339294,1.5322017669677734,0.40384615384615385,0.8269230769230769,0.21428571428571427,0.8571428571428571,0.0004
526,1.548910140991211,1.5319563150405884,0.36538461538461536,0.8269230769230769,0.21428571428571427,0.8571428571428571,0.0004
527,1.5548795461654663,1.531848430633545,0.3269230769230769,0.8269230769230769,0.21428571428571427,0.8571428571428571,0.0004
528,1.6013419032096863,1.531488299369812,0.3076923076923077,0.8269230769230769,0.21428571428571427,0.8571428571428571,0.0004
529,1.590504765510559,1.531571626663208,0.3269230769230769,0.8269230769230769,0.21428571428571427,0.8571428571428571,0.0004
530,1.563739538192749,1.5309090614318848,0.36538461538461536,0.8269230769230769,0.21428571428571427,0.8571428571428571,0.0004
531,1.569783091545105,1.530516266822815,0.36538461538461536,0.8269230769230769,0.21428571428571427,0.8571428571428571,0.0004
532,1.6248825192451477,1.5302400588989258,0.36538461538461536,0.8269230769230769,0.21428571428571427,0.8571428571428571,0.0004
533,1.5938221216201782,1.5305436849594116,0.3076923076923077,0.8269230769230769,0.21428571428571427,0.8571428571428571,0.0004
534,1.611676812171936,1.5310451984405518,0.3269230769230769,0.8269230769230769,0.21428571428571427,0.8571428571428571,0.0004
535,1.5651128888130188,1.531866431236267,0.38461538461538464,0.8269230769230769,0.21428571428571427,0.8571428571428571,0.0004
536,1.5691270232200623,1.5324437618255615,0.3076923076923077,0.8269230769230769,0.21428571428571427,0.8571428571428571,0.0004
537,1.559662401676178,1.5328636169433594,0.28846153846153844,0.8269230769230769,0.21428571428571427,0.8571428571428571,0.0004
538,1.527485191822052,1.5330560207366943,0.36538461538461536,0.8269230769230769,0.21428571428571427,0.8571428571428571,0.0004
539,1.5793002843856812,1.5332016944885254,0.28846153846153844,0.8269230769230769,0.21428571428571427,0.8571428571428571,0.0004
540,1.544007420539856,1.5333034992218018,0.3269230769230769,0.8269230769230769,0.21428571428571427,0.8571428571428571,0.0004
541,1.5569331645965576,1.5330965518951416,0.4423076923076923,0.8269230769230769,0.21428571428571427,0.8571428571428571,0.0004
542,1.6318116188049316,1.5335367918014526,0.3076923076923077,0.8269230769230769,0.21428571428571427,0.8571428571428571,0.0004
543,1.5442676544189453,1.5337493419647217,0.28846153846153844,0.8269230769230769,0.21428571428571427,0.8571428571428571,0.0004
544,1.6333519220352173,1.534116506576538,0.3269230769230769,0.8269230769230769,0.21428571428571427,0.8571428571428571,0.0004
545,1.6080122590065002,1.5344963073730469,0.34615384615384615,0.8269230769230769,0.21428571428571427,0.8571428571428571,0.0004
546,1.5272905826568604,1.535341739654541,0.36538461538461536,0.8269230769230769,0.21428571428571427,0.8571428571428571,0.0004
547,1.5662046074867249,1.5358006954193115,0.3269230769230769,0.8269230769230769,0.21428571428571427,0.8571428571428571,0.0004
548,1.584394097328186,1.5355031490325928,0.5192307692307693,0.8269230769230769,0.21428571428571427,0.8571428571428571,0.0004
549,1.5819624066352844,1.5355265140533447,0.38461538461538464,0.8269230769230769,0.21428571428571427,0.8571428571428571,0.0004
550,1.5565955638885498,1.535636067390442,0.28846153846153844,0.8269230769230769,0.21428571428571427,0.8571428571428571,0.0004
551,1.5604265332221985,1.5356378555297852,0.3269230769230769,0.8269230769230769,0.21428571428571427,0.8571428571428571,0.0004
552,1.5967979431152344,1.5357723236083984,0.36538461538461536,0.8269230769230769,0.21428571428571427,0.8571428571428571,0.0004
553,1.529897689819336,1.5356268882751465,0.3269230769230769,0.8269230769230769,0.21428571428571427,0.8571428571428571,0.0004
554,1.5758247375488281,1.535435676574707,0.3076923076923077,0.8269230769230769,0.21428571428571427,0.8571428571428571,0.0004
555,1.5775392055511475,1.5353105068206787,0.28846153846153844,0.8269230769230769,0.21428571428571427,0.8571428571428571,0.0004
556,1.5688323974609375,1.5354522466659546,0.36538461538461536,0.8269230769230769,0.21428571428571427,0.8571428571428571,0.0004
557,1.5848950147628784,1.5350394248962402,0.4230769230769231,0.8269230769230769,0.21428571428571427,0.8571428571428571,0.0004
558,1.58340585231781,1.5350000858306885,0.38461538461538464,0.8269230769230769,0.21428571428571427,0.8571428571428571,0.0004
559,1.5535235404968262,1.5348700284957886,0.38461538461538464,0.8269230769230769,0.21428571428571427,0.8571428571428571,0.0004
560,1.5604024529457092,1.534859299659729,0.36538461538461536,0.8269230769230769,0.21428571428571427,0.8571428571428571,0.0004
561,1.5902662873268127,1.5346451997756958,0.3269230769230769,0.8269230769230769,0.21428571428571427,0.8571428571428571,0.0004
562,1.5724533796310425,1.534738302230835,0.36538461538461536,0.8269230769230769,0.21428571428571427,0.8571428571428571,0.0004
563,1.5713470578193665,1.5343186855316162,0.38461538461538464,0.8269230769230769,0.21428571428571427,0.8571428571428571,0.0004
564,1.5800837874412537,1.5346345901489258,0.3269230769230769,0.8269230769230769,0.21428571428571427,0.8571428571428571,0.0004
565,1.5881662368774414,1.5347590446472168,0.3076923076923077,0.8269230769230769,0.21428571428571427,0.8571428571428571,0.0004
566,1.5703601837158203,1.5340683460235596,0.3076923076923077,0.8269230769230769,0.21428571428571427,0.8571428571428571,0.0004
567,1.5849220752716064,1.534083604812622,0.40384615384615385,0.8269230769230769,0.21428571428571427,0.8571428571428571,0.0004
568,1.578255295753479,1.5341839790344238,0.3076923076923077,0.8269230769230769,0.21428571428571427,0.8571428571428571,0.0004
569,1.57100111246109,1.5343608856201172,0.34615384615384615,0.8269230769230769,0.21428571428571427,0.8571428571428571,0.0004
570,1.6030217409133911,1.534449577331543,0.3269230769230769,0.8269230769230769,0.21428571428571427,0.8571428571428571,0.0004
571,1.560066819190979,1.5343738794326782,0.36538461538461536,0.8269230769230769,0.21428571428571427,0.8571428571428571,0.0004
572,1.571309745311737,1.5349177122116089,0.3076923076923077,0.8269230769230769,0.21428571428571427,0.8571428571428571,0.0004
573,1.5678911209106445,1.5346722602844238,0.3269230769230769,0.8269230769230769,0.21428571428571427,0.8571428571428571,0.0004
574,1.5008240938186646,1.5342912673950195,0.38461538461538464,0.8269230769230769,0.21428571428571427,0.8571428571428571,0.0004
575,1.579891324043274,1.5337454080581665,0.34615384615384615,0.8269230769230769,0.21428571428571427,0.8571428571428571,0.0004
576,1.5848067998886108,1.5333806276321411,0.28846153846153844,0.8269230769230769,0.21428571428571427,0.8571428571428571,0.0004
577,1.5674476623535156,1.5330405235290527,0.3076923076923077,0.8269230769230769,0.21428571428571427,0.8571428571428571,0.0004
578,1.5815683007240295,1.5325943231582642,0.40384615384615385,0.8269230769230769,0.21428571428571427,0.8571428571428571,0.0004
579,1.6242169737815857,1.5327410697937012,0.3269230769230769,0.8269230769230769,0.21428571428571427,0.8571428571428571,0.0004
580,1.5215401649475098,1.5333117246627808,0.36538461538461536,0.8269230769230769,0.21428571428571427,0.8571428571428571,0.0004
581,1.6130403876304626,1.5336546897888184,0.3076923076923077,0.8269230769230769,0.21428571428571427,0.8571428571428571,0.0004
582,1.6099389791488647,1.5346050262451172,0.2692307692307692,0.8269230769230769,0.21428571428571427,0.8571428571428571,0.0004
583,1.641211748123169,1.5353784561157227,0.3269230769230769,0.8269230769230769,0.21428571428571427,0.8571428571428571,0.0004
584,1.60249662399292,1.5367461442947388,0.3076923076923077,0.8269230769230769,0.21428571428571427,0.8571428571428571,0.0004
585,1.5902554988861084,1.5385152101516724,0.3269230769230769,0.8269230769230769,0.21428571428571427,0.8571428571428571,0.0004
586,1.5628381967544556,1.5395886898040771,0.3269230769230769,0.8269230769230769,0.21428571428571427,0.8571428571428571,0.0004
587,1.5730677247047424,1.5403296947479248,0.4423076923076923,0.8269230769230769,0.21428571428571427,0.8571428571428571,0.0004
588,1.5210390090942383,1.540547251701355,0.36538461538461536,0.8269230769230769,0.21428571428571427,0.8571428571428571,0.0004
589,1.5746433734893799,1.5409212112426758,0.3269230769230769,0.8269230769230769,0.21428571428571427,0.8571428571428571,0.0004
590,1.5828352570533752,1.5409770011901855,0.3076923076923077,0.8269230769230769,0.21428571428571427,0.8571428571428571,0.0004
591,1.5706709623336792,1.5407004356384277,0.36538461538461536,0.8269230769230769,0.21428571428571427,0.8571428571428571,0.0004
592,1.580373764038086,1.5406484603881836,0.34615384615384615,0.8269230769230769,0.21428571428571427,0.8571428571428571,0.0004
593,1.5768550634384155,1.5406368970870972,0.36538461538461536,0.8269230769230769,0.21428571428571427,0.8571428571428571,0.0004
594,1.6008347868919373,1.5407052040100098,0.36538461538461536,0.8269230769230769,0.21428571428571427,0.8571428571428571,0.0004
595,1.5616259574890137,1.5409574508666992,0.38461538461538464,0.8269230769230769,0.21428571428571427,0.8571428571428571,0.0004
596,1.6236290335655212,1.540846824645996,0.36538461538461536,0.8269230769230769,0.21428571428571427,0.8571428571428571,0.0004
597,1.5953677892684937,1.5411083698272705,0.28846153846153844,0.8269230769230769,0.21428571428571427,0.8571428571428571,0.0004
598,1.530665397644043,1.5409761667251587,0.40384615384615385,0.8269230769230769,0.21428571428571427,0.8571428571428571,0.0004
599,1.545329511165619,1.5409858226776123,0.4230769230769231,0.8269230769230769,0.21428571428571427,0.8571428571428571,0.0004
600,1.5635002851486206,1.5401506423950195,0.36538461538461536,0.8269230769230769,0.21428571428571427,0.8571428571428571,0.0004
601,1.5597741603851318,1.539384126663208,0.34615384615384615,0.8269230769230769,0.21428571428571427,0.8571428571428571,0.0004
602,1.5952132940292358,1.538877248764038,0.34615384615384615,0.8269230769230769,0.21428571428571427,0.8571428571428571,0.0004
603,1.6108872890472412,1.5388485193252563,0.3269230769230769,0.8269230769230769,0.21428571428571427,0.8571428571428571,0.0004
604,1.545803964138031,1.5388317108154297,0.38461538461538464,0.8269230769230769,0.21428571428571427,0.8571428571428571,0.0004
605,1.5471321940422058,1.5384061336517334,0.4230769230769231,0.8269230769230769,0.21428571428571427,0.8571428571428571,0.0004
606,1.5376136302947998,1.5380502939224243,0.40384615384615385,0.8269230769230769,0.21428571428571427,0.8571428571428571,0.0004
607,1.549498975276947,1.5375018119812012,0.4230769230769231,0.8269230769230769,0.21428571428571427,0.8571428571428571,0.0004
608,1.5661998987197876,1.5375847816467285,0.3269230769230769,0.8269230769230769,0.21428571428571427,0.8571428571428571,0.0004
609,1.6028520464897156,1.5370792150497437,0.3076923076923077,0.8269230769230769,0.21428571428571427,0.8571428571428571,0.0004
610,1.599345624446869,1.5372415781021118,0.40384615384615385,0.8269230769230769,0.21428571428571427,0.8571428571428571,0.0004
611,1.5540436506271362,1.537758708000183,0.36538461538461536,0.8269230769230769,0.21428571428571427,0.8571428571428571,0.0004
612,1.591518759727478,1.538212776184082,0.38461538461538464,0.8269230769230769,0.21428571428571427,0.8571428571428571,0.0004
613,1.535267174243927,1.5388895273208618,0.34615384615384615,0.8269230769230769,0.21428571428571427,0.8571428571428571,0.0004
614,1.5718090534210205,1.5394161939620972,0.28846153846153844,0.8269230769230769,0.21428571428571427,0.8571428571428571,0.0004
615,1.6017428636550903,1.5400967597961426,0.3076923076923077,0.8269230769230769,0.21428571428571427,0.8571428571428571,0.0004
616,1.6237906217575073,1.5407522916793823,0.3076923076923077,0.8269230769230769,0.21428571428571427,0.8571428571428571,0.0004
617,1.6303240656852722,1.5417308807373047,0.38461538461538464,0.8269230769230769,0.21428571428571427,0.8571428571428571,0.0004
618,1.5715054273605347,1.5429574251174927,0.3076923076923077,0.8269230769230769,0.21428571428571427,0.8571428571428571,0.0004
619,1.5781027674674988,1.543578863143921,0.38461538461538464,0.8269230769230769,0.21428571428571427,0.8571428571428571,0.0004
620,1.5512137413024902,1.5442545413970947,0.36538461538461536,0.8269230769230769,0.21428571428571427,0.8571428571428571,0.0004
621,1.5517631769180298,1.5448167324066162,0.38461538461538464,0.8269230769230769,0.21428571428571427,0.8571428571428571,0.0004
622,1.543720781803131,1.5446162223815918,0.36538461538461536,0.8269230769230769,0.21428571428571427,0.8571428571428571,0.0004
623,1.6013996005058289,1.5439785718917847,0.38461538461538464,0.8269230769230769,0.21428571428571427,0.8571428571428571,0.0004
624,1.5924519896507263,1.5435922145843506,0.3076923076923077,0.8269230769230769,0.21428571428571427,0.8571428571428571,0.0004
625,1.5500569343566895,1.5431478023529053,0.40384615384615385,0.8269230769230769,0.21428571428571427,0.8571428571428571,0.0004
626,1.5866055488586426,1.5420124530792236,0.36538461538461536,0.8269230769230769,0.21428571428571427,0.8571428571428571,0.0004
627,1.5280077457427979,1.541564702987671,0.3269230769230769,0.8269230769230769,0.21428571428571427,0.8571428571428571,0.0004
628,1.5685117840766907,1.5408856868743896,0.36538461538461536,0.8269230769230769,0.21428571428571427,0.8571428571428571,0.0004
629,1.5673602223396301,1.5400437116622925,0.34615384615384615,0.8269230769230769,0.21428571428571427,0.8571428571428571,0.0004
630,1.5806926488876343,1.5396138429641724,0.40384615384615385,0.8269230769230769,0.21428571428571427,0.8571428571428571,0.0004
631,1.5172458291053772,1.5386238098144531,0.40384615384615385,0.8269230769230769,0.21428571428571427,0.8571428571428571,0.0004
632,1.5828686356544495,1.5379952192306519,0.36538461538461536,0.8269230769230769,0.21428571428571427,0.8571428571428571,0.0004
633,1.5378413796424866,1.5373713970184326,0.36538461538461536,0.8269230769230769,0.21428571428571427,0.8571428571428571,0.0004
634,1.5580754280090332,1.5363943576812744,0.36538461538461536,0.8269230769230769,0.21428571428571427,0.8571428571428571,0.0004
635,1.6097175478935242,1.535974383354187,0.28846153846153844,0.8269230769230769,0.21428571428571427,0.8571428571428571,0.0004
636,1.5657055377960205,1.5357122421264648,0.3269230769230769,0.8269230769230769,0.21428571428571427,0.8571428571428571,0.0004
637,1.547652006149292,1.535282850265503,0.36538461538461536,0.8269230769230769,0.21428571428571427,0.8571428571428571,0.0004
638,1.5576122999191284,1.5347483158111572,0.40384615384615385,0.8269230769230769,0.21428571428571427,0.8571428571428571,0.0004
639,1.5784047842025757,1.5345215797424316,0.34615384615384615,0.8269230769230769,0.21428571428571427,0.8571428571428571,0.0004
640,1.5169215202331543,1.5338865518569946,0.40384615384615385,0.8269230769230769,0.21428571428571427,0.8571428571428571,0.0004
641,1.5822237133979797,1.5337885618209839,0.36538461538461536,0.8269230769230769,0.21428571428571427,0.8571428571428571,0.0004
642,1.5786206722259521,1.5331867933273315,0.34615384615384615,0.8269230769230769,0.21428571428571427,0.8571428571428571,0.0004
643,1.5185503959655762,1.5332887172698975,0.34615384615384615,0.8269230769230769,0.21428571428571427,0.8571428571428571,0.0004
644,1.5626066327095032,1.5328289270401,0.3269230769230769,0.8269230769230769,0.21428571428571427,0.8571428571428571,0.0004
645,1.574339210987091,1.5326805114746094,0.3076923076923077,0.8269230769230769,0.21428571428571427,0.8571428571428571,0.0004
646,1.568589985370636,1.5327355861663818,0.36538461538461536,0.8269230769230769,0.21428571428571427,0.8571428571428571,0.0004
647,1.5636577606201172,1.5328080654144287,0.3269230769230769,0.8269230769230769,0.21428571428571427,0.8571428571428571,0.0004
648,1.5633702874183655,1.5329875946044922,0.34615384615384615,0.8269230769230769,0.21428571428571427,0.8571428571428571,0.0004
649,1.599257230758667,1.533308506011963,0.3076923076923077,0.8269230769230769,0.21428571428571427,0.8571428571428571,0.0004
650,1.5861199498176575,1.5337376594543457,0.40384615384615385,0.8269230769230769,0.21428571428571427,0.8571428571428571,0.0004
651,1.560615360736847,1.534134864807129,0.34615384615384615,0.8269230769230769,0.21428571428571427,0.8571428571428571,0.0004
652,1.5590654611587524,1.534523367881775,0.3269230769230769,0.8269230769230769,0.21428571428571427,0.8571428571428571,0.0004
653,1.5755309462547302,1.5351444482803345,0.36538461538461536,0.8269230769230769,0.21428571428571427,0.8571428571428571,0.0004
654,1.5654056668281555,1.5356820821762085,0.38461538461538464,0.8269230769230769,0.21428571428571427,0.8571428571428571,0.0004
655,1.5429505705833435,1.5361158847808838,0.3076923076923077,0.8269230769230769,0.21428571428571427,0.8571428571428571,0.0004
656,1.5497356057167053,1.5363434553146362,0.36538461538461536,0.8269230769230769,0.21428571428571427,0.8571428571428571,0.0004
657,1.5543038845062256,1.5366153717041016,0.34615384615384615,0.8269230769230769,0.21428571428571427,0.8571428571428571,0.0004
658,1.5219003558158875,1.5364470481872559,0.34615384615384615,0.8269230769230769,0.21428571428571427,0.8571428571428571,0.0004
659,1.5540134906768799,1.5360623598098755,0.34615384615384615,0.8269230769230769,0.21428571428571427,0.8571428571428571,0.0004
660,1.5138757824897766,1.5356391668319702,0.36538461538461536,0.8269230769230769,0.21428571428571427,0.8571428571428571,0.0004
661,1.5484771728515625,1.5350561141967773,0.34615384615384615,0.8269230769230769,0.21428571428571427,0.8571428571428571,0.0004
662,1.5957512259483337,1.5343074798583984,0.34615384615384615,0.8269230769230769,0.21428571428571427,0.8571428571428571,0.0004
663,1.5771068334579468,1.5337834358215332,0.34615384615384615,0.8269230769230769,0.21428571428571427,0.8571428571428571,0.0004
664,1.5694011449813843,1.5333226919174194,0.34615384615384615,0.8269230769230769,0.21428571428571427,0.8571428571428571,0.0004
665,1.5655824542045593,1.5330876111984253,0.34615384615384615,0.8269230769230769,0.21428571428571427,0.8571428571428571,0.0004
666,1.5878756046295166,1.5329662561416626,0.40384615384615385,0.8269230769230769,0.21428571428571427,0.8571428571428571,0.0004
667,1.5673075318336487,1.5327086448669434,0.36538461538461536,0.8269230769230769,0.21428571428571427,0.8571428571428571,0.0004
668,1.559077799320221,1.532792091369629,0.34615384615384615,0.8269230769230769,0.21428571428571427,0.8571428571428571,0.0004
669,1.555269479751587,1.5328408479690552,0.3269230769230769,0.8269230769230769,0.21428571428571427,0.8571428571428571,0.0004
670,1.5930116772651672,1.533355712890625,0.36538461538461536,0.8269230769230769,0.21428571428571427,0.8571428571428571,0.0004
671,1.5693446397781372,1.533856987953186,0.34615384615384615,0.8269230769230769,0.21428571428571427,0.8571428571428571,0.0004
672,1.58417546749115,1.5346224308013916,0.38461538461538464,0.8269230769230769,0.21428571428571427,0.8571428571428571,0.0004
673,1.5570085644721985,1.5354559421539307,0.38461538461538464,0.8269230769230769,0.21428571428571427,0.8571428571428571,0.0004
674,1.5506855249404907,1.5361127853393555,0.40384615384615385,0.8269230769230769,0.21428571428571427,0.8571428571428571,0.0004
675,1.6186275482177734,1.536700963973999,0.36538461538461536,0.8269230769230769,0.21428571428571427,0.8571428571428571,0.0004
676,1.5292678475379944,1.5376652479171753,0.34615384615384615,0.8269230769230769,0.21428571428571427,0.8571428571428571,0.0004
677,1.5575016736984253,1.5381977558135986,0.34615384615384615,0.8269230769230769,0.21428571428571427,0.8571428571428571,0.0004
678,1.5758138298988342,1.538780689239502,0.34615384615384615,0.8269230769230769,0.21428571428571427,0.8571428571428571,0.0004
679,1.5855058431625366,1.5389039516448975,0.40384615384615385,0.8269230769230769,0.21428571428571427,0.8571428571428571,0.0004
680,1.587878167629242,1.5393915176391602,0.38461538461538464,0.8269230769230769,0.21428571428571427,0.8571428571428571,0.0004
681,1.5514088869094849,1.5398638248443604,0.38461538461538464,0.8269230769230769,0.21428571428571427,0.8571428571428571,0.0004
682,1.5709906816482544,1.540484070777893,0.3269230769230769,0.8269230769230769,0.21428571428571427,0.8571428571428571,0.0004
683,1.5805753469467163,1.540831208229065,0.34615384615384615,0.8269230769230769,0.21428571428571427,0.8571428571428571,0.0004
684,1.5872461795806885,1.540543794631958,0.38461538461538464,0.8269230769230769,0.21428571428571427,0.8571428571428571,0.0004
685,1.5867746472358704,1.5403220653533936,0.36538461538461536,0.8269230769230769,0.21428571428571427,0.8571428571428571,0.0004
686,1.5446580052375793,1.5400516986846924,0.36538461538461536,0.8269230769230769,0.21428571428571427,0.8571428571428571,0.0004
687,1.5596734881401062,1.5396537780761719,0.36538461538461536,0.8269230769230769,0.21428571428571427,0.8571428571428571,0.0004
688,1.5680869221687317,1.5394362211227417,0.36538461538461536,0.8269230769230769,0.21428571428571427,0.8571428571428571,0.0004
689,1.5540193915367126,1.5389906167984009,0.34615384615384615,0.8269230769230769,0.21428571428571427,0.8571428571428571,0.0004
690,1.551716387271881,1.5387227535247803,0.40384615384615385,0.8269230769230769,0.21428571428571427,0.8571428571428571,0.0004
691,1.5512996912002563,1.538785696029663,0.38461538461538464,0.8269230769230769,0.21428571428571427,0.8571428571428571,0.0004
692,1.56548672914505,1.538008451461792,0.36538461538461536,0.8269230769230769,0.21428571428571427,0.8571428571428571,0.0004
693,1.5735514760017395,1.5375709533691406,0.36538461538461536,0.8269230769230769,0.21428571428571427,0.8571428571428571,0.0004
694,1.636294424533844,1.5372819900512695,0.36538461538461536,0.8269230769230769,0.21428571428571427,0.8571428571428571,0.0004
695,1.5974352955818176,1.537604808807373,0.36538461538461536,0.8269230769230769,0.21428571428571427,0.8571428571428571,0.0004
696,1.618615746498108,1.5378496646881104,0.38461538461538464,0.8269230769230769,0.21428571428571427,0.8571428571428571,0.0004
697,1.5978270769119263,1.5380741357803345,0.4230769230769231,0.8269230769230769,0.21428571428571427,0.8571428571428571,0.0004
698,1.568819284439087,1.538156270980835,0.36538461538461536,0.8269230769230769,0.21428571428571427,0.8571428571428571,0.0004
699,1.643494963645935,1.5384976863861084,0.34615384615384615,0.8269230769230769,0.21428571428571427,0.8571428571428571,0.0004
700,1.5640258193016052,1.5391757488250732,0.4230769230769231,0.8269230769230769,0.21428571428571427,0.8571428571428571,0.0004
701,1.529068648815155,1.5396268367767334,0.40384615384615385,0.8269230769230769,0.21428571428571427,0.8571428571428571,0.0004
702,1.5583667755126953,1.5395268201828003,0.34615384615384615,0.8269230769230769,0.21428571428571427,0.8571428571428571,0.0004
703,1.5953562259674072,1.5394752025604248,0.28846153846153844,0.8269230769230769,0.21428571428571427,0.8571428571428571,0.0004
704,1.5522352457046509,1.538952350616455,0.38461538461538464,0.8269230769230769,0.21428571428571427,0.8571428571428571,0.0004
705,1.542451024055481,1.5384143590927124,0.34615384615384615,0.8269230769230769,0.21428571428571427,0.8571428571428571,0.0004
706,1.6112518906593323,1.5378272533416748,0.3269230769230769,0.8269230769230769,0.21428571428571427,0.8571428571428571,0.0004
707,1.5504489541053772,1.5372793674468994,0.36538461538461536,0.8269230769230769,0.21428571428571427,0.8571428571428571,0.0004
708,1.5790536999702454,1.5365614891052246,0.38461538461538464,0.8269230769230769,0.21428571428571427,0.8571428571428571,0.0004
709,1.5499572157859802,1.535688877105713,0.34615384615384615,0.8269230769230769,0.21428571428571427,0.8571428571428571,0.0004
710,1.5576931238174438,1.53464674949646,0.36538461538461536,0.8269230769230769,0.21428571428571427,0.8571428571428571,0.0004
711,1.5537542700767517,1.5339000225067139,0.36538461538461536,0.8269230769230769,0.21428571428571427,0.8571428571428571,0.0004
712,1.527642548084259,1.5329179763793945,0.4230769230769231,0.8269230769230769,0.21428571428571427,0.8571428571428571,0.0004
713,1.6130833625793457,1.5320645570755005,0.4230769230769231,0.8269230769230769,0.21428571428571427,0.8571428571428571,0.0004
714,1.5535971522331238,1.5314866304397583,0.40384615384615385,0.8269230769230769,0.21428571428571427,0.8571428571428571,0.0004
715,1.5470083951950073,1.5309308767318726,0.36538461538461536,0.8269230769230769,0.21428571428571427,0.8571428571428571,0.0004
716,1.5556389093399048,1.5305283069610596,0.40384615384615385,0.8269230769230769,0.21428571428571427,0.8571428571428571,0.0004
717,1.5798242092132568,1.5300555229187012,0.34615384615384615,0.8269230769230769,0.21428571428571427,0.8571428571428571,0.0004
718,1.5336223244667053,1.5300047397613525,0.34615384615384615,0.8269230769230769,0.21428571428571427,0.8571428571428571,0.0004
719,1.566047489643097,1.5297406911849976,0.38461538461538464,0.8269230769230769,0.21428571428571427,0.8571428571428571,0.0004
720,1.5366419553756714,1.5296679735183716,0.34615384615384615,0.8269230769230769,0.21428571428571427,0.8571428571428571,0.0004
721,1.5528687834739685,1.5295087099075317,0.34615384615384615,0.8269230769230769,0.21428571428571427,0.8571428571428571,0.0004
722,1.555326759815216,1.5295779705047607,0.2692307692307692,0.8269230769230769,0.21428571428571427,0.8571428571428571,0.0004
723,1.543781042098999,1.5299557447433472,0.3076923076923077,0.8269230769230769,0.21428571428571427,0.8571428571428571,0.0004
724,1.6020264625549316,1.5302622318267822,0.36538461538461536,0.8269230769230769,0.21428571428571427,0.8571428571428571,0.0004
725,1.5915567278862,1.530702829360962,0.36538461538461536,0.8269230769230769,0.21428571428571427,0.8571428571428571,0.0004
726,1.565835952758789,1.531062364578247,0.3076923076923077,0.8269230769230769,0.21428571428571427,0.8571428571428571,0.0004
727,1.5665242671966553,1.5312819480895996,0.36538461538461536,0.8269230769230769,0.21428571428571427,0.8571428571428571,0.0004
728,1.5918084979057312,1.532368779182434,0.28846153846153844,0.8269230769230769,0.21428571428571427,0.8571428571428571,0.0004
729,1.621657133102417,1.5330140590667725,0.36538461538461536,0.8269230769230769,0.21428571428571427,0.8571428571428571,0.0004
730,1.6001368165016174,1.533752202987671,0.36538461538461536,0.8269230769230769,0.21428571428571427,0.8571428571428571,0.0004
731,1.5168748497962952,1.534530758857727,0.36538461538461536,0.8269230769230769,0.21428571428571427,0.8571428571428571,0.0004
732,1.602665901184082,1.5352160930633545,0.36538461538461536,0.8269230769230769,0.21428571428571427,0.8571428571428571,0.0004
733,1.4932838678359985,1.535693645477295,0.3269230769230769,0.8269230769230769,0.21428571428571427,0.8571428571428571,0.0004
734,1.5642449259757996,1.5359946489334106,0.36538461538461536,0.8269230769230769,0.21428571428571427,0.8571428571428571,0.0004
735,1.5764765739440918,1.5359432697296143,0.38461538461538464,0.8269230769230769,0.21428571428571427,0.8571428571428571,0.0004
736,1.5776275396347046,1.5361413955688477,0.36538461538461536,0.8269230769230769,0.21428571428571427,0.8571428571428571,0.0004
737,1.5715610980987549,1.5360710620880127,0.3269230769230769,0.8269230769230769,0.21428571428571427,0.8571428571428571,0.0004
738,1.5481970310211182,1.5358812808990479,0.34615384615384615,0.8269230769230769,0.21428571428571427,0.8571428571428571,0.0004
739,1.5952762365341187,1.5355253219604492,0.34615384615384615,0.8269230769230769,0.21428571428571427,0.8571428571428571,0.0004
740,1.5768279433250427,1.5352065563201904,0.34615384615384615,0.8269230769230769,0.21428571428571427,0.8571428571428571,0.0004
741,1.6006929874420166,1.53493332862854,0.38461538461538464,0.8269230769230769,0.21428571428571427,0.8571428571428571,0.0004
742,1.568716049194336,1.534725308418274,0.36538461538461536,0.8269230769230769,0.21428571428571427,0.8571428571428571,0.0004
743,1.5556744933128357,1.5345256328582764,0.36538461538461536,0.8269230769230769,0.21428571428571427,0.8571428571428571,0.0004
744,1.5386374592781067,1.5344269275665283,0.36538461538461536,0.8269230769230769,0.21428571428571427,0.8571428571428571,0.0004
745,1.5603997707366943,1.5340166091918945,0.38461538461538464,0.8269230769230769,0.21428571428571427,0.8571428571428571,0.0004
746,1.6081297397613525,1.5338867902755737,0.34615384615384615,0.8269230769230769,0.21428571428571427,0.8571428571428571,0.0004
747,1.544645071029663,1.5338635444641113,0.38461538461538464,0.8269230769230769,0.21428571428571427,0.8571428571428571,0.0004
748,1.541779339313507,1.5335040092468262,0.38461538461538464,0.8269230769230769,0.21428571428571427,0.8571428571428571,0.0004
749,1.5708639025688171,1.5336644649505615,0.38461538461538464,0.8269230769230769,0.21428571428571427,0.8571428571428571,0.0004
750,1.5843654870986938,1.5333443880081177,0.34615384615384615,0.8269230769230769,0.21428571428571427,0.8571428571428571,0.0004
751,1.570035457611084,1.5334279537200928,0.4230769230769231,0.8269230769230769,0.21428571428571427,0.8571428571428571,0.0004
752,1.560454249382019,1.5331617593765259,0.34615384615384615,0.8269230769230769,0.21428571428571427,0.8571428571428571,0.0004
753,1.59716135263443,1.5332460403442383,0.38461538461538464,0.8269230769230769,0.21428571428571427,0.8571428571428571,0.0004
754,1.6034722328186035,1.5336427688598633,0.36538461538461536,0.8269230769230769,0.21428571428571427,0.8571428571428571,0.0004
755,1.6084023714065552,1.5339287519454956,0.3269230769230769,0.8269230769230769,0.21428571428571427,0.8571428571428571,0.0004
756,1.610059142112732,1.5346908569335938,0.38461538461538464,0.8269230769230769,0.21428571428571427,0.8571428571428571,0.0004
757,1.5403271913528442,1.535372018814087,0.36538461538461536,0.8269230769230769,0.21428571428571427,0.8571428571428571,0.0004
758,1.5198164582252502,1.5357353687286377,0.34615384615384615,0.8269230769230769,0.21428571428571427,0.8571428571428571,0.0004
759,1.548779308795929,1.5363022089004517,0.36538461538461536,0.8269230769230769,0.21428571428571427,0.8571428571428571,0.0004
760,1.5817776918411255,1.5363640785217285,0.46153846153846156,0.8269230769230769,0.21428571428571427,0.8571428571428571,0.0004
761,1.6143053770065308,1.5367339849472046,0.36538461538461536,0.8269230769230769,0.21428571428571427,0.8571428571428571,0.0004
762,1.566917359828949,1.5370733737945557,0.36538461538461536,0.8269230769230769,0.21428571428571427,0.8571428571428571,0.0004
763,1.5693622827529907,1.5376359224319458,0.34615384615384615,0.8269230769230769,0.21428571428571427,0.8571428571428571,0.0004
764,1.587938368320465,1.5381669998168945,0.38461538461538464,0.8269230769230769,0.21428571428571427,0.8571428571428571,0.0004
765,1.5741075277328491,1.5383403301239014,0.34615384615384615,0.8269230769230769,0.21428571428571427,0.8571428571428571,0.0004
766,1.5510960817337036,1.5384010076522827,0.3269230769230769,0.8269230769230769,0.21428571428571427,0.8571428571428571,0.0004
767,1.530858039855957,1.5384076833724976,0.3269230769230769,0.8269230769230769,0.21428571428571427,0.8571428571428571,0.0004
768,1.5562685132026672,1.5380231142044067,0.3076923076923077,0.8269230769230769,0.21428571428571427,0.8571428571428571,0.0004
769,1.5691006779670715,1.5376441478729248,0.38461538461538464,0.8269230769230769,0.21428571428571427,0.8571428571428571,0.0004
770,1.5335773825645447,1.5375049114227295,0.38461538461538464,0.8269230769230769,0.21428571428571427,0.8571428571428571,0.0004
771,1.5407052040100098,1.536543846130371,0.36538461538461536,0.8269230769230769,0.21428571428571427,0.8571428571428571,0.0004
772,1.493466556072235,1.5355414152145386,0.4230769230769231,0.8269230769230769,0.21428571428571427,0.8571428571428571,0.0004
773,1.5422986149787903,1.5347555875778198,0.38461538461538464,0.8269230769230769,0.21428571428571427,0.8571428571428571,0.0004
774,1.60433429479599,1.5339213609695435,0.38461538461538464,0.8269230769230769,0.21428571428571427,0.8571428571428571,0.0004
775,1.5791159868240356,1.5334978103637695,0.40384615384615385,0.8269230769230769,0.21428571428571427,0.8571428571428571,0.0004
776,1.5606178045272827,1.5332684516906738,0.3076923076923077,0.8269230769230769,0.21428571428571427,0.8571428571428571,0.0004
777,1.5714169144630432,1.53325355052948,0.3269230769230769,0.8269230769230769,0.21428571428571427,0.8571428571428571,0.0004
778,1.5868160724639893,1.53309166431427,0.34615384615384615,0.8269230769230769,0.21428571428571427,0.8571428571428571,0.0004
779,1.5200673341751099,1.533461332321167,0.36538461538461536,0.8269230769230769,0.21428571428571427,0.8571428571428571,0.0004
780,1.5672075748443604,1.5337852239608765,0.34615384615384615,0.8269230769230769,0.21428571428571427,0.8571428571428571,0.0004
781,1.6025737524032593,1.5340226888656616,0.40384615384615385,0.8269230769230769,0.21428571428571427,0.8571428571428571,0.0004
782,1.5663329362869263,1.5343868732452393,0.34615384615384615,0.8269230769230769,0.21428571428571427,0.8571428571428571,0.0004
783,1.6178436875343323,1.5351331233978271,0.34615384615384615,0.8269230769230769,0.21428571428571427,0.8571428571428571,0.0004
784,1.5686827898025513,1.5357435941696167,0.34615384615384615,0.8269230769230769,0.21428571428571427,0.8571428571428571,0.0004
785,1.5531836152076721,1.5360459089279175,0.3269230769230769,0.8269230769230769,0.21428571428571427,0.8571428571428571,0.0004
786,1.5616426467895508,1.536388874053955,0.34615384615384615,0.8269230769230769,0.21428571428571427,0.8571428571428571,0.0004
787,1.538087546825409,1.5371918678283691,0.34615384615384615,0.8269230769230769,0.21428571428571427,0.8571428571428571,0.0004
788,1.5842543244361877,1.5374685525894165,0.34615384615384615,0.8269230769230769,0.21428571428571427,0.8571428571428571,0.0004
789,1.581158459186554,1.5379629135131836,0.36538461538461536,0.8269230769230769,0.21428571428571427,0.8571428571428571,0.0004
790,1.632424771785736,1.5383706092834473,0.34615384615384615,0.8269230769230769,0.21428571428571427,0.8571428571428571,0.0004
791,1.6236374378204346,1.539170503616333,0.36538461538461536,0.8269230769230769,0.21428571428571427,0.8571428571428571,0.0004
792,1.552649974822998,1.5395629405975342,0.36538461538461536,0.8269230769230769,0.21428571428571427,0.8571428571428571,0.0004
793,1.5764504671096802,1.540156602859497,0.34615384615384615,0.8269230769230769,0.21428571428571427,0.8571428571428571,0.0004
794,1.5704564452171326,1.5405369997024536,0.34615384615384615,0.8269230769230769,0.21428571428571427,0.8571428571428571,0.0004
795,1.5965642929077148,1.5407334566116333,0.3269230769230769,0.8269230769230769,0.21428571428571427,0.8571428571428571,0.0004
796,1.545704960823059,1.540716528892517,0.34615384615384615,0.8269230769230769,0.21428571428571427,0.8571428571428571,0.0004
797,1.571934163570404,1.5406650304794312,0.3269230769230769,0.8269230769230769,0.21428571428571427,0.8571428571428571,0.0004
798,1.5772079229354858,1.5404369831085205,0.40384615384615385,0.8269230769230769,0.21428571428571427,0.8571428571428571,0.0004
799,1.5433692336082458,1.540644884109497,0.34615384615384615,0.8269230769230769,0.21428571428571427,0.8571428571428571,0.0004
800,1.5684431195259094,1.5401514768600464,0.36538461538461536,0.8269230769230769,0.21428571428571427,0.8571428571428571,0.0004
801,1.5520235300064087,1.5393829345703125,0.38461538461538464,0.8269230769230769,0.21428571428571427,0.8571428571428571,0.0004
802,1.535529613494873,1.5384454727172852,0.3269230769230769,0.8269230769230769,0.21428571428571427,0.8571428571428571,0.0004
803,1.5432385206222534,1.5373376607894897,0.3269230769230769,0.8269230769230769,0.21428571428571427,0.8571428571428571,0.0004
804,1.6094274520874023,1.5363643169403076,0.34615384615384615,0.8269230769230769,0.21428571428571427,0.8571428571428571,0.0004
805,1.6165870428085327,1.5356616973876953,0.3076923076923077,0.8269230769230769,0.21428571428571427,0.8571428571428571,0.0004
806,1.521573781967163,1.53512704372406,0.4230769230769231,0.8269230769230769,0.21428571428571427,0.8571428571428571,0.0004
807,1.538154661655426,1.5347394943237305,0.34615384615384615,0.8269230769230769,0.21428571428571427,0.8571428571428571,0.0004
808,1.5529433488845825,1.5340650081634521,0.38461538461538464,0.8269230769230769,0.21428571428571427,0.8571428571428571,0.0004
809,1.5562433004379272,1.5335577726364136,0.3076923076923077,0.8269230769230769,0.21428571428571427,0.8571428571428571,0.0004
810,1.5547853708267212,1.5328013896942139,0.3269230769230769,0.8269230769230769,0.21428571428571427,0.8571428571428571,0.0004
811,1.5945327281951904,1.5324653387069702,0.38461538461538464,0.8269230769230769,0.21428571428571427,0.8571428571428571,0.0004
812,1.5675230026245117,1.5324711799621582,0.36538461538461536,0.8269230769230769,0.21428571428571427,0.8571428571428571,0.0004
813,1.5203186869621277,1.5325485467910767,0.3269230769230769,0.8269230769230769,0.21428571428571427,0.8571428571428571,0.0004
814,1.595143973827362,1.5325956344604492,0.3269230769230769,0.8269230769230769,0.21428571428571427,0.8571428571428571,0.0004
815,1.5683239102363586,1.5329574346542358,0.40384615384615385,0.8269230769230769,0.21428571428571427,0.8571428571428571,0.0004
816,1.605969488620758,1.5336945056915283,0.36538461538461536,0.8269230769230769,0.21428571428571427,0.8571428571428571,0.0004
817,1.5753020644187927,1.5340220928192139,0.34615384615384615,0.8269230769230769,0.21428571428571427,0.8571428571428571,0.0004
818,1.5940521359443665,1.534537434577942,0.36538461538461536,0.8269230769230769,0.21428571428571427,0.8571428571428571,0.0004
819,1.6901074647903442,1.5354335308074951,0.3269230769230769,0.8269230769230769,0.21428571428571427,0.8571428571428571,0.0004
820,1.5335838198661804,1.5365890264511108,0.38461538461538464,0.8269230769230769,0.21428571428571427,0.8571428571428571,0.0004
821,1.5646681785583496,1.5374345779418945,0.36538461538461536,0.8269230769230769,0.21428571428571427,0.8571428571428571,0.0004
822,1.5918492078781128,1.5381991863250732,0.38461538461538464,0.8269230769230769,0.21428571428571427,0.8571428571428571,0.0004
823,1.5358163714408875,1.5390677452087402,0.3269230769230769,0.8269230769230769,0.21428571428571427,0.8571428571428571,0.0004
824,1.5418775081634521,1.5394670963287354,0.34615384615384615,0.8269230769230769,0.21428571428571427,0.8571428571428571,0.0004
825,1.5480768084526062,1.5395402908325195,0.36538461538461536,0.8269230769230769,0.21428571428571427,0.8571428571428571,0.0004
826,1.5437215566635132,1.5396050214767456,0.34615384615384615,0.8269230769230769,0.21428571428571427,0.8571428571428571,0.0004
827,1.5893540382385254,1.5393824577331543,0.36538461538461536,0.8269230769230769,0.21428571428571427,0.8571428571428571,0.0004
828,1.5773464441299438,1.5391865968704224,0.38461538461538464,0.8269230769230769,0.21428571428571427,0.8571428571428571,0.0004
829,1.544266164302826,1.5386216640472412,0.34615384615384615,0.8269230769230769,0.21428571428571427,0.8571428571428571,0.0004
830,1.5396229028701782,1.5383906364440918,0.34615384615384615,0.8269230769230769,0.21428571428571427,0.8571428571428571,0.0004
831,1.5611311793327332,1.5376269817352295,0.38461538461538464,0.8269230769230769,0.21428571428571427,0.8571428571428571,0.0004
832,1.5710349082946777,1.53702712059021,0.3269230769230769,0.8269230769230769,0.21428571428571427,0.8571428571428571,0.0004
833,1.5941017270088196,1.5365818738937378,0.38461538461538464,0.8269230769230769,0.21428571428571427,0.8571428571428571,0.0004
834,1.588498830795288,1.5362069606781006,0.2692307692307692,0.8269230769230769,0.21428571428571427,0.8571428571428571,0.0004
835,1.5482710599899292,1.5359623432159424,0.38461538461538464,0.8269230769230769,0.21428571428571427,0.8571428571428571,0.0004
836,1.5376174449920654,1.535855770111084,0.36538461538461536,0.8269230769230769,0.21428571428571427,0.8571428571428571,0.0004
837,1.5511611104011536,1.5356833934783936,0.34615384615384615,0.8269230769230769,0.21428571428571427,0.8571428571428571,0.0004
838,1.5891472101211548,1.5351965427398682,0.40384615384615385,0.8269230769230769,0.21428571428571427,0.8571428571428571,0.0004
839,1.5550298690795898,1.5348761081695557,0.38461538461538464,0.8269230769230769,0.21428571428571427,0.8571428571428571,0.0004
840,1.5978132486343384,1.5345854759216309,0.34615384615384615,0.8269230769230769,0.21428571428571427,0.8571428571428571,0.0004
841,1.5929526686668396,1.5345640182495117,0.3269230769230769,0.8269230769230769,0.21428571428571427,0.8571428571428571,0.0004
842,1.5727189183235168,1.5345081090927124,0.36538461538461536,0.8269230769230769,0.21428571428571427,0.8571428571428571,0.0004
843,1.556203305721283,1.5342851877212524,0.3076923076923077,0.8269230769230769,0.21428571428571427,0.8571428571428571,0.0004
844,1.5387006998062134,1.5340746641159058,0.34615384615384615,0.8269230769230769,0.21428571428571427,0.8571428571428571,0.0004
845,1.560071885585785,1.5342051982879639,0.40384615384615385,0.8269230769230769,0.21428571428571427,0.8571428571428571,0.0004
846,1.5611672401428223,1.5338239669799805,0.3269230769230769,0.8269230769230769,0.21428571428571427,0.8571428571428571,0.0004
847,1.5854130387306213,1.533745288848877,0.36538461538461536,0.8269230769230769,0.21428571428571427,0.8571428571428571,0.0004
848,1.5962918996810913,1.5338630676269531,0.36538461538461536,0.8269230769230769,0.21428571428571427,0.8571428571428571,0.0004
849,1.5768046379089355,1.533881664276123,0.46153846153846156,0.8269230769230769,0.21428571428571427,0.8571428571428571,0.0004
850,1.5577972531318665,1.5340873003005981,0.36538461538461536,0.8269230769230769,0.21428571428571427,0.8571428571428571,0.0004
851,1.5429917573928833,1.5344386100769043,0.40384615384615385,0.8269230769230769,0.21428571428571427,0.8571428571428571,0.0004
852,1.605606734752655,1.534612774848938,0.3269230769230769,0.8269230769230769,0.21428571428571427,0.8571428571428571,0.0004
853,1.593204140663147,1.534639835357666,0.3269230769230769,0.8269230769230769,0.21428571428571427,0.8571428571428571,0.0004
854,1.573756217956543,1.5346767902374268,0.38461538461538464,0.8269230769230769,0.21428571428571427,0.8571428571428571,0.0004
855,1.5526354908943176,1.5345900058746338,0.3269230769230769,0.8269230769230769,0.21428571428571427,0.8571428571428571,0.0004
856,1.5145536661148071,1.534528136253357,0.3269230769230769,0.8269230769230769,0.21428571428571427,0.8571428571428571,0.0004
857,1.5663686990737915,1.5342694520950317,0.38461538461538464,0.8269230769230769,0.21428571428571427,0.8571428571428571,0.0004
858,1.542513132095337,1.5339953899383545,0.40384615384615385,0.8269230769230769,0.21428571428571427,0.8571428571428571,0.0004
859,1.5728347301483154,1.533759355545044,0.3269230769230769,0.8269230769230769,0.21428571428571427,0.8571428571428571,0.0004
860,1.5792396664619446,1.5335214138031006,0.36538461538461536,0.8269230769230769,0.21428571428571427,0.8571428571428571,0.0004
861,1.579640507698059,1.5333235263824463,0.34615384615384615,0.8269230769230769,0.21428571428571427,0.8571428571428571,0.0004
862,1.5451709628105164,1.5330606698989868,0.4230769230769231,0.8269230769230769,0.21428571428571427,0.8571428571428571,0.0004
863,1.5816316604614258,1.5328083038330078,0.36538461538461536,0.8269230769230769,0.21428571428571427,0.8571428571428571,0.0004
864,1.56240713596344,1.5327750444412231,0.36538461538461536,0.8269230769230769,0.21428571428571427,0.8571428571428571,0.0004
865,1.5334120988845825,1.5326826572418213,0.38461538461538464,0.8269230769230769,0.21428571428571427,0.8571428571428571,0.0004
866,1.56454598903656,1.532544493675232,0.34615384615384615,0.8269230769230769,0.21428571428571427,0.8571428571428571,0.0004
867,1.5760790705680847,1.5325554609298706,0.40384615384615385,0.8269230769230769,0.21428571428571427,0.8571428571428571,0.0004
868,1.6011853218078613,1.5328590869903564,0.36538461538461536,0.8269230769230769,0.21428571428571427,0.8571428571428571,0.0004
869,1.534989833831787,1.5332765579223633,0.3269230769230769,0.8269230769230769,0.21428571428571427,0.8571428571428571,0.0004
870,1.5322333574295044,1.533543586730957,0.4230769230769231,0.8269230769230769,0.21428571428571427,0.8571428571428571,0.0004
871,1.539976179599762,1.5338348150253296,0.36538461538461536,0.8269230769230769,0.21428571428571427,0.8571428571428571,0.0004
872,1.5431313514709473,1.533601999282837,0.36538461538461536,0.8269230769230769,0.21428571428571427,0.8571428571428571,0.0004
873,1.5168581008911133,1.5334863662719727,0.4230769230769231,0.8269230769230769,0.21428571428571427,0.8571428571428571,0.0004
874,1.541627585887909,1.533490538597107,0.34615384615384615,0.8269230769230769,0.21428571428571427,0.8571428571428571,0.0004
875,1.5864065885543823,1.533225655555725,0.40384615384615385,0.8269230769230769,0.21428571428571427,0.8571428571428571,0.0004
876,1.5650408267974854,1.533635139465332,0.34615384615384615,0.8269230769230769,0.21428571428571427,0.8571428571428571,0.0004
877,1.586381196975708,1.5336793661117554,0.34615384615384615,0.8269230769230769,0.21428571428571427,0.8571428571428571,0.0004
878,1.5855444073677063,1.5340430736541748,0.3269230769230769,0.8269230769230769,0.21428571428571427,0.8571428571428571,0.0004
879,1.5749444961547852,1.534407377243042,0.40384615384615385,0.8269230769230769,0.21428571428571427,0.8571428571428571,0.0004
880,1.5942291021347046,1.5348000526428223,0.3269230769230769,0.8269230769230769,0.21428571428571427,0.8571428571428571,0.0004
881,1.500945270061493,1.535354495048523,0.40384615384615385,0.8269230769230769,0.21428571428571427,0.8571428571428571,0.0004
882,1.5410341620445251,1.535801649093628,0.40384615384615385,0.8269230769230769,0.21428571428571427,0.8571428571428571,0.0004
883,1.5327224135398865,1.5365519523620605,0.38461538461538464,0.8269230769230769,0.21428571428571427,0.8571428571428571,0.0004
884,1.5429604649543762,1.5364689826965332,0.38461538461538464,0.8269230769230769,0.21428571428571427,0.8571428571428571,0.0004
885,1.5872662663459778,1.5369521379470825,0.38461538461538464,0.8269230769230769,0.21428571428571427,0.8571428571428571,0.0004
886,1.5498653054237366,1.5373502969741821,0.34615384615384615,0.8269230769230769,0.21428571428571427,0.8571428571428571,0.0004
887,1.5365788340568542,1.5375590324401855,0.34615384615384615,0.8269230769230769,0.21428571428571427,0.8571428571428571,0.0004
888,1.5753480195999146,1.5377604961395264,0.36538461538461536,0.8269230769230769,0.21428571428571427,0.8571428571428571,0.0004
889,1.5461017489433289,1.5380237102508545,0.36538461538461536,0.8269230769230769,0.21428571428571427,0.8571428571428571,0.0004
890,1.595253825187683,1.5378791093826294,0.38461538461538464,0.8269230769230769,0.21428571428571427,0.8571428571428571,0.0004
891,1.5840593576431274,1.5379160642623901,0.3269230769230769,0.8269230769230769,0.21428571428571427,0.8571428571428571,0.0004
892,1.5175452828407288,1.5379557609558105,0.34615384615384615,0.8269230769230769,0.21428571428571427,0.8571428571428571,0.0004
893,1.589917778968811,1.5381238460540771,0.34615384615384615,0.8269230769230769,0.21428571428571427,0.8571428571428571,0.0004
894,1.5897740721702576,1.537885308265686,0.34615384615384615,0.8269230769230769,0.21428571428571427,0.8571428571428571,0.0004
895,1.5669207572937012,1.537893295288086,0.36538461538461536,0.8269230769230769,0.21428571428571427,0.8571428571428571,0.0004
896,1.560992419719696,1.5380228757858276,0.40384615384615385,0.8269230769230769,0.21428571428571427,0.8571428571428571,0.0004
897,1.5969339609146118,1.538167119026184,0.40384615384615385,0.8269230769230769,0.21428571428571427,0.8571428571428571,0.0004
898,1.5549747943878174,1.5384304523468018,0.34615384615384615,0.8269230769230769,0.21428571428571427,0.8571428571428571,0.0004
899,1.5700771808624268,1.5384230613708496,0.40384615384615385,0.8269230769230769,0.21428571428571427,0.8571428571428571,0.0004
900,1.6210469603538513,1.538756012916565,0.36538461538461536,0.8269230769230769,0.21428571428571427,0.8571428571428571,0.0004
901,1.5517831444740295,1.5388522148132324,0.3269230769230769,0.8269230769230769,0.21428571428571427,0.8571428571428571,0.0004
902,1.5544066429138184,1.5390264987945557,0.4230769230769231,0.8269230769230769,0.21428571428571427,0.8571428571428571,0.0004
903,1.5909987688064575,1.5394325256347656,0.3076923076923077,0.8269230769230769,0.21428571428571427,0.8571428571428571,0.0004
904,1.5397456884384155,1.539351224899292,0.36538461538461536,0.8269230769230769,0.21428571428571427,0.8571428571428571,0.0004
905,1.600599765777588,1.53896963596344,0.38461538461538464,0.8269230769230769,0.21428571428571427,0.8571428571428571,0.0004
906,1.5807249546051025,1.5389811992645264,0.36538461538461536,0.8269230769230769,0.21428571428571427,0.8571428571428571,0.0004
907,1.5492240190505981,1.5387156009674072,0.36538461538461536,0.8269230769230769,0.21428571428571427,0.8571428571428571,0.0004
908,1.5543223023414612,1.538179874420166,0.36538461538461536,0.8269230769230769,0.21428571428571427,0.8571428571428571,0.0004
909,1.545584797859192,1.537331461906433,0.34615384615384615,0.8269230769230769,0.21428571428571427,0.8571428571428571,0.0004
910,1.6032076478004456,1.5363492965698242,0.3076923076923077,0.8269230769230769,0.21428571428571427,0.8571428571428571,0.0004
911,1.5731460452079773,1.5360336303710938,0.38461538461538464,0.8269230769230769,0.21428571428571427,0.8571428571428571,0.0004
912,1.5594263076782227,1.5353684425354004,0.34615384615384615,0.8269230769230769,0.21428571428571427,0.8571428571428571,0.0004
913,1.5632301568984985,1.5350886583328247,0.38461538461538464,0.8269230769230769,0.21428571428571427,0.8571428571428571,0.0004
914,1.551385521888733,1.534458041191101,0.36538461538461536,0.8269230769230769,0.21428571428571427,0.8571428571428571,0.0004
915,1.5577670335769653,1.5336709022521973,0.34615384615384615,0.8269230769230769,0.21428571428571427,0.8571428571428571,0.0004
916,1.5707008838653564,1.5331218242645264,0.36538461538461536,0.8269230769230769,0.21428571428571427,0.8571428571428571,0.0004
917,1.588440716266632,1.5321969985961914,0.3076923076923077,0.8269230769230769,0.21428571428571427,0.8571428571428571,0.0004
918,1.5423110127449036,1.5315024852752686,0.36538461538461536,0.8269230769230769,0.21428571428571427,0.8571428571428571,0.0004
919,1.582771360874176,1.5308165550231934,0.34615384615384615,0.8269230769230769,0.21428571428571427,0.8571428571428571,0.0004
920,1.5756058096885681,1.5301742553710938,0.40384615384615385,0.8269230769230769,0.21428571428571427,0.8571428571428571,0.0004
921,1.5249678492546082,1.5298652648925781,0.3076923076923077,0.8269230769230769,0.21428571428571427,0.8571428571428571,0.0004
922,1.6031778454780579,1.52945077419281,0.3269230769230769,0.8269230769230769,0.21428571428571427,0.8571428571428571,0.0004
923,1.5171599388122559,1.529205083847046,0.34615384615384615,0.8269230769230769,0.21428571428571427,0.8571428571428571,0.0004
924,1.5866931676864624,1.5288805961608887,0.36538461538461536,0.8269230769230769,0.21428571428571427,0.8571428571428571,0.0004
925,1.5522106885910034,1.528895378112793,0.46153846153846156,0.8269230769230769,0.21428571428571427,0.8571428571428571,0.0004
926,1.5436537265777588,1.5289534330368042,0.34615384615384615,0.8269230769230769,0.21428571428571427,0.8571428571428571,0.0004
927,1.5259003043174744,1.5287244319915771,0.4230769230769231,0.8269230769230769,0.21428571428571427,0.8571428571428571,0.0004
928,1.5621091723442078,1.528597354888916,0.38461538461538464,0.8269230769230769,0.21428571428571427,0.8571428571428571,0.0004
929,1.5792388319969177,1.5287305116653442,0.38461538461538464,0.8269230769230769,0.21428571428571427,0.8571428571428571,0.0004
930,1.5752239227294922,1.5288769006729126,0.3076923076923077,0.8269230769230769,0.21428571428571427,0.8571428571428571,0.0004
931,1.5947035551071167,1.529055118560791,0.34615384615384615,0.8269230769230769,0.21428571428571427,0.8571428571428571,0.0004
932,1.6140291690826416,1.5296046733856201,0.38461538461538464,0.8269230769230769,0.21428571428571427,0.8571428571428571,0.0004
933,1.536704182624817,1.530205488204956,0.34615384615384615,0.8269230769230769,0.21428571428571427,0.8571428571428571,0.0004
934,1.592307448387146,1.530355453491211,0.3076923076923077,0.8269230769230769,0.21428571428571427,0.8571428571428571,0.0004
935,1.5431305766105652,1.5312607288360596,0.40384615384615385,0.8269230769230769,0.21428571428571427,0.8571428571428571,0.0004
936,1.5536653995513916,1.531874418258667,0.3269230769230769,0.8269230769230769,0.21428571428571427,0.8571428571428571,0.0004
937,1.5324320197105408,1.5321455001831055,0.38461538461538464,0.8269230769230769,0.21428571428571427,0.8571428571428571,0.0004
938,1.5486462116241455,1.5327136516571045,0.36538461538461536,0.8269230769230769,0.21428571428571427,0.8571428571428571,0.0004
939,1.5772852897644043,1.5328961610794067,0.34615384615384615,0.8269230769230769,0.21428571428571427,0.8571428571428571,0.0004
940,1.560958981513977,1.5332987308502197,0.38461538461538464,0.8269230769230769,0.21428571428571427,0.8571428571428571,0.0004
941,1.6342720985412598,1.5332727432250977,0.36538461538461536,0.8269230769230769,0.21428571428571427,0.8571428571428571,0.0004
942,1.5989021062850952,1.5333882570266724,0.34615384615384615,0.8269230769230769,0.21428571428571427,0.8571428571428571,0.0004
943,1.5619866847991943,1.5337952375411987,0.38461538461538464,0.8269230769230769,0.21428571428571427,0.8571428571428571,0.0004
944,1.619751214981079,1.5343329906463623,0.3076923076923077,0.8269230769230769,0.21428571428571427,0.8571428571428571,0.0004
945,1.5799556374549866,1.5347968339920044,0.36538461538461536,0.8269230769230769,0.21428571428571427,0.8571428571428571,0.0004
946,1.5559858083724976,1.5354186296463013,0.40384615384615385,0.8269230769230769,0.21428571428571427,0.8571428571428571,0.0004
947,1.5605239272117615,1.5361111164093018,0.34615384615384615,0.8269230769230769,0.21428571428571427,0.8571428571428571,0.0004
948,1.6035815477371216,1.5369982719421387,0.28846153846153844,0.8269230769230769,0.21428571428571427,0.8571428571428571,0.0004
949,1.633091151714325,1.5370867252349854,0.36538461538461536,0.8269230769230769,0.21428571428571427,0.8571428571428571,0.0004
950,1.5433763265609741,1.538003921508789,0.34615384615384615,0.8269230769230769,0.21428571428571427,0.8571428571428571,0.0004
951,1.5480614304542542,1.5382847785949707,0.36538461538461536,0.8269230769230769,0.21428571428571427,0.8571428571428571,0.0004
952,1.545767605304718,1.5381741523742676,0.38461538461538464,0.8269230769230769,0.21428571428571427,0.8571428571428571,0.0004
953,1.594003140926361,1.5379821062088013,0.36538461538461536,0.8269230769230769,0.21428571428571427,0.8571428571428571,0.0004
