epoch,train_loss,val_loss,train_acc_action,train_acc_status,val_acc_action,val_acc_status,learning_rate
1,1.8252933025360107,1.8022849559783936,0.3076923076923077,0.17307692307692307,0.42857142857142855,0.14285714285714285,0.0004
2,1.7846873998641968,1.6293108463287354,0.38461538461538464,0.28846153846153844,0.21428571428571427,0.8571428571428571,0.004995066821070679
3,1.8104830980300903,1.5294110774993896,0.36538461538461536,0.8269230769230769,0.35714285714285715,0.8571428571428571,0.004980286753286195
4,1.5699366927146912,1.4739124774932861,0.4423076923076923,0.8269230769230769,0.42857142857142855,0.8571428571428571,0.004955718126821722
5,1.4695582389831543,1.5693495273590088,0.4230769230769231,0.8269230769230769,0.5,0.8571428571428571,0.004921457902821578
6,1.572494626045227,1.4446758031845093,0.40384615384615385,0.8269230769230769,0.5,0.8571428571428571,0.0048776412907378846
7,1.5104978680610657,1.470119595527649,0.40384615384615385,0.8269230769230769,0.6428571428571429,0.8571428571428571,0.004824441214720628
8,1.503710925579071,1.3935818672180176,0.5769230769230769,0.8269230769230769,0.42857142857142855,0.8571428571428571,0.004762067631165049
9,1.4166407585144043,1.2709808349609375,0.5576923076923077,0.8269230769230769,0.7857142857142857,0.8571428571428571,0.0046907667001096585
10,1.334603190422058,1.3489782810211182,0.6346153846153846,0.8269230769230769,0.7142857142857143,0.8571428571428571,0.004610819813755038
11,1.2025446891784668,1.3417470455169678,0.6730769230769231,0.8269230769230769,0.6428571428571429,0.8571428571428571,0.0045225424859373685
12,1.2621590495109558,1.2497774362564087,0.75,0.8269230769230769,0.6428571428571429,0.8571428571428571,0.004426283106939473
13,1.3479462265968323,1.226143717765808,0.5961538461538461,0.8269230769230769,0.6428571428571429,0.8571428571428571,0.004322421568553529
14,1.2011180520057678,1.3814871311187744,0.5769230769230769,0.8269230769230769,0.35714285714285715,0.8571428571428571,0.004211367764821722
15,1.5942038297653198,1.6576199531555176,0.3269230769230769,0.8269230769230769,0.2857142857142857,0.8571428571428571,0.004093559974371724
16,1.5006499290466309,1.1813433170318604,0.34615384615384615,0.8269230769230769,0.7142857142857143,0.8571428571428571,0.003969463130731183
17,1.3576005697250366,1.211962103843689,0.6153846153846154,0.8076923076923077,0.7857142857142857,0.8571428571428571,0.0038395669874474914
18,1.5079426765441895,1.4683797359466553,0.5576923076923077,0.8269230769230769,0.7142857142857143,0.8571428571428571,0.0037043841852542883
19,1.4187858700752258,1.2013331651687622,0.5961538461538461,0.8269230769230769,0.7142857142857143,0.8571428571428571,0.003564448228912682
20,1.5663179755210876,1.3189733028411865,0.5192307692307693,0.8269230769230769,0.6428571428571429,0.8571428571428571,0.0034203113817116953
21,1.1815715432167053,1.2534571886062622,0.7115384615384616,0.8269230769230769,0.8571428571428571,0.8571428571428571,0.0032725424859373687
22,1.2025034427642822,1.4941657781600952,0.7115384615384616,0.8269230769230769,0.6428571428571429,0.8571428571428571,0.0031217247179121366
23,1.2326892614364624,1.658392310142517,0.6923076923076923,0.8269230769230769,0.5714285714285714,0.8571428571428571,0.002968453286464312
24,1.3271849155426025,1.2750906944274902,0.6730769230769231,0.8269230769230769,0.7142857142857143,0.8571428571428571,0.002813333083910761
25,1.1375296115875244,1.5381619930267334,0.6538461538461539,0.8269230769230769,0.6428571428571429,0.8571428571428571,0.0026569762988232835
26,1.1708182096481323,1.4753706455230713,0.6923076923076923,0.8269230769230769,0.6428571428571429,0.8571428571428571,0.0025
27,1.2289139032363892,1.3752593994140625,0.6538461538461539,0.8269230769230769,0.5714285714285714,0.8571428571428571,0.0023430237011767166
28,1.1234717965126038,1.3267664909362793,0.7115384615384616,0.8269230769230769,0.5714285714285714,0.8571428571428571,0.0021866669160892395
29,1.1974608898162842,1.4669688940048218,0.6923076923076923,0.8269230769230769,0.5714285714285714,0.8571428571428571,0.0020315467135356884
30,1.3572737574577332,1.2873923778533936,0.5769230769230769,0.8269230769230769,0.6428571428571429,0.8571428571428571,0.0018782752820878628
31,1.265800654888153,1.5478110313415527,0.5961538461538461,0.8269230769230769,0.6428571428571429,0.8571428571428571,0.0017274575140626323
32,1.2837902903556824,1.764925479888916,0.5961538461538461,0.8269230769230769,0.5,0.8571428571428571,0.0015796886182883059
33,1.180624008178711,1.8339669704437256,0.6730769230769231,0.8269230769230769,0.42857142857142855,0.8571428571428571,0.0014355517710873183
34,1.4738572835922241,1.8554133176803589,0.5576923076923077,0.8269230769230769,0.35714285714285715,0.8571428571428571,0.0012956158147457114
35,1.3337621092796326,1.4491245746612549,0.6346153846153846,0.8269230769230769,0.5714285714285714,0.8571428571428571,0.0011604330125525079
36,1.6337575912475586,1.5406746864318848,0.5,0.8269230769230769,0.42857142857142855,0.8571428571428571,0.0010305368692688174
37,1.4085120558738708,1.5429389476776123,0.5384615384615384,0.8269230769230769,0.5714285714285714,0.8571428571428571,0.0009064400256282757
38,1.233540117740631,2.025179386138916,0.5961538461538461,0.8269230769230769,0.21428571428571427,0.8571428571428571,0.0007886322351782782
39,1.1535260081291199,1.722199559211731,0.6538461538461539,0.8269230769230769,0.2857142857142857,0.8571428571428571,0.0006775784314464717
40,1.2858012914657593,1.682267665863037,0.5576923076923077,0.8269230769230769,0.35714285714285715,0.8571428571428571,0.0005737168930605272
41,1.480782926082611,1.8564915657043457,0.4423076923076923,0.8269230769230769,0.21428571428571427,0.8571428571428571,0.00047745751406263163
42,1.4744666814804077,1.5694164037704468,0.4807692307692308,0.8269230769230769,0.35714285714285715,0.8571428571428571,0.00038918018624496285
43,1.4520343542099,1.7286072969436646,0.4423076923076923,0.8269230769230769,0.21428571428571427,0.8571428571428571,0.00030923329989034103
44,1.572019338607788,1.5466389656066895,0.38461538461538464,0.8269230769230769,0.2857142857142857,0.8571428571428571,0.00023793236883495162
45,1.2769876718521118,1.5220290422439575,0.5192307692307693,0.8269230769230769,0.2857142857142857,0.8571428571428571,0.00017555878527937164
46,1.4612172842025757,1.5097901821136475,0.4423076923076923,0.8269230769230769,0.2857142857142857,0.8571428571428571,0.00012235870926211617
47,1.5427764058113098,1.7166316509246826,0.4230769230769231,0.8269230769230769,0.21428571428571427,0.8571428571428571,7.854209717842258e-05
48,1.4728482961654663,1.4698045253753662,0.4230769230769231,0.8269230769230769,0.35714285714285715,0.8571428571428571,4.4281873178278196e-05
49,1.3540925979614258,1.7098991870880127,0.4807692307692308,0.8269230769230769,0.21428571428571427,0.8571428571428571,1.9713246713805587e-05
50,1.3243877291679382,1.7025269269943237,0.5,0.8269230769230769,0.21428571428571427,0.8571428571428571,4.933178929321102e-06
51,1.3766793012619019,1.5082218647003174,0.4807692307692308,0.8269230769230769,0.42857142857142855,0.8571428571428571,0.005
52,1.6794682145118713,1.517194390296936,0.34615384615384615,0.8269230769230769,0.42857142857142855,0.8571428571428571,0.0049987664009143295
53,1.670204758644104,1.5221567153930664,0.34615384615384615,0.8269230769230769,0.42857142857142855,0.8571428571428571,0.004995066821070679
54,1.807523488998413,1.541961908340454,0.3076923076923077,0.8269230769230769,0.42857142857142855,0.8571428571428571,0.0049889049115077
55,1.7371091842651367,1.5638213157653809,0.3076923076923077,0.8269230769230769,0.35714285714285715,0.8571428571428571,0.004980286753286195
56,1.6855741143226624,1.5571633577346802,0.28846153846153844,0.8269230769230769,0.42857142857142855,0.8571428571428571,0.0049692208514878445
57,1.5932669639587402,1.5615441799163818,0.2692307692307692,0.8269230769230769,0.42857142857142855,0.8571428571428571,0.004955718126821722
58,1.594757080078125,1.585493803024292,0.36538461538461536,0.8269230769230769,0.21428571428571427,0.8571428571428571,0.004939791904846869
59,1.5290010571479797,1.6149404048919678,0.38461538461538464,0.8269230769230769,0.21428571428571427,0.8571428571428571,0.004921457902821578
60,1.598058819770813,1.637331247329712,0.36538461538461536,0.8269230769230769,0.21428571428571427,0.8571428571428571,0.004900734214192358
61,1.6099495887756348,1.623138666152954,0.36538461538461536,0.8269230769230769,0.21428571428571427,0.8571428571428571,0.0048776412907378846
62,1.6312000155448914,1.561000943183899,0.36538461538461536,0.8269230769230769,0.21428571428571427,0.8571428571428571,0.004852201922385564
63,1.5505046844482422,1.5471786260604858,0.38461538461538464,0.8269230769230769,0.21428571428571427,0.8571428571428571,0.004824441214720628
64,1.5748639106750488,1.5532903671264648,0.38461538461538464,0.8269230769230769,0.35714285714285715,0.8571428571428571,0.0047943865642099525
65,1.5673412084579468,1.5120964050292969,0.36538461538461536,0.8269230769230769,0.35714285714285715,0.8571428571428571,0.004762067631165049
66,1.5598785281181335,1.5115468502044678,0.34615384615384615,0.8269230769230769,0.35714285714285715,0.8571428571428571,0.00472751631047092
67,1.6222058534622192,1.5121997594833374,0.3269230769230769,0.8269230769230769,0.35714285714285715,0.8571428571428571,0.0046907667001096585
68,1.6136271953582764,1.513633131980896,0.2692307692307692,0.8269230769230769,0.21428571428571427,0.8571428571428571,0.0046518550675098596
69,1.5976672768592834,1.5175973176956177,0.38461538461538464,0.8269230769230769,0.21428571428571427,0.8571428571428571,0.004610819813755038
70,1.5331733226776123,1.527550220489502,0.38461538461538464,0.8269230769230769,0.21428571428571427,0.8571428571428571,0.004567701435686404
71,1.5380914211273193,1.5323885679244995,0.36538461538461536,0.8269230769230769,0.21428571428571427,0.8571428571428571,0.0045225424859373685
72,1.5512400269508362,1.5363026857376099,0.36538461538461536,0.8269230769230769,0.21428571428571427,0.8571428571428571,0.0044753875309392266
73,1.5868638157844543,1.5404062271118164,0.36538461538461536,0.8269230769230769,0.21428571428571427,0.8571428571428571,0.004426283106939473
74,1.5355636477470398,1.5407822132110596,0.36538461538461536,0.8269230769230769,0.21428571428571427,0.8571428571428571,0.004375277674076149
75,1.539604127407074,1.539637804031372,0.36538461538461536,0.8269230769230769,0.21428571428571427,0.8571428571428571,0.004322421568553529
76,1.5766392946243286,1.5390050411224365,0.36538461538461536,0.8269230769230769,0.21428571428571427,0.8571428571428571,0.004267766952966369
77,1.5788087844848633,1.540008544921875,0.36538461538461536,0.8269230769230769,0.21428571428571427,0.8571428571428571,0.004211367764821722
78,1.565859317779541,1.5410735607147217,0.36538461538461536,0.8269230769230769,0.21428571428571427,0.8571428571428571,0.00415327966330913
79,1.5525115728378296,1.5411710739135742,0.36538461538461536,0.8269230769230769,0.21428571428571427,0.8571428571428571,0.004093559974371724
80,1.572882056236267,1.5391508340835571,0.36538461538461536,0.8269230769230769,0.21428571428571427,0.8571428571428571,0.004032267634132442
81,1.5223385095596313,1.5348944664001465,0.36538461538461536,0.8269230769230769,0.21428571428571427,0.8571428571428571,0.003969463130731183
82,1.5479426383972168,1.5319902896881104,0.36538461538461536,0.8269230769230769,0.21428571428571427,0.8571428571428571,0.003905208444630327
83,1.5526629090309143,1.5345079898834229,0.36538461538461536,0.8269230769230769,0.21428571428571427,0.8571428571428571,0.0038395669874474914
84,1.567578911781311,1.5354599952697754,0.36538461538461536,0.8269230769230769,0.21428571428571427,0.8571428571428571,0.0037726035393759283
85,1.5376302599906921,1.5354846715927124,0.36538461538461536,0.8269230769230769,0.21428571428571427,0.8571428571428571,0.0037043841852542883
86,1.5479235649108887,1.5333553552627563,0.36538461538461536,0.8269230769230769,0.21428571428571427,0.8571428571428571,0.003634976249348867
87,1.5862723588943481,1.5329411029815674,0.36538461538461536,0.8269230769230769,0.21428571428571427,0.8571428571428571,0.003564448228912682
88,1.6030214428901672,1.5315744876861572,0.36538461538461536,0.8269230769230769,0.21428571428571427,0.8571428571428571,0.003492869726586951
89,1.5521608591079712,1.529444932937622,0.36538461538461536,0.8269230769230769,0.21428571428571427,0.8571428571428571,0.0034203113817116953
90,1.554716169834137,1.5276319980621338,0.36538461538461536,0.8269230769230769,0.21428571428571427,0.8571428571428571,0.0033468448006132292
91,1.5643583536148071,1.5237460136413574,0.36538461538461536,0.8269230769230769,0.21428571428571427,0.8571428571428571,0.0032725424859373687
92,1.5348957180976868,1.5222225189208984,0.36538461538461536,0.8269230769230769,0.21428571428571427,0.8571428571428571,0.0031974777650980737
93,1.5510724782943726,1.5230624675750732,0.36538461538461536,0.8269230769230769,0.21428571428571427,0.8571428571428571,0.0031217247179121366
94,1.563630998134613,1.523352026939392,0.36538461538461536,0.8269230769230769,0.21428571428571427,0.8571428571428571,0.0030453581034913567
95,1.5946699976921082,1.5258533954620361,0.36538461538461536,0.8269230769230769,0.21428571428571427,0.8571428571428571,0.002968453286464312
96,1.5637342929840088,1.5285942554473877,0.36538461538461536,0.8269230769230769,0.21428571428571427,0.8571428571428571,0.0028910861626005773
97,1.534712016582489,1.5326381921768188,0.36538461538461536,0.8269230769230769,0.21428571428571427,0.8571428571428571,0.002813333083910761
98,1.5499776601791382,1.5375709533691406,0.36538461538461536,0.8269230769230769,0.21428571428571427,0.8571428571428571,0.002735270783296286
99,1.540775179862976,1.5413793325424194,0.36538461538461536,0.8269230769230769,0.21428571428571427,0.8571428571428571,0.0026569762988232835
100,1.593734323978424,1.542839765548706,0.36538461538461536,0.8269230769230769,0.21428571428571427,0.8571428571428571,0.0025785268976953207
101,1.5467824935913086,1.5434515476226807,0.36538461538461536,0.8269230769230769,0.21428571428571427,0.8571428571428571,0.0025
102,1.5793548822402954,1.5441358089447021,0.36538461538461536,0.8269230769230769,0.21428571428571427,0.8571428571428571,0.0024214731023046794
103,1.5624333024024963,1.5442110300064087,0.36538461538461536,0.8269230769230769,0.21428571428571427,0.8571428571428571,0.0023430237011767166
104,1.565239131450653,1.5434634685516357,0.36538461538461536,0.8269230769230769,0.21428571428571427,0.8571428571428571,0.002264729216703714
105,1.5536287426948547,1.543065071105957,0.36538461538461536,0.8269230769230769,0.21428571428571427,0.8571428571428571,0.0021866669160892395
106,1.5801957845687866,1.541203260421753,0.36538461538461536,0.8269230769230769,0.21428571428571427,0.8571428571428571,0.002108913837399423
107,1.5628252625465393,1.537316083908081,0.36538461538461536,0.8269230769230769,0.21428571428571427,0.8571428571428571,0.0020315467135356884
108,1.5620591640472412,1.5354869365692139,0.36538461538461536,0.8269230769230769,0.21428571428571427,0.8571428571428571,0.0019546418965086442
109,1.5506022572517395,1.534602403640747,0.36538461538461536,0.8269230769230769,0.21428571428571427,0.8571428571428571,0.0018782752820878628
110,1.552931308746338,1.53408944606781,0.36538461538461536,0.8269230769230769,0.21428571428571427,0.8571428571428571,0.001802522234901927
111,1.5516000986099243,1.5325112342834473,0.36538461538461536,0.8269230769230769,0.21428571428571427,0.8571428571428571,0.0017274575140626323
112,1.5615895986557007,1.5297257900238037,0.36538461538461536,0.8269230769230769,0.21428571428571427,0.8571428571428571,0.0016531551993867715
113,1.5675691962242126,1.5299948453903198,0.36538461538461536,0.8269230769230769,0.21428571428571427,0.8571428571428571,0.0015796886182883059
114,1.549072504043579,1.5290087461471558,0.36538461538461536,0.8269230769230769,0.21428571428571427,0.8571428571428571,0.0015071302734130482
115,1.5521854162216187,1.527961015701294,0.36538461538461536,0.8269230769230769,0.21428571428571427,0.8571428571428571,0.0014355517710873183
116,1.53445965051651,1.5255824327468872,0.36538461538461536,0.8269230769230769,0.21428571428571427,0.8571428571428571,0.0013650237506511332
117,1.5323075652122498,1.524399995803833,0.36538461538461536,0.8269230769230769,0.21428571428571427,0.8571428571428571,0.0012956158147457114
118,1.5665016174316406,1.526393175125122,0.36538461538461536,0.8269230769230769,0.21428571428571427,0.8571428571428571,0.0012273964606240718
119,1.5330734848976135,1.525728464126587,0.36538461538461536,0.8269230769230769,0.21428571428571427,0.8571428571428571,0.0011604330125525079
120,1.5186448097229004,1.5257353782653809,0.36538461538461536,0.8269230769230769,0.21428571428571427,0.8571428571428571,0.0010947915553696733
121,1.568005383014679,1.5278738737106323,0.36538461538461536,0.8269230769230769,0.21428571428571427,0.8571428571428571,0.0010305368692688174
122,1.5485087037086487,1.526479721069336,0.36538461538461536,0.8269230769230769,0.21428571428571427,0.8571428571428571,0.0009677323658675585
123,1.5468785762786865,1.5269291400909424,0.36538461538461536,0.8269230769230769,0.21428571428571427,0.8571428571428571,0.0009064400256282757
124,1.5311227440834045,1.5253077745437622,0.36538461538461536,0.8269230769230769,0.21428571428571427,0.8571428571428571,0.0008467203366908707
125,1.5464593768119812,1.5273725986480713,0.36538461538461536,0.8269230769230769,0.21428571428571427,0.8571428571428571,0.0007886322351782782
126,1.5688470005989075,1.527529001235962,0.36538461538461536,0.8269230769230769,0.21428571428571427,0.8571428571428571,0.0007322330470336313
127,1.5515955686569214,1.5259360074996948,0.36538461538461536,0.8269230769230769,0.21428571428571427,0.8571428571428571,0.0006775784314464717
128,1.5800467133522034,1.527199625968933,0.36538461538461536,0.8269230769230769,0.21428571428571427,0.8571428571428571,0.0006247223259238514
129,1.5655077695846558,1.5260679721832275,0.36538461538461536,0.8269230769230769,0.21428571428571427,0.8571428571428571,0.0005737168930605272
130,1.5613703727722168,1.5267096757888794,0.36538461538461536,0.8269230769230769,0.21428571428571427,0.8571428571428571,0.000524612469060774
131,1.5634666681289673,1.5253162384033203,0.36538461538461536,0.8269230769230769,0.21428571428571427,0.8571428571428571,0.00047745751406263163
132,1.5811733603477478,1.529695749282837,0.36538461538461536,0.8269230769230769,0.21428571428571427,0.8571428571428571,0.000432298564313596
133,1.5724352598190308,1.530876874923706,0.36538461538461536,0.8269230769230769,0.21428571428571427,0.8571428571428571,0.00038918018624496285
134,1.5487590432167053,1.5296335220336914,0.36538461538461536,0.8269230769230769,0.21428571428571427,0.8571428571428571,0.0003481449324901406
135,1.5434569716453552,1.5291228294372559,0.36538461538461536,0.8269230769230769,0.21428571428571427,0.8571428571428571,0.00030923329989034103
136,1.548249900341034,1.5321401357650757,0.36538461538461536,0.8269230769230769,0.21428571428571427,0.8571428571428571,0.00027248368952908055
137,1.5344927906990051,1.5294160842895508,0.36538461538461536,0.8269230769230769,0.21428571428571427,0.8571428571428571,0.00023793236883495162
138,1.5609880685806274,1.5267854928970337,0.36538461538461536,0.8269230769230769,0.21428571428571427,0.8571428571428571,0.0002056134357900477
139,1.581050157546997,1.531881332397461,0.36538461538461536,0.8269230769230769,0.21428571428571427,0.8571428571428571,0.00017555878527937164
140,1.5324950814247131,1.5280380249023438,0.36538461538461536,0.8269230769230769,0.21428571428571427,0.8571428571428571,0.00014779807761443637
141,1.5165672302246094,1.5304396152496338,0.36538461538461536,0.8269230769230769,0.21428571428571427,0.8571428571428571,0.00012235870926211617
142,1.561123251914978,1.5291833877563477,0.36538461538461536,0.8269230769230769,0.21428571428571427,0.8571428571428571,9.926578580764262e-05
143,1.5611017942428589,1.5270494222640991,0.36538461538461536,0.8269230769230769,0.21428571428571427,0.8571428571428571,7.854209717842258e-05
144,1.5493810176849365,1.528250813484192,0.36538461538461536,0.8269230769230769,0.21428571428571427,0.8571428571428571,6.0208095153131695e-05
145,1.576839566230774,1.5261253118515015,0.36538461538461536,0.8269230769230769,0.21428571428571427,0.8571428571428571,4.4281873178278196e-05
146,1.545321762561798,1.5316860675811768,0.36538461538461536,0.8269230769230769,0.21428571428571427,0.8571428571428571,3.077914851215585e-05
147,1.5572773218154907,1.5308637619018555,0.36538461538461536,0.8269230769230769,0.21428571428571427,0.8571428571428571,1.9713246713805587e-05
148,1.5582587718963623,1.5300488471984863,0.36538461538461536,0.8269230769230769,0.21428571428571427,0.8571428571428571,1.109508849230001e-05
149,1.5333639979362488,1.528782844543457,0.36538461538461536,0.8269230769230769,0.21428571428571427,0.8571428571428571,4.933178929321102e-06
150,1.6061054468154907,1.5292882919311523,0.38461538461538464,0.8269230769230769,0.21428571428571427,0.8571428571428571,1.233599085671e-06
151,1.579811692237854,1.5415679216384888,0.36538461538461536,0.8269230769230769,0.21428571428571427,0.8571428571428571,0.005
152,1.5893824100494385,1.5780550241470337,0.36538461538461536,0.8269230769230769,0.21428571428571427,0.8571428571428571,0.004999691581204151
153,1.5547758340835571,1.5439414978027344,0.36538461538461536,0.8269230769230769,0.21428571428571427,0.8571428571428571,0.0049987664009143295
154,1.5524280667304993,1.5306580066680908,0.36538461538461536,0.8269230769230769,0.21428571428571427,0.8571428571428571,0.004997224687404925
155,1.5679165124893188,1.524975061416626,0.36538461538461536,0.8269230769230769,0.21428571428571427,0.8571428571428571,0.004995066821070679
156,1.5228479504585266,1.52164888381958,0.38461538461538464,0.8269230769230769,0.21428571428571427,0.8571428571428571,0.00499229333433282
157,1.5574631690979004,1.5287551879882812,0.38461538461538464,0.8269230769230769,0.35714285714285715,0.8571428571428571,0.0049889049115077
158,1.5549541115760803,1.5330085754394531,0.3269230769230769,0.8269230769230769,0.21428571428571427,0.8571428571428571,0.004984902388637949
159,1.5451223254203796,1.5401533842086792,0.36538461538461536,0.8269230769230769,0.21428571428571427,0.8571428571428571,0.004980286753286195
160,1.542370319366455,1.5475513935089111,0.38461538461538464,0.8269230769230769,0.21428571428571427,0.8571428571428571,0.004975059144291394
161,1.5648597478866577,1.5543217658996582,0.36538461538461536,0.8269230769230769,0.21428571428571427,0.8571428571428571,0.0049692208514878445
162,1.530779778957367,1.5596109628677368,0.38461538461538464,0.8269230769230769,0.21428571428571427,0.8571428571428571,0.004962773315386935
163,1.526097297668457,1.5639878511428833,0.36538461538461536,0.8269230769230769,0.21428571428571427,0.8571428571428571,0.004955718126821722
164,1.5076099038124084,1.5649434328079224,0.40384615384615385,0.8269230769230769,0.21428571428571427,0.8571428571428571,0.0049480570265544145
165,1.5585824847221375,1.5053067207336426,0.40384615384615385,0.8269230769230769,0.2857142857142857,0.8571428571428571,0.004939791904846869
166,1.5276532769203186,1.531531810760498,0.36538461538461536,0.8269230769230769,0.21428571428571427,0.8571428571428571,0.004930924800994192
167,1.529536247253418,1.5039950609207153,0.40384615384615385,0.8269230769230769,0.2857142857142857,0.8571428571428571,0.004921457902821578
168,1.4928017258644104,1.452138900756836,0.4230769230769231,0.8269230769230769,0.35714285714285715,0.8571428571428571,0.004911393546144495
169,1.5024150013923645,1.4750772714614868,0.34615384615384615,0.8269230769230769,0.2857142857142857,0.8571428571428571,0.004900734214192358
170,1.4928519129753113,1.3891046047210693,0.4423076923076923,0.8269230769230769,0.5,0.8571428571428571,0.004889482536995825
171,1.4658483266830444,1.489144206047058,0.34615384615384615,0.8269230769230769,0.35714285714285715,0.8571428571428571,0.0048776412907378846
172,1.473872184753418,1.4049423933029175,0.46153846153846156,0.8269230769230769,0.42857142857142855,0.8571428571428571,0.004865213397068863
173,1.4609585404396057,1.4027702808380127,0.38461538461538464,0.8269230769230769,0.5714285714285714,0.8571428571428571,0.004852201922385564
174,1.4249629378318787,1.3770322799682617,0.5192307692307693,0.8269230769230769,0.6428571428571429,0.8571428571428571,0.004838610077074669
175,1.3890121579170227,1.4517719745635986,0.5,0.8269230769230769,0.2857142857142857,0.8571428571428571,0.004824441214720628
176,1.4832812547683716,1.6056369543075562,0.3076923076923077,0.8269230769230769,0.42857142857142855,0.8571428571428571,0.004809698831278217
177,1.3831199407577515,1.4611103534698486,0.40384615384615385,0.8269230769230769,0.2857142857142857,0.8571428571428571,0.0047943865642099525
178,1.4158891439437866,1.573636770248413,0.36538461538461536,0.8269230769230769,0.2857142857142857,0.8571428571428571,0.004778508191588613
179,1.5561941266059875,1.3696187734603882,0.4230769230769231,0.8269230769230769,0.35714285714285715,0.8571428571428571,0.004762067631165049
180,1.4272267818450928,1.5314569473266602,0.46153846153846156,0.8461538461538461,0.2857142857142857,0.8571428571428571,0.004745068939401539
181,1.4389835000038147,1.4952096939086914,0.4230769230769231,0.8461538461538461,0.2857142857142857,0.8571428571428571,0.00472751631047092
182,1.3562192916870117,1.5443261861801147,0.4423076923076923,0.8461538461538461,0.35714285714285715,0.8571428571428571,0.004709414075221734
183,1.3965906500816345,1.4261958599090576,0.46153846153846156,0.8846153846153846,0.42857142857142855,0.8571428571428571,0.0046907667001096585
184,1.3596238493919373,1.3017218112945557,0.46153846153846156,0.9038461538461539,0.5,0.7857142857142857,0.004671578786095479
185,1.3186805844306946,1.3549768924713135,0.5384615384615384,0.8846153846153846,0.2857142857142857,0.9285714285714286,0.0046518550675098596
186,1.232132375240326,1.693568468093872,0.5,0.9423076923076923,0.21428571428571427,0.8571428571428571,0.004631600410885231
187,1.5083346366882324,1.4205307960510254,0.40384615384615385,0.8461538461538461,0.2857142857142857,0.9285714285714286,0.004610819813755038
188,1.2767003178596497,1.2914056777954102,0.46153846153846156,0.8846153846153846,0.42857142857142855,0.8571428571428571,0.004589518403420676
189,1.3569515347480774,1.4496369361877441,0.5,0.8461538461538461,0.35714285714285715,0.8571428571428571,0.004567701435686404
190,1.256398618221283,1.5013495683670044,0.5384615384615384,0.9423076923076923,0.35714285714285715,0.8571428571428571,0.004545374293562558
191,1.2133233547210693,1.318455696105957,0.4807692307692308,0.9423076923076923,0.42857142857142855,0.9285714285714286,0.0045225424859373685
192,1.2289275527000427,1.297686219215393,0.46153846153846156,0.9038461538461539,0.35714285714285715,0.9285714285714286,0.004499211646217727
193,1.2350818514823914,1.6091681718826294,0.4807692307692308,0.9423076923076923,0.21428571428571427,0.8571428571428571,0.0044753875309392266
194,1.3792064189910889,1.272645115852356,0.4807692307692308,0.8653846153846154,0.2857142857142857,0.9285714285714286,0.004451076018345824
195,1.3235151767730713,1.6403727531433105,0.46153846153846156,0.8846153846153846,0.2857142857142857,0.8571428571428571,0.004426283106939473
196,1.2322664260864258,1.5175089836120605,0.5961538461538461,0.8653846153846154,0.35714285714285715,0.8571428571428571,0.004401014914000078
197,1.5406585931777954,1.5114030838012695,0.4807692307692308,0.8461538461538461,0.42857142857142855,0.7857142857142857,0.004375277674076149
198,1.4214588403701782,1.8646471500396729,0.6153846153846154,0.7884615384615384,0.35714285714285715,0.6428571428571429,0.004349077737446524
199,1.6568955779075623,1.4600939750671387,0.5384615384615384,0.6730769230769231,0.42857142857142855,0.7857142857142857,0.004322421568553529
200,1.5536432266235352,1.6748448610305786,0.5769230769230769,0.6730769230769231,0.35714285714285715,0.5714285714285714,0.004295315744407973
201,1.672323226928711,1.2854493856430054,0.4423076923076923,0.5384615384615384,0.42857142857142855,0.8571428571428571,0.004267766952966369
202,1.488564670085907,1.6919639110565186,0.6346153846153846,0.7692307692307693,0.2857142857142857,0.8571428571428571,0.004239781991480785
203,1.3210006356239319,1.7332336902618408,0.5192307692307693,0.8846153846153846,0.21428571428571427,0.8571428571428571,0.004211367764821722
204,1.6621273756027222,1.6901133060455322,0.36538461538461536,0.8269230769230769,0.2857142857142857,0.8571428571428571,0.004182531283774433
205,1.6431740522384644,1.7660226821899414,0.40384615384615385,0.8269230769230769,0.35714285714285715,0.8571428571428571,0.00415327966330913
206,1.571105420589447,1.6759064197540283,0.40384615384615385,0.8269230769230769,0.2857142857142857,0.8571428571428571,0.00412362012082546
207,1.48879075050354,1.6028326749801636,0.4230769230769231,0.8269230769230769,0.14285714285714285,0.8571428571428571,0.004093559974371724
208,1.54043447971344,1.5053857564926147,0.4230769230769231,0.8269230769230769,0.35714285714285715,0.8571428571428571,0.004063106640839263
209,1.5290834307670593,1.4383516311645508,0.4230769230769231,0.8269230769230769,0.5,0.8571428571428571,0.004032267634132442
210,1.4392785429954529,1.5467389822006226,0.4230769230769231,0.8269230769230769,0.35714285714285715,0.8571428571428571,0.004001050563314711
211,1.5325612425804138,1.3185464143753052,0.3076923076923077,0.8269230769230769,0.5714285714285714,0.8571428571428571,0.003969463130731183
212,1.4279784560203552,1.3113056421279907,0.4423076923076923,0.8269230769230769,0.6428571428571429,0.8571428571428571,0.003937513130108197
213,1.4470874071121216,1.4032487869262695,0.4807692307692308,0.8269230769230769,0.42857142857142855,0.8571428571428571,0.003905208444630327
214,1.4166858196258545,1.3670016527175903,0.38461538461538464,0.8269230769230769,0.42857142857142855,0.8571428571428571,0.0038725570449953295
215,1.3238388895988464,1.3853662014007568,0.5769230769230769,0.8846153846153846,0.5,0.8571428571428571,0.0038395669874474914
216,1.3657239079475403,1.4325990676879883,0.5576923076923077,0.8269230769230769,0.35714285714285715,0.8571428571428571,0.0038062464117898723
217,1.4523438811302185,1.580267071723938,0.4230769230769231,0.8269230769230769,0.21428571428571427,0.8571428571428571,0.0037726035393759283
218,1.451047122478485,1.5547643899917603,0.38461538461538464,0.8269230769230769,0.21428571428571427,0.8571428571428571,0.003738646671081019
219,1.3584495186805725,1.3845874071121216,0.5192307692307693,0.8269230769230769,0.5,0.8571428571428571,0.0037043841852542883
220,1.4199095368385315,1.3525727987289429,0.46153846153846156,0.8269230769230769,0.6428571428571429,0.8571428571428571,0.0036698245356514337
221,1.5155547857284546,1.5055508613586426,0.5,0.8269230769230769,0.2857142857142857,0.8571428571428571,0.003634976249348867
222,1.3743200302124023,1.4006820917129517,0.46153846153846156,0.8269230769230769,0.5714285714285714,0.8571428571428571,0.0035998479246397877
223,1.3207701444625854,1.3910642862319946,0.6538461538461539,0.8269230769230769,0.42857142857142855,0.8571428571428571,0.003564448228912682
224,1.2932010889053345,1.2858412265777588,0.5961538461538461,0.8269230769230769,0.35714285714285715,0.8571428571428571,0.0035287858965127724
225,1.3699684143066406,1.2864887714385986,0.5384615384615384,0.8269230769230769,0.5,0.8571428571428571,0.003492869726586951
226,1.2266716957092285,1.19572913646698,0.5769230769230769,0.8269230769230769,0.42857142857142855,0.8571428571428571,0.003456708580912725
227,1.2087211608886719,1.271472454071045,0.5961538461538461,0.8269230769230769,0.42857142857142855,0.8571428571428571,0.0034203113817116953
228,1.2568938732147217,1.4840154647827148,0.5961538461538461,0.8076923076923077,0.2857142857142857,0.8571428571428571,0.003383687109448143
229,1.1811331510543823,1.3035794496536255,0.6538461538461539,0.8269230769230769,0.6428571428571429,0.7142857142857143,0.0033468448006132292
230,1.2740919589996338,1.6763639450073242,0.5961538461538461,0.8461538461538461,0.42857142857142855,0.6428571428571429,0.003309793545495374
231,1.3780071139335632,1.312296986579895,0.6153846153846154,0.7692307692307693,0.35714285714285715,0.8571428571428571,0.0032725424859373687
232,1.2854380011558533,1.1258251667022705,0.5961538461538461,0.8076923076923077,0.5714285714285714,0.9285714285714286,0.00323510081308076
233,1.258549690246582,1.3549675941467285,0.5769230769230769,0.8076923076923077,0.35714285714285715,0.8571428571428571,0.0031974777650980737
234,1.3464810848236084,1.2669188976287842,0.5192307692307693,0.8461538461538461,0.42857142857142855,0.9285714285714286,0.003159682624913432
235,1.3262999057769775,1.387500524520874,0.5769230769230769,0.7884615384615384,0.42857142857142855,0.9285714285714286,0.0031217247179121366
236,1.4373932480812073,1.5380107164382935,0.4807692307692308,0.75,0.42857142857142855,0.7857142857142857,0.0030836134096397638
237,1.3669251203536987,1.4942954778671265,0.4807692307692308,0.8076923076923077,0.35714285714285715,0.8571428571428571,0.0030453581034913567
238,1.3405044674873352,1.4501471519470215,0.46153846153846156,0.8269230769230769,0.35714285714285715,0.8571428571428571,0.0030069682383912816
239,1.408453643321991,1.5710030794143677,0.4807692307692308,0.8269230769230769,0.35714285714285715,0.8571428571428571,0.002968453286464312
240,1.2170922756195068,1.2850885391235352,0.5384615384615384,0.8269230769230769,0.35714285714285715,0.8571428571428571,0.0029298227506985236
241,1.3450078964233398,1.060884952545166,0.5769230769230769,0.8269230769230769,0.6428571428571429,0.8571428571428571,0.0028910861626005773
242,1.5273430347442627,1.2670044898986816,0.4423076923076923,0.8269230769230769,0.7857142857142857,0.8571428571428571,0.0028522530798439573
243,1.4381154775619507,1.2008769512176514,0.4807692307692308,0.8269230769230769,0.5714285714285714,0.8571428571428571,0.002813333083910761
244,1.5272719264030457,1.1761060953140259,0.46153846153846156,0.8269230769230769,0.7142857142857143,0.8571428571428571,0.0027743357777276134
245,1.401130199432373,1.1869211196899414,0.5,0.8076923076923077,0.5,0.8571428571428571,0.002735270783296286
246,1.221311330795288,1.3012712001800537,0.5576923076923077,0.8269230769230769,0.5,0.8571428571428571,0.0026961477393196128
247,1.2212905287742615,1.3559980392456055,0.5,0.8269230769230769,0.35714285714285715,0.8571428571428571,0.0026569762988232835
248,1.1435519456863403,1.2769055366516113,0.6730769230769231,0.8269230769230769,0.5714285714285714,0.8571428571428571,0.0026177661267741065
249,1.3309640884399414,1.4214239120483398,0.5769230769230769,0.8269230769230769,0.2857142857142857,0.8571428571428571,0.0025785268976953207
250,1.310890555381775,1.3305935859680176,0.46153846153846156,0.8269230769230769,0.35714285714285715,0.8571428571428571,0.002539268293279552
251,1.2247119545936584,1.21277916431427,0.5192307692307693,0.8269230769230769,0.5714285714285714,0.8571428571428571,0.0025
252,1.2810081243515015,1.219449520111084,0.6153846153846154,0.8461538461538461,0.5714285714285714,0.8571428571428571,0.002460731706720449
253,1.2794322967529297,1.2172884941101074,0.5,0.9807692307692307,0.35714285714285715,0.8571428571428571,0.0024214731023046794
254,1.2820119857788086,1.252316951751709,0.5192307692307693,0.8653846153846154,0.5714285714285714,0.7857142857142857,0.0023822338732258936
255,1.143913745880127,1.1468431949615479,0.5769230769230769,0.8846153846153846,0.5,0.8571428571428571,0.0023430237011767166
256,1.1168655753135681,1.4099082946777344,0.6538461538461539,0.9615384615384616,0.42857142857142855,0.7857142857142857,0.002303852260680388
257,1.161441445350647,1.183276653289795,0.6730769230769231,0.8653846153846154,0.5,0.8571428571428571,0.002264729216703714
258,1.4719560146331787,1.2309106588363647,0.4807692307692308,0.8653846153846154,0.5,0.8571428571428571,0.0022256642222723867
259,1.0577860176563263,1.3722883462905884,0.6346153846153846,0.9423076923076923,0.42857142857142855,0.8571428571428571,0.0021866669160892395
260,1.073395550251007,1.532447099685669,0.6153846153846154,0.8846153846153846,0.21428571428571427,0.8571428571428571,0.002147746920156044
261,1.0670368075370789,1.1508841514587402,0.6538461538461539,0.9038461538461539,0.6428571428571429,0.8571428571428571,0.002108913837399423
262,1.13810133934021,1.5131984949111938,0.6346153846153846,0.9230769230769231,0.35714285714285715,0.7857142857142857,0.002070177249301476
263,1.0278756320476532,1.3023121356964111,0.6346153846153846,0.9423076923076923,0.5714285714285714,0.7857142857142857,0.0020315467135356884
264,1.0720383524894714,1.5096913576126099,0.5769230769230769,0.8846153846153846,0.42857142857142855,0.7857142857142857,0.001993031761608719
265,1.1597435474395752,1.509484052658081,0.5576923076923077,0.9230769230769231,0.35714285714285715,0.7857142857142857,0.0019546418965086442
266,1.3128412365913391,1.44589102268219,0.5,0.8653846153846154,0.14285714285714285,0.8571428571428571,0.0019163865903602361
267,1.1772790551185608,1.2361092567443848,0.6346153846153846,0.8846153846153846,0.42857142857142855,0.9285714285714286,0.0018782752820878628
268,1.097925990819931,0.8025346994400024,0.5576923076923077,0.9423076923076923,0.7857142857142857,0.9285714285714286,0.0018403173750865679
269,0.898023784160614,1.1467649936676025,0.6923076923076923,0.9615384615384616,0.5,0.9285714285714286,0.001802522234901927
270,0.9209636747837067,1.1512293815612793,0.6730769230769231,0.9615384615384616,0.5,0.8571428571428571,0.0017648991869192404
271,1.3808640241622925,1.6506294012069702,0.5576923076923077,0.9230769230769231,0.42857142857142855,0.8571428571428571,0.0017274575140626323
272,1.1057105660438538,1.2943880558013916,0.5769230769230769,0.8653846153846154,0.5,0.8571428571428571,0.0016902064545046263
273,1.1542524695396423,1.3052847385406494,0.5769230769230769,0.8846153846153846,0.5714285714285714,0.8571428571428571,0.0016531551993867715
274,1.2247596383094788,1.12871515750885,0.5576923076923077,0.8846153846153846,0.6428571428571429,0.9285714285714286,0.0016163128905518577
275,1.0534636080265045,1.0999056100845337,0.6538461538461539,0.9038461538461539,0.6428571428571429,0.9285714285714286,0.0015796886182883059
276,1.4989162683486938,1.398827075958252,0.5384615384615384,0.8269230769230769,0.35714285714285715,0.8571428571428571,0.0015432914190872762
277,1.274229645729065,1.4342105388641357,0.5384615384615384,0.9038461538461539,0.42857142857142855,0.8571428571428571,0.0015071302734130482
278,1.174966037273407,1.4984477758407593,0.5384615384615384,0.8461538461538461,0.35714285714285715,0.8571428571428571,0.001471214103487228
279,1.1788243055343628,1.352607250213623,0.5576923076923077,0.8653846153846154,0.42857142857142855,0.8571428571428571,0.0014355517710873183
280,1.160562515258789,1.2590265274047852,0.5192307692307693,0.9038461538461539,0.6428571428571429,0.8571428571428571,0.001400152075360212
281,1.3628427386283875,1.4484870433807373,0.5,0.9038461538461539,0.6428571428571429,0.7857142857142857,0.0013650237506511332
282,1.2263805866241455,1.005521535873413,0.5769230769230769,0.8846153846153846,0.5714285714285714,0.9285714285714286,0.001330175464348567
283,1.2184006571769714,1.1803865432739258,0.6730769230769231,0.8846153846153846,0.5,0.8571428571428571,0.0012956158147457114
284,1.3060297966003418,1.3399094343185425,0.5,0.8653846153846154,0.5,0.8571428571428571,0.001261353328918981
285,1.2051882147789001,1.1673709154129028,0.5769230769230769,0.8653846153846154,0.5,0.8571428571428571,0.0012273964606240718
286,1.1649763584136963,1.456363558769226,0.6153846153846154,0.8653846153846154,0.35714285714285715,0.8571428571428571,0.001193753588210128
287,1.1493398547172546,1.1051961183547974,0.6923076923076923,0.8461538461538461,0.5,0.8571428571428571,0.0011604330125525079
288,1.2181077599525452,1.2189310789108276,0.5961538461538461,0.8653846153846154,0.5,0.9285714285714286,0.0011274429550046702
289,1.1204606890678406,1.728304147720337,0.5576923076923077,0.9038461538461539,0.42857142857142855,0.7142857142857143,0.0010947915553696733
290,0.948856383562088,1.22161865234375,0.6346153846153846,0.9615384615384616,0.42857142857142855,0.8571428571428571,0.0010624868698918036
291,1.271073579788208,1.1452908515930176,0.5384615384615384,0.8846153846153846,0.6428571428571429,0.9285714285714286,0.0010305368692688174
292,1.1962230205535889,1.2767226696014404,0.5192307692307693,0.9230769230769231,0.5714285714285714,0.8571428571428571,0.0009989494366852902
293,1.1238676309585571,1.4258394241333008,0.5769230769230769,0.9423076923076923,0.5,0.7857142857142857,0.0009677323658675585
294,1.1713853478431702,1.233872652053833,0.5192307692307693,0.9230769230769231,0.7142857142857143,0.7857142857142857,0.000936893359160737
295,1.241178035736084,1.1981143951416016,0.4807692307692308,0.9038461538461539,0.5,0.8571428571428571,0.0009064400256282757
296,1.1207894086837769,1.1100226640701294,0.5961538461538461,0.8846153846153846,0.5714285714285714,0.9285714285714286,0.0008763798791745412
297,0.9602708220481873,1.2181564569473267,0.7115384615384616,0.9230769230769231,0.42857142857142855,0.9285714285714286,0.0008467203366908707
298,0.9942094087600708,1.4216800928115845,0.5769230769230769,0.9423076923076923,0.2857142857142857,0.9285714285714286,0.0008174687162255665
299,1.1219802498817444,1.3277276754379272,0.6153846153846154,0.8846153846153846,0.42857142857142855,0.8571428571428571,0.0007886322351782782
300,1.099371314048767,1.231381893157959,0.6153846153846154,0.9038461538461539,0.42857142857142855,0.8571428571428571,0.0007602180085192142
301,1.084427297115326,1.4230029582977295,0.6153846153846154,0.9423076923076923,0.21428571428571427,0.8571428571428571,0.0007322330470336313
302,1.1392146348953247,1.3874180316925049,0.6153846153846154,0.9230769230769231,0.35714285714285715,0.8571428571428571,0.0007046842555920282
303,1.101532131433487,1.2554584741592407,0.5961538461538461,0.9423076923076923,0.5,0.8571428571428571,0.0006775784314464717
304,1.0525636076927185,1.5971137285232544,0.5384615384615384,0.9615384615384616,0.35714285714285715,0.7857142857142857,0.0006509222625534758
305,1.0370734632015228,1.2710539102554321,0.5576923076923077,0.9423076923076923,0.42857142857142855,0.8571428571428571,0.0006247223259238514
306,1.2073686718940735,1.3231818675994873,0.6346153846153846,0.9038461538461539,0.5,0.7857142857142857,0.0005989850859999227
307,1.1788638830184937,1.1794376373291016,0.5192307692307693,0.9038461538461539,0.42857142857142855,0.8571428571428571,0.0005737168930605272
308,1.2798097729682922,1.1735063791275024,0.5769230769230769,0.9230769230769231,0.42857142857142855,0.9285714285714286,0.000548923981654176
309,1.0654423236846924,1.1778534650802612,0.6346153846153846,0.8846153846153846,0.5714285714285714,0.9285714285714286,0.000524612469060774
310,1.1701634526252747,1.3379231691360474,0.5576923076923077,0.8846153846153846,0.35714285714285715,0.9285714285714286,0.0005007883537822738
311,1.1143797636032104,1.3056325912475586,0.6153846153846154,0.9038461538461539,0.6428571428571429,0.8571428571428571,0.00047745751406263163
312,1.1636667251586914,1.2742828130722046,0.5576923076923077,0.8653846153846154,0.42857142857142855,0.8571428571428571,0.00045462570643744175
313,1.2413823008537292,1.1986761093139648,0.5769230769230769,0.8461538461538461,0.5714285714285714,0.8571428571428571,0.000432298564313596
314,0.8871042132377625,1.0744569301605225,0.6346153846153846,0.9615384615384616,0.5714285714285714,0.9285714285714286,0.00041048159657932487
315,1.134497046470642,1.470317006111145,0.5961538461538461,0.9230769230769231,0.5714285714285714,0.7857142857142857,0.00038918018624496285
316,1.1248088777065277,1.3947840929031372,0.5384615384615384,0.9230769230769231,0.5714285714285714,0.8571428571428571,0.00036839958911477014
317,1.1821188926696777,1.3610121011734009,0.5576923076923077,0.9230769230769231,0.7857142857142857,0.7857142857142857,0.0003481449324901406
318,1.0769500732421875,1.109369158744812,0.6346153846153846,0.9230769230769231,0.5,0.9285714285714286,0.0003284212139045217
319,1.0108575820922852,1.2346616983413696,0.6538461538461539,0.9615384615384616,0.5,0.9285714285714286,0.00030923329989034103
320,1.2376993298530579,1.080256462097168,0.5384615384615384,0.9038461538461539,0.7142857142857143,0.8571428571428571,0.00029058592477826633
321,0.8814584314823151,1.6437885761260986,0.6730769230769231,0.9807692307692307,0.35714285714285715,0.7857142857142857,0.00027248368952908055
322,1.0644770860671997,1.337418556213379,0.6153846153846154,0.9423076923076923,0.35714285714285715,0.9285714285714286,0.00025493106059846116
323,1.182858943939209,1.4309239387512207,0.6153846153846154,0.9230769230769231,0.42857142857142855,0.7857142857142857,0.00023793236883495162
324,1.1683228611946106,1.2297576665878296,0.5961538461538461,0.9038461538461539,0.42857142857142855,0.9285714285714286,0.00022149180841138732
325,1.0646364390850067,1.5034818649291992,0.5576923076923077,0.9230769230769231,0.35714285714285715,0.8571428571428571,0.0002056134357900477
326,1.0605665445327759,1.3793666362762451,0.6346153846153846,0.9230769230769231,0.42857142857142855,0.8571428571428571,0.0001903011687217837
327,1.2819851636886597,1.2404849529266357,0.4807692307692308,0.9423076923076923,0.6428571428571429,0.7857142857142857,0.00017555878527937164
328,1.0839044451713562,1.1470818519592285,0.5,0.9423076923076923,0.5,0.8571428571428571,0.00016138992292533155
329,1.2922882437705994,1.3777333498001099,0.5192307692307693,0.8846153846153846,0.42857142857142855,0.8571428571428571,0.00014779807761443637
330,1.065136879682541,1.2748857736587524,0.6923076923076923,0.9038461538461539,0.5,0.8571428571428571,0.00013478660293113676
331,1.2851300239562988,1.4232735633850098,0.5961538461538461,0.9230769230769231,0.5714285714285714,0.8571428571428571,0.00012235870926211617
332,1.037705421447754,1.4603588581085205,0.6923076923076923,0.8846153846153846,0.5,0.8571428571428571,0.0001105174630041747
333,1.416486144065857,1.159767508506775,0.5192307692307693,0.8846153846153846,0.7857142857142857,0.8571428571428571,9.926578580764262e-05
334,1.235496461391449,1.2695279121398926,0.5,0.8846153846153846,0.5714285714285714,0.8571428571428571,8.860645385550508e-05
335,1.3010492324829102,1.4141398668289185,0.5,0.8653846153846154,0.42857142857142855,0.8571428571428571,7.854209717842258e-05
336,1.0518140196800232,1.2938244342803955,0.5961538461538461,0.9038461538461539,0.5714285714285714,0.8571428571428571,6.90751990058086e-05
337,1.023829460144043,1.2169891595840454,0.6153846153846154,0.9423076923076923,0.35714285714285715,0.8571428571428571,6.0208095153131695e-05
338,1.0612979531288147,1.30796217918396,0.6346153846153846,0.9230769230769231,0.5,0.9285714285714286,5.194297344558535e-05
339,1.2520484328269958,1.5419197082519531,0.5384615384615384,0.8846153846153846,0.42857142857142855,0.7857142857142857,4.4281873178278196e-05
340,1.0295118689537048,1.367779016494751,0.5384615384615384,0.9423076923076923,0.5,0.8571428571428571,3.7226684613065334e-05
341,0.9740650057792664,1.4834178686141968,0.6538461538461539,0.9615384615384616,0.42857142857142855,0.7857142857142857,3.077914851215585e-05
342,1.011654257774353,1.2401604652404785,0.6346153846153846,0.9230769230769231,0.5,0.8571428571428571,2.4940855708606158e-05
343,1.2151432633399963,1.4499921798706055,0.5384615384615384,0.9038461538461539,0.42857142857142855,0.8571428571428571,1.9713246713805587e-05
344,0.9870910942554474,1.2755560874938965,0.6153846153846154,0.9423076923076923,0.42857142857142855,0.8571428571428571,1.5097611362051012e-05
345,1.2178770303726196,1.1264221668243408,0.6153846153846154,0.8846153846153846,0.7142857142857143,0.8571428571428571,1.109508849230001e-05
346,1.0725603103637695,1.4842907190322876,0.5769230769230769,0.9230769230769231,0.5,0.7142857142857143,7.70666566718009e-06
347,1.1689096093177795,1.2286564111709595,0.6346153846153846,0.9230769230769231,0.2857142857142857,0.9285714285714286,4.933178929321102e-06
348,1.1171238720417023,1.2941209077835083,0.5384615384615384,0.9230769230769231,0.5,0.8571428571428571,2.775312595075241e-06
349,1.1567693948745728,1.2405662536621094,0.5576923076923077,0.8653846153846154,0.5714285714285714,0.8571428571428571,1.233599085671e-06
350,1.3229591846466064,1.2091376781463623,0.4807692307692308,0.8653846153846154,0.5,0.8571428571428571,3.0841879584853074e-07
