epoch,train_loss,val_loss,train_acc_action,train_acc_status,val_acc_action,val_acc_status,learning_rate
1,1.808609962463379,1.7952508926391602,0.3076923076923077,0.17307692307692307,0.42857142857142855,0.14285714285714285,0.0004
2,1.7949583530426025,1.7814099788665771,0.3076923076923077,0.36538461538461536,0.42857142857142855,0.8571428571428571,0.0004
3,1.7806084156036377,1.7675530910491943,0.3076923076923077,0.8269230769230769,0.42857142857142855,0.8571428571428571,0.0004
4,1.769287347793579,1.7525720596313477,0.3076923076923077,0.8269230769230769,0.2857142857142857,0.8571428571428571,0.0004
5,1.7517123222351074,1.7330784797668457,0.4230769230769231,0.8269230769230769,0.21428571428571427,0.8571428571428571,0.0004
6,1.7286715507507324,1.7114901542663574,0.46153846153846156,0.8269230769230769,0.35714285714285715,0.8571428571428571,0.0004
7,1.701472520828247,1.6818162202835083,0.4230769230769231,0.8269230769230769,0.35714285714285715,0.8571428571428571,0.0004
8,1.6688455939292908,1.6454797983169556,0.38461538461538464,0.8269230769230769,0.2857142857142857,0.8571428571428571,0.0004
9,1.629227876663208,1.602424144744873,0.38461538461538464,0.8269230769230769,0.2857142857142857,0.8571428571428571,0.0004
10,1.5603652000427246,1.5521904230117798,0.36538461538461536,0.8269230769230769,0.5,0.8571428571428571,0.0004
11,1.550122082233429,1.5671958923339844,0.40384615384615385,0.8269230769230769,0.21428571428571427,0.8571428571428571,0.0004
12,1.5375087261199951,1.5678361654281616,0.36538461538461536,0.8269230769230769,0.21428571428571427,0.8571428571428571,0.0004
13,1.6117529273033142,1.551114559173584,0.36538461538461536,0.8269230769230769,0.21428571428571427,0.8571428571428571,0.0004
14,1.5734024047851562,1.530853509902954,0.36538461538461536,0.8269230769230769,0.21428571428571427,0.8571428571428571,0.0004
15,1.5373704433441162,1.5167896747589111,0.36538461538461536,0.8269230769230769,0.21428571428571427,0.8571428571428571,0.0004
16,1.5688955187797546,1.5214465856552124,0.40384615384615385,0.8269230769230769,0.2857142857142857,0.8571428571428571,0.0004
17,1.5541653037071228,1.515028476715088,0.4230769230769231,0.8269230769230769,0.42857142857142855,0.8571428571428571,0.0004
18,1.5203393697738647,1.5289843082427979,0.4807692307692308,0.8269230769230769,0.5,0.8571428571428571,0.0004
19,1.491552472114563,1.5125806331634521,0.5,0.8269230769230769,0.5,0.8571428571428571,0.0004
20,1.4986929297447205,1.5108932256698608,0.4423076923076923,0.8269230769230769,0.5,0.8571428571428571,0.0004
21,1.5367678999900818,1.5224770307540894,0.4230769230769231,0.8269230769230769,0.5,0.8571428571428571,0.0004
22,1.4818004965782166,1.5267802476882935,0.4230769230769231,0.8269230769230769,0.5,0.8571428571428571,0.0004
23,1.484850525856018,1.438194751739502,0.40384615384615385,0.8269230769230769,0.6428571428571429,0.8571428571428571,0.0004
24,1.433350384235382,1.4558488130569458,0.5,0.8269230769230769,0.6428571428571429,0.8571428571428571,0.0004
25,1.3779192566871643,1.4586738348007202,0.4807692307692308,0.8269230769230769,0.5,0.8571428571428571,0.0004
26,1.358265995979309,1.5453553199768066,0.6153846153846154,0.8269230769230769,0.42857142857142855,0.8571428571428571,0.0004
27,1.428867220878601,1.5808695554733276,0.5769230769230769,0.8269230769230769,0.5714285714285714,0.8571428571428571,0.0004
28,1.4303918480873108,1.3872705698013306,0.5576923076923077,0.8269230769230769,0.42857142857142855,0.8571428571428571,0.0004
29,1.3846214413642883,1.3758306503295898,0.4423076923076923,0.8269230769230769,0.5714285714285714,0.8571428571428571,0.0004
30,1.3461869955062866,1.4161567687988281,0.5961538461538461,0.8269230769230769,0.7142857142857143,0.8571428571428571,0.0004
31,1.4303221106529236,1.3354605436325073,0.4807692307692308,0.8269230769230769,0.7142857142857143,0.8571428571428571,0.0004
32,1.428215205669403,1.1978416442871094,0.5576923076923077,0.8269230769230769,0.7857142857142857,0.8571428571428571,0.0004
33,1.3091427087783813,1.371323823928833,0.5384615384615384,0.8269230769230769,0.6428571428571429,0.8571428571428571,0.0004
34,1.2122509479522705,1.3250327110290527,0.6730769230769231,0.8269230769230769,0.6428571428571429,0.8571428571428571,0.0004
35,1.3331645727157593,1.2177188396453857,0.5961538461538461,0.8269230769230769,0.7142857142857143,0.8571428571428571,0.0004
36,1.4049224257469177,1.1734938621520996,0.6346153846153846,0.8269230769230769,0.6428571428571429,0.8571428571428571,0.0004
37,1.22607421875,1.04496169090271,0.6538461538461539,0.8269230769230769,0.7857142857142857,0.8571428571428571,0.0004
38,1.237990140914917,1.152557134628296,0.6730769230769231,0.8269230769230769,0.7857142857142857,0.8571428571428571,0.0004
39,1.1908795833587646,1.1251157522201538,0.6923076923076923,0.8269230769230769,0.7142857142857143,0.8571428571428571,0.0004
40,1.1728146076202393,1.1430165767669678,0.6538461538461539,0.8269230769230769,0.6428571428571429,0.8571428571428571,0.0004
41,1.2880521416664124,0.9902299046516418,0.5961538461538461,0.8269230769230769,0.8571428571428571,0.8571428571428571,0.0004
42,1.1855041980743408,0.934522807598114,0.6730769230769231,0.8269230769230769,0.7857142857142857,0.8571428571428571,0.0004
43,1.1681574583053589,1.1743109226226807,0.6346153846153846,0.8269230769230769,0.7142857142857143,0.8571428571428571,0.0004
44,1.0904488563537598,1.0985145568847656,0.7307692307692307,0.8269230769230769,0.8571428571428571,0.8571428571428571,0.0004
45,1.1187313795089722,0.7506351470947266,0.7692307692307693,0.8269230769230769,0.7857142857142857,0.8571428571428571,0.0004
46,1.1389505863189697,1.1706656217575073,0.6923076923076923,0.8269230769230769,0.7857142857142857,0.8571428571428571,0.0004
47,1.1266996264457703,1.4844989776611328,0.6730769230769231,0.8269230769230769,0.7857142857142857,0.8571428571428571,0.0004
48,1.2559645771980286,0.8393582701683044,0.6730769230769231,0.8269230769230769,0.7857142857142857,0.8571428571428571,0.0004
49,1.1570863723754883,0.8664267063140869,0.6153846153846154,0.8269230769230769,0.7857142857142857,0.8571428571428571,0.0004
50,1.109156310558319,1.321703314781189,0.6923076923076923,0.8269230769230769,0.7142857142857143,0.8571428571428571,0.0004
51,1.0984064042568207,1.0810410976409912,0.6923076923076923,0.8269230769230769,0.6428571428571429,0.8571428571428571,0.0004
52,1.2588824033737183,1.1195495128631592,0.6346153846153846,0.8269230769230769,0.6428571428571429,0.8571428571428571,0.0004
53,1.3067572712898254,1.2674301862716675,0.5384615384615384,0.8269230769230769,0.6428571428571429,0.8571428571428571,0.0004
54,1.1433156728744507,1.1246446371078491,0.6730769230769231,0.8269230769230769,0.7142857142857143,0.8571428571428571,0.0004
55,1.1561281085014343,1.111071228981018,0.6730769230769231,0.8269230769230769,0.6428571428571429,0.8571428571428571,0.0004
56,1.1986252069473267,1.1476703882217407,0.6346153846153846,0.8269230769230769,0.7142857142857143,0.8571428571428571,0.0004
57,1.0990824103355408,1.4036917686462402,0.6538461538461539,0.8269230769230769,0.7142857142857143,0.8571428571428571,0.0004
58,1.0691161751747131,0.9701412320137024,0.75,0.8269230769230769,0.7857142857142857,0.8571428571428571,0.0004
59,1.1416972875595093,1.1557146310806274,0.6730769230769231,0.8269230769230769,0.6428571428571429,0.8571428571428571,0.0004
60,1.1399556398391724,1.5843886137008667,0.6730769230769231,0.8269230769230769,0.5714285714285714,0.8571428571428571,0.0004
61,1.091956913471222,1.1561108827590942,0.6730769230769231,0.8269230769230769,0.7142857142857143,0.8571428571428571,0.0004
62,1.1990973353385925,1.1569567918777466,0.6730769230769231,0.8269230769230769,0.7857142857142857,0.8571428571428571,0.0004
63,1.054085373878479,1.1458463668823242,0.6923076923076923,0.8269230769230769,0.7142857142857143,0.8571428571428571,0.0004
64,0.9444201588630676,1.11446213722229,0.8269230769230769,0.8269230769230769,0.7142857142857143,0.8571428571428571,0.0004
65,1.13363915681839,0.9018847942352295,0.7115384615384616,0.8269230769230769,0.7857142857142857,0.8571428571428571,0.0004
66,1.2457469701766968,1.0481358766555786,0.7115384615384616,0.8269230769230769,0.7142857142857143,0.8571428571428571,0.0004
67,1.0094743967056274,1.1809329986572266,0.8269230769230769,0.8269230769230769,0.7142857142857143,0.8571428571428571,0.0004
68,1.1058100461959839,0.9341932535171509,0.6923076923076923,0.8269230769230769,0.8571428571428571,0.8571428571428571,0.0004
69,1.1816507577896118,1.2041923999786377,0.6538461538461539,0.8269230769230769,0.7142857142857143,0.8571428571428571,0.0004
70,1.2518380284309387,0.7330368757247925,0.5961538461538461,0.8269230769230769,0.9285714285714286,0.8571428571428571,0.0004
71,1.0612218379974365,1.1739344596862793,0.7115384615384616,0.8269230769230769,0.5714285714285714,0.8571428571428571,0.0004
72,0.9778340458869934,1.2061578035354614,0.7692307692307693,0.8269230769230769,0.6428571428571429,0.8571428571428571,0.0004
73,1.064680576324463,1.186582326889038,0.7307692307692307,0.8269230769230769,0.7142857142857143,0.8571428571428571,0.0004
74,0.8663005828857422,0.9717217683792114,0.7692307692307693,0.8269230769230769,0.7857142857142857,0.8571428571428571,0.0004
75,1.1477647423744202,1.1502933502197266,0.6538461538461539,0.8269230769230769,0.7142857142857143,0.8571428571428571,0.0004
76,1.0522476434707642,1.1841423511505127,0.75,0.8269230769230769,0.6428571428571429,0.8571428571428571,0.0004
77,0.9468158483505249,1.0952321290969849,0.75,0.8269230769230769,0.7857142857142857,0.8571428571428571,0.0004
78,1.171133577823639,1.2263636589050293,0.6730769230769231,0.8269230769230769,0.7857142857142857,0.8571428571428571,0.0004
79,1.2318676710128784,0.8938767910003662,0.6538461538461539,0.8269230769230769,0.8571428571428571,0.8571428571428571,0.0004
80,1.1959792971611023,1.1378388404846191,0.6153846153846154,0.8269230769230769,0.6428571428571429,0.8571428571428571,0.0004
81,1.153308391571045,0.7382379174232483,0.6153846153846154,0.8269230769230769,0.9285714285714286,0.8571428571428571,0.0004
82,1.006577730178833,1.3864907026290894,0.6730769230769231,0.8269230769230769,0.42857142857142855,0.8571428571428571,0.0004
83,1.06301349401474,0.8747642040252686,0.7307692307692307,0.8269230769230769,0.7857142857142857,0.8571428571428571,0.0004
84,1.1084702014923096,1.2306560277938843,0.7115384615384616,0.8269230769230769,0.7857142857142857,0.8571428571428571,0.0004
85,1.2631571888923645,1.2992520332336426,0.6346153846153846,0.8269230769230769,0.6428571428571429,0.8571428571428571,0.0004
86,1.1170871257781982,1.2736812829971313,0.7115384615384616,0.8269230769230769,0.7142857142857143,0.8571428571428571,0.0004
87,1.1175116300582886,0.883161187171936,0.6538461538461539,0.8269230769230769,0.7142857142857143,0.8571428571428571,0.0004
88,1.2264196276664734,1.000004529953003,0.6153846153846154,0.8269230769230769,0.8571428571428571,0.8571428571428571,0.0004
89,1.0857983827590942,0.6676373481750488,0.7307692307692307,0.8269230769230769,0.9285714285714286,0.8571428571428571,0.0004
90,0.8470145463943481,0.937131941318512,0.8269230769230769,0.8269230769230769,0.8571428571428571,0.8571428571428571,0.0004
91,1.0956542193889618,1.5084407329559326,0.6538461538461539,0.8269230769230769,0.5714285714285714,0.8571428571428571,0.0004
92,1.0194377303123474,1.0029773712158203,0.7692307692307693,0.8269230769230769,0.8571428571428571,0.8571428571428571,0.0004
93,1.0259539783000946,1.2470383644104004,0.6923076923076923,0.8269230769230769,0.7142857142857143,0.8571428571428571,0.0004
94,0.958053469657898,1.038564682006836,0.75,0.8269230769230769,0.7142857142857143,0.8571428571428571,0.0004
95,0.8142290115356445,1.1317323446273804,0.8461538461538461,0.8269230769230769,0.7142857142857143,0.8571428571428571,0.0004
96,1.0606334209442139,0.7811548709869385,0.6923076923076923,0.8269230769230769,1.0,0.8571428571428571,0.0004
97,1.0498841404914856,1.2905633449554443,0.6923076923076923,0.8269230769230769,0.7857142857142857,0.8571428571428571,0.0004
98,1.02215176820755,1.1840518712997437,0.6923076923076923,0.8269230769230769,0.7857142857142857,0.8571428571428571,0.0004
99,1.022800862789154,1.2947354316711426,0.7307692307692307,0.8269230769230769,0.6428571428571429,0.8571428571428571,0.0004
100,0.9762039184570312,1.4110767841339111,0.75,0.8269230769230769,0.6428571428571429,0.8571428571428571,0.0004
101,0.8834748268127441,1.6000834703445435,0.7692307692307693,0.8269230769230769,0.5,0.8571428571428571,0.0004
102,1.246782124042511,1.2043962478637695,0.6346153846153846,0.8269230769230769,0.5714285714285714,0.8571428571428571,0.0004
103,1.1219269037246704,1.1187543869018555,0.7115384615384616,0.8269230769230769,0.6428571428571429,0.8571428571428571,0.0004
104,1.0687753558158875,1.0660722255706787,0.6923076923076923,0.8269230769230769,0.7142857142857143,0.8571428571428571,0.0004
105,0.95653435587883,1.6011559963226318,0.7115384615384616,0.8846153846153846,0.7857142857142857,0.8571428571428571,0.0004
106,0.8613514602184296,1.0918763875961304,0.7692307692307693,0.8846153846153846,0.7857142857142857,0.8571428571428571,0.0004
107,0.9611848592758179,1.5353360176086426,0.7884615384615384,0.8269230769230769,0.7142857142857143,0.8571428571428571,0.0004
108,1.0630099177360535,0.9159958362579346,0.7115384615384616,0.8269230769230769,0.7142857142857143,0.8571428571428571,0.0004
109,1.0482770204544067,1.250597596168518,0.7307692307692307,0.8269230769230769,0.5714285714285714,0.8571428571428571,0.0004
110,0.9249672293663025,1.0637656450271606,0.7307692307692307,0.8269230769230769,0.6428571428571429,0.8571428571428571,0.0004
111,0.9437039792537689,0.9452798366546631,0.75,0.8269230769230769,0.7857142857142857,0.8571428571428571,0.0004
112,1.0573866963386536,1.2665132284164429,0.6730769230769231,0.8269230769230769,0.5,0.8571428571428571,0.0004
113,1.0246024131774902,0.9483578205108643,0.6730769230769231,0.8461538461538461,0.9285714285714286,0.8571428571428571,0.0004
114,1.0474229454994202,0.9213701486587524,0.6153846153846154,0.8076923076923077,0.8571428571428571,0.8571428571428571,0.0004
115,1.0795240998268127,1.2093418836593628,0.6730769230769231,0.8461538461538461,0.7857142857142857,0.8571428571428571,0.0004
116,0.9057272970676422,1.1585713624954224,0.8076923076923077,0.8269230769230769,0.5714285714285714,0.8571428571428571,0.0004
117,0.9023137092590332,0.9037705063819885,0.7692307692307693,0.8269230769230769,0.8571428571428571,0.8571428571428571,0.0004
118,1.0010042786598206,1.2143689393997192,0.6923076923076923,0.8461538461538461,0.6428571428571429,0.8571428571428571,0.0004
119,1.0292720794677734,1.6751041412353516,0.6923076923076923,0.8269230769230769,0.7142857142857143,0.8571428571428571,0.0004
120,0.9351095855236053,0.9834257364273071,0.7692307692307693,0.8269230769230769,0.7857142857142857,0.8571428571428571,0.0004
121,0.9718814790248871,0.8864323496818542,0.75,0.8269230769230769,0.7857142857142857,0.8571428571428571,0.0004
122,1.007068157196045,1.191650390625,0.7115384615384616,0.8461538461538461,0.5714285714285714,0.8571428571428571,0.0004
123,1.07615727186203,1.4435442686080933,0.6346153846153846,0.9230769230769231,0.6428571428571429,0.7857142857142857,0.0004
124,1.060566246509552,1.0920641422271729,0.6730769230769231,0.8846153846153846,0.7142857142857143,0.8571428571428571,0.0004
125,1.2434194684028625,1.0157041549682617,0.6538461538461539,0.8846153846153846,0.7142857142857143,0.9285714285714286,0.0004
126,0.8103471100330353,1.2474688291549683,0.6923076923076923,0.8846153846153846,0.6428571428571429,0.8571428571428571,0.0004
127,1.044583022594452,0.8763827085494995,0.75,0.8269230769230769,0.7142857142857143,0.9285714285714286,0.0004
128,0.9127342104911804,0.8991836309432983,0.7115384615384616,0.8269230769230769,0.8571428571428571,0.7857142857142857,0.0004
129,0.784474641084671,1.1280138492584229,0.8076923076923077,0.8846153846153846,0.7142857142857143,0.8571428571428571,0.0004
130,0.8703955113887787,1.0667569637298584,0.7692307692307693,0.8846153846153846,0.7857142857142857,0.8571428571428571,0.0004
131,1.098809689283371,0.9012175798416138,0.7115384615384616,0.8461538461538461,0.7857142857142857,0.8571428571428571,0.0004
132,0.8860057890415192,0.6704957485198975,0.7692307692307693,0.9038461538461539,0.8571428571428571,0.8571428571428571,0.0004
133,0.8137063086032867,1.2117432355880737,0.7692307692307693,0.8846153846153846,0.6428571428571429,0.8571428571428571,0.0004
134,1.0059691965579987,1.0377198457717896,0.6923076923076923,0.9038461538461539,0.6428571428571429,0.9285714285714286,0.0004
135,1.1912603974342346,1.3428568840026855,0.6346153846153846,0.8461538461538461,0.5714285714285714,0.7857142857142857,0.0004
136,1.004930317401886,0.9514980316162109,0.6730769230769231,0.8653846153846154,0.7857142857142857,0.8571428571428571,0.0004
137,0.9737045168876648,1.6957001686096191,0.7692307692307693,0.8846153846153846,0.5714285714285714,0.8571428571428571,0.0004
138,1.0328122973442078,1.295252799987793,0.7307692307692307,0.8461538461538461,0.5714285714285714,0.9285714285714286,0.0004
139,1.1834458708763123,0.893683671951294,0.6730769230769231,0.8461538461538461,0.7142857142857143,0.8571428571428571,0.0004
140,0.8407072424888611,0.9596614837646484,0.7884615384615384,0.8846153846153846,0.7857142857142857,0.8571428571428571,0.0004
141,0.8802068531513214,1.0958963632583618,0.7692307692307693,0.8653846153846154,0.6428571428571429,0.9285714285714286,0.0004
142,1.0764673054218292,1.3287433385849,0.7307692307692307,0.8461538461538461,0.5,0.8571428571428571,0.0004
143,0.7193831503391266,1.288884162902832,0.7692307692307693,0.9230769230769231,0.6428571428571429,0.7857142857142857,0.0004
144,0.7741054892539978,0.38883888721466064,0.8269230769230769,0.8461538461538461,1.0,1.0,0.0004
145,0.6998853385448456,1.189009666442871,0.8076923076923077,0.9038461538461539,0.7142857142857143,0.8571428571428571,0.0004
146,0.7496010959148407,0.7855886816978455,0.8269230769230769,0.8846153846153846,0.8571428571428571,0.9285714285714286,0.0004
147,0.779043436050415,1.7533462047576904,0.75,0.9423076923076923,0.5714285714285714,0.8571428571428571,0.0004
148,0.8705362677574158,1.5449104309082031,0.6923076923076923,0.8846153846153846,0.6428571428571429,0.8571428571428571,0.0004
149,0.8664003610610962,1.086357593536377,0.7692307692307693,0.8653846153846154,0.7142857142857143,0.6428571428571429,0.0004
150,0.7237463891506195,0.51157546043396,0.8076923076923077,0.9230769230769231,0.9285714285714286,0.8571428571428571,0.0004
151,0.7845105230808258,1.374599575996399,0.8076923076923077,0.9038461538461539,0.6428571428571429,0.7857142857142857,0.0004
152,0.9963422119617462,1.1400747299194336,0.6730769230769231,0.8653846153846154,0.7142857142857143,0.8571428571428571,0.0004
153,1.0173328518867493,1.1449459791183472,0.6923076923076923,0.8653846153846154,0.5714285714285714,0.7857142857142857,0.0004
154,0.9975290596485138,1.0593674182891846,0.7115384615384616,0.8846153846153846,0.7857142857142857,0.9285714285714286,0.0004
155,1.1981390118598938,1.6263232231140137,0.7115384615384616,0.8846153846153846,0.5714285714285714,0.7142857142857143,0.0004
156,0.7308211624622345,0.9567415118217468,0.7692307692307693,0.9615384615384616,0.6428571428571429,0.9285714285714286,0.0004
157,0.783595085144043,0.9666265249252319,0.7307692307692307,0.9230769230769231,0.7142857142857143,0.8571428571428571,0.0004
158,0.9096533954143524,1.1752865314483643,0.7884615384615384,0.9038461538461539,0.7142857142857143,0.7142857142857143,0.0004
159,0.9223507344722748,1.477637767791748,0.7115384615384616,0.9038461538461539,0.5714285714285714,0.8571428571428571,0.0004
160,1.0389621257781982,1.233368992805481,0.6346153846153846,0.9230769230769231,0.6428571428571429,0.8571428571428571,0.0004
161,0.7646465599536896,1.1089056730270386,0.8076923076923077,0.9038461538461539,0.7142857142857143,0.8571428571428571,0.0004
162,0.9000542163848877,1.3237018585205078,0.75,0.9615384615384616,0.7142857142857143,0.8571428571428571,0.0004
163,0.7330692410469055,0.6603032946586609,0.7307692307692307,0.9807692307692307,0.7857142857142857,1.0,0.0004
164,0.9187774956226349,1.4382386207580566,0.7115384615384616,0.8461538461538461,0.6428571428571429,0.8571428571428571,0.0004
165,1.002584308385849,1.3925931453704834,0.7115384615384616,0.8846153846153846,0.5714285714285714,0.7857142857142857,0.0004
166,0.7244876623153687,1.4816688299179077,0.7307692307692307,1.0,0.6428571428571429,0.8571428571428571,0.0004
167,0.6436830759048462,0.7526031136512756,0.7307692307692307,0.9807692307692307,0.8571428571428571,0.9285714285714286,0.0004
168,0.7717934250831604,1.0818336009979248,0.75,0.9038461538461539,0.7142857142857143,0.8571428571428571,0.0004
169,0.7697838842868805,0.9720319509506226,0.7884615384615384,0.9423076923076923,0.7142857142857143,0.8571428571428571,0.0004
170,0.6672751754522324,0.9398741722106934,0.8076923076923077,0.9423076923076923,0.7857142857142857,0.7857142857142857,0.0004
171,0.9915601909160614,0.5937901139259338,0.7115384615384616,0.8653846153846154,0.9285714285714286,0.9285714285714286,0.0004
172,0.8161110281944275,1.4361648559570312,0.7692307692307693,0.9230769230769231,0.7142857142857143,0.7857142857142857,0.0004
173,0.9381098747253418,0.8940004706382751,0.6346153846153846,0.9038461538461539,0.7142857142857143,0.8571428571428571,0.0004
174,1.0037169456481934,0.6096537709236145,0.6730769230769231,0.9038461538461539,0.7142857142857143,0.9285714285714286,0.0004
175,0.9096619486808777,1.092756748199463,0.75,0.8653846153846154,0.7142857142857143,0.8571428571428571,0.0004
176,0.8885799944400787,0.9548580646514893,0.7115384615384616,0.9230769230769231,0.7857142857142857,0.8571428571428571,0.0004
177,0.9003110229969025,1.2739661931991577,0.7115384615384616,0.9230769230769231,0.6428571428571429,0.8571428571428571,0.0004
178,0.8401795029640198,0.41686806082725525,0.7884615384615384,0.8461538461538461,1.0,0.9285714285714286,0.0004
179,0.7929380834102631,1.5858104228973389,0.7884615384615384,0.8269230769230769,0.7142857142857143,0.7142857142857143,0.0004
180,0.7130507975816727,0.6948723196983337,0.8076923076923077,0.9038461538461539,0.7857142857142857,0.9285714285714286,0.0004
181,0.6294705420732498,0.7877073287963867,0.7884615384615384,0.9230769230769231,0.7857142857142857,0.9285714285714286,0.0004
182,0.7024092972278595,0.7844887971878052,0.7692307692307693,0.9807692307692307,0.7857142857142857,0.9285714285714286,0.0004
183,0.7126794159412384,1.1385160684585571,0.7692307692307693,0.9423076923076923,0.5714285714285714,0.9285714285714286,0.0004
184,0.9283117055892944,0.8255544304847717,0.6730769230769231,0.9038461538461539,0.9285714285714286,0.8571428571428571,0.0004
185,0.8252139091491699,1.1076902151107788,0.6923076923076923,0.8846153846153846,0.6428571428571429,0.9285714285714286,0.0004
186,0.7824193835258484,0.9899923801422119,0.75,0.9038461538461539,0.7857142857142857,0.8571428571428571,0.0004
187,1.0582524240016937,0.9820834398269653,0.75,0.8653846153846154,0.7857142857142857,0.7142857142857143,0.0004
188,0.8734645843505859,1.310984492301941,0.7692307692307693,0.8846153846153846,0.7142857142857143,0.6428571428571429,0.0004
189,0.9224967062473297,0.9491599798202515,0.7115384615384616,0.9038461538461539,0.8571428571428571,0.9285714285714286,0.0004
190,0.7743268013000488,1.227838158607483,0.7884615384615384,0.8461538461538461,0.6428571428571429,0.9285714285714286,0.0004
191,1.106709361076355,1.012143850326538,0.7115384615384616,0.9230769230769231,0.7142857142857143,0.7857142857142857,0.0004
192,0.6670558452606201,1.4273513555526733,0.8653846153846154,0.9615384615384616,0.5714285714285714,0.8571428571428571,0.0004
193,0.6381293535232544,1.0992060899734497,0.7884615384615384,0.9615384615384616,0.8571428571428571,0.8571428571428571,0.0004
194,0.7166135311126709,1.4509491920471191,0.7692307692307693,0.9038461538461539,0.42857142857142855,0.8571428571428571,0.0004
195,0.8422220945358276,0.9208563566207886,0.7307692307692307,0.8653846153846154,0.7857142857142857,0.7857142857142857,0.0004
196,0.992578387260437,0.8640105128288269,0.6730769230769231,0.9423076923076923,0.8571428571428571,0.8571428571428571,0.0004
197,0.7584720551967621,0.6913081407546997,0.8076923076923077,0.9230769230769231,0.8571428571428571,0.8571428571428571,0.0004
198,0.9168660640716553,0.8826338052749634,0.7115384615384616,0.9038461538461539,0.7857142857142857,0.8571428571428571,0.0004
199,0.8999151587486267,1.0188459157943726,0.7884615384615384,0.8846153846153846,0.7142857142857143,0.8571428571428571,0.0004
200,0.7218425273895264,0.9562407732009888,0.7692307692307693,0.9038461538461539,0.6428571428571429,0.9285714285714286,0.0004
201,0.875713974237442,1.089585304260254,0.7115384615384616,0.9230769230769231,0.6428571428571429,0.8571428571428571,0.0004
202,0.5302138030529022,0.8531257510185242,0.8653846153846154,0.9615384615384616,0.8571428571428571,0.8571428571428571,0.0004
203,1.0462754964828491,1.3454828262329102,0.6923076923076923,0.8653846153846154,0.5,0.7857142857142857,0.0004
204,0.7659953236579895,1.1215667724609375,0.7884615384615384,0.9038461538461539,0.7142857142857143,0.7142857142857143,0.0004
205,0.7495012283325195,0.5752747058868408,0.7692307692307693,0.8846153846153846,0.8571428571428571,0.8571428571428571,0.0004
206,0.9582981467247009,0.7803680300712585,0.6923076923076923,0.9230769230769231,0.8571428571428571,0.9285714285714286,0.0004
207,0.8531771302223206,0.7853114604949951,0.6923076923076923,0.9423076923076923,0.9285714285714286,0.7857142857142857,0.0004
208,0.8252208232879639,1.063122272491455,0.75,0.9423076923076923,0.7142857142857143,0.8571428571428571,0.0004
209,0.8100430369377136,1.684748649597168,0.7692307692307693,0.9230769230769231,0.6428571428571429,0.7857142857142857,0.0004
210,1.0447430908679962,1.0546727180480957,0.6730769230769231,0.9038461538461539,0.6428571428571429,0.9285714285714286,0.0004
211,0.8938552439212799,1.2174537181854248,0.75,0.9038461538461539,0.7142857142857143,0.7857142857142857,0.0004
212,0.8425969779491425,1.4857957363128662,0.75,0.9038461538461539,0.6428571428571429,0.7857142857142857,0.0004
213,0.7975350916385651,0.884343683719635,0.7692307692307693,0.8846153846153846,0.7142857142857143,0.8571428571428571,0.0004
214,0.6351470053195953,1.5535742044448853,0.7692307692307693,0.9423076923076923,0.6428571428571429,0.8571428571428571,0.0004
215,0.8136068284511566,1.3681719303131104,0.7307692307692307,0.9615384615384616,0.7142857142857143,0.8571428571428571,0.0004
216,0.765205591917038,1.2957541942596436,0.8076923076923077,0.8653846153846154,0.7857142857142857,0.8571428571428571,0.0004
217,0.9942688941955566,0.9523194432258606,0.7115384615384616,0.8653846153846154,0.8571428571428571,0.8571428571428571,0.0004
218,0.6421139240264893,0.6723307371139526,0.8076923076923077,0.9423076923076923,0.9285714285714286,0.8571428571428571,0.0004
219,1.1191415190696716,1.0364091396331787,0.6923076923076923,0.8653846153846154,0.7857142857142857,0.8571428571428571,0.0004
220,0.9485424757003784,0.613965630531311,0.6730769230769231,0.9038461538461539,0.9285714285714286,0.8571428571428571,0.0004
221,1.1736792922019958,1.3852566480636597,0.6538461538461539,0.8461538461538461,0.6428571428571429,0.7142857142857143,0.0004
222,0.95380499958992,0.9949347972869873,0.6923076923076923,0.9038461538461539,0.7857142857142857,0.9285714285714286,0.0004
223,0.9502204954624176,1.4695682525634766,0.6153846153846154,0.9230769230769231,0.5714285714285714,0.9285714285714286,0.0004
224,0.9208144247531891,1.249373435974121,0.6923076923076923,0.8846153846153846,0.6428571428571429,0.8571428571428571,0.0004
225,0.6850225925445557,1.2833938598632812,0.8269230769230769,0.9038461538461539,0.5714285714285714,0.8571428571428571,0.0004
226,0.8419388234615326,1.308929681777954,0.7692307692307693,0.9230769230769231,0.7857142857142857,0.9285714285714286,0.0004
227,1.0677301287651062,1.2629482746124268,0.6730769230769231,0.9423076923076923,0.6428571428571429,0.8571428571428571,0.0004
228,0.7849054336547852,0.7410930395126343,0.75,0.9615384615384616,0.7857142857142857,0.9285714285714286,0.0004
229,0.8023878633975983,1.0456098318099976,0.7884615384615384,0.9038461538461539,0.7857142857142857,0.9285714285714286,0.0004
230,0.9262986183166504,0.6687296032905579,0.7692307692307693,0.8846153846153846,0.8571428571428571,0.9285714285714286,0.0004
231,0.8621800243854523,1.1816376447677612,0.75,0.9230769230769231,0.5714285714285714,0.7142857142857143,0.0004
232,0.8020019829273224,1.5838923454284668,0.7115384615384616,0.9807692307692307,0.5714285714285714,0.7857142857142857,0.0004
233,0.7956389784812927,1.0759267807006836,0.75,0.9615384615384616,0.5,0.8571428571428571,0.0004
234,0.9581110775470734,0.8758779168128967,0.6538461538461539,0.9423076923076923,0.7857142857142857,0.9285714285714286,0.0004
235,0.8119025826454163,1.174514889717102,0.7692307692307693,0.8653846153846154,0.6428571428571429,0.7857142857142857,0.0004
236,0.7823060154914856,1.4139654636383057,0.7884615384615384,0.8846153846153846,0.6428571428571429,0.9285714285714286,0.0004
237,0.9746344685554504,1.0504536628723145,0.6153846153846154,0.9423076923076923,0.7142857142857143,0.8571428571428571,0.0004
238,0.7741107940673828,1.065483808517456,0.7692307692307693,0.8846153846153846,0.6428571428571429,0.9285714285714286,0.0004
239,0.814971387386322,1.351426601409912,0.7307692307692307,0.9615384615384616,0.5714285714285714,0.8571428571428571,0.0004
240,0.7493408918380737,1.4226047992706299,0.75,0.9423076923076923,0.5714285714285714,0.9285714285714286,0.0004
241,0.7785359621047974,1.318678617477417,0.7307692307692307,0.9230769230769231,0.6428571428571429,0.7142857142857143,0.0004
242,0.9413294196128845,1.3429338932037354,0.7307692307692307,0.9230769230769231,0.6428571428571429,0.7857142857142857,0.0004
243,0.5645231753587723,0.6062897443771362,0.8269230769230769,0.9423076923076923,0.9285714285714286,0.9285714285714286,0.0004
244,0.6950876712799072,1.1842200756072998,0.7115384615384616,0.9615384615384616,0.7857142857142857,0.7142857142857143,0.0004
245,0.8051666617393494,1.0602617263793945,0.8076923076923077,0.8653846153846154,0.7142857142857143,0.8571428571428571,0.0004
246,0.7043527364730835,1.486421823501587,0.8269230769230769,0.9038461538461539,0.5714285714285714,0.8571428571428571,0.0004
247,0.9684118926525116,1.8126463890075684,0.7115384615384616,0.9038461538461539,0.6428571428571429,0.7142857142857143,0.0004
248,0.8371625244617462,0.9334726333618164,0.7307692307692307,0.9230769230769231,0.7142857142857143,0.9285714285714286,0.0004
249,0.8749919235706329,1.264505386352539,0.7307692307692307,0.9423076923076923,0.6428571428571429,0.8571428571428571,0.0004
250,0.9467907547950745,1.7387505769729614,0.7307692307692307,0.9038461538461539,0.5714285714285714,0.7142857142857143,0.0004
251,0.8286149501800537,0.7952665090560913,0.75,0.9230769230769231,0.7857142857142857,0.9285714285714286,0.0004
252,0.9338980615139008,1.602008581161499,0.7307692307692307,0.8653846153846154,0.7142857142857143,0.7857142857142857,0.0004
253,1.0024586021900177,1.2315019369125366,0.6923076923076923,0.8846153846153846,0.7142857142857143,0.7857142857142857,0.0004
254,0.8307290077209473,0.5820395350456238,0.7884615384615384,0.8461538461538461,0.7857142857142857,0.9285714285714286,0.0004
255,1.1800482273101807,0.4011244773864746,0.6538461538461539,0.8461538461538461,1.0,0.9285714285714286,0.0004
256,0.9583171606063843,0.792809009552002,0.75,0.8846153846153846,0.8571428571428571,0.8571428571428571,0.0004
257,0.6481880843639374,0.4387132525444031,0.8846153846153846,0.9230769230769231,1.0,0.9285714285714286,0.0004
258,0.9053972959518433,0.6921324133872986,0.75,0.8846153846153846,0.9285714285714286,0.9285714285714286,0.0004
259,0.8036783039569855,1.4081521034240723,0.7884615384615384,0.8653846153846154,0.5714285714285714,0.7142857142857143,0.0004
260,0.7607864439487457,1.4395904541015625,0.7884615384615384,0.8653846153846154,0.5714285714285714,0.8571428571428571,0.0004
261,0.8174993097782135,0.8023513555526733,0.7692307692307693,0.9038461538461539,0.8571428571428571,0.8571428571428571,0.0004
262,0.7731373608112335,0.908784031867981,0.7307692307692307,0.9423076923076923,0.7857142857142857,0.8571428571428571,0.0004
263,1.079893708229065,1.4903221130371094,0.7115384615384616,0.8846153846153846,0.6428571428571429,0.8571428571428571,0.0004
264,0.8741151392459869,0.7561897039413452,0.7884615384615384,0.9230769230769231,0.7142857142857143,0.8571428571428571,0.0004
265,1.130685806274414,0.9258637428283691,0.6346153846153846,0.8846153846153846,0.7142857142857143,0.7857142857142857,0.0004
266,0.7463610470294952,1.3251429796218872,0.7884615384615384,0.9230769230769231,0.7142857142857143,0.8571428571428571,0.0004
267,0.9330132603645325,0.5425831079483032,0.6923076923076923,0.9038461538461539,0.9285714285714286,1.0,0.0004
268,1.0003921389579773,0.8617184162139893,0.6538461538461539,0.8846153846153846,0.7857142857142857,0.7857142857142857,0.0004
269,0.7668293714523315,1.5145385265350342,0.7692307692307693,0.9615384615384616,0.6428571428571429,0.9285714285714286,0.0004
270,0.7666028738021851,0.8187931776046753,0.8076923076923077,0.8653846153846154,0.7857142857142857,0.9285714285714286,0.0004
271,0.812653511762619,1.0873067378997803,0.7692307692307693,0.9038461538461539,0.6428571428571429,0.8571428571428571,0.0004
272,0.7920214831829071,0.864368200302124,0.75,0.8846153846153846,0.7857142857142857,0.9285714285714286,0.0004
273,0.9595942497253418,1.0360298156738281,0.7115384615384616,0.8076923076923077,0.5714285714285714,0.9285714285714286,0.0004
274,0.80162513256073,1.219252109527588,0.7884615384615384,0.9230769230769231,0.6428571428571429,0.8571428571428571,0.0004
275,0.9291746318340302,0.8845993280410767,0.6923076923076923,0.9038461538461539,0.6428571428571429,0.9285714285714286,0.0004
276,0.6177089214324951,0.8538616299629211,0.8846153846153846,0.9615384615384616,0.7857142857142857,0.9285714285714286,0.0004
277,0.8084847927093506,1.082482933998108,0.7307692307692307,0.9230769230769231,0.6428571428571429,0.8571428571428571,0.0004
278,0.8885485827922821,1.242526888847351,0.7884615384615384,0.9038461538461539,0.7857142857142857,0.8571428571428571,0.0004
279,0.9868347942829132,1.1985349655151367,0.7115384615384616,0.9230769230769231,0.6428571428571429,0.8571428571428571,0.0004
280,0.7906663715839386,1.1221961975097656,0.7307692307692307,0.9038461538461539,0.7857142857142857,0.8571428571428571,0.0004
281,0.9836143255233765,1.0024237632751465,0.6538461538461539,0.9038461538461539,0.6428571428571429,0.8571428571428571,0.0004
282,0.8637582361698151,1.259711742401123,0.7692307692307693,0.9038461538461539,0.5714285714285714,0.7857142857142857,0.0004
283,0.798591673374176,1.202622413635254,0.75,1.0,0.6428571428571429,0.8571428571428571,0.0004
284,0.8568638563156128,0.8993285894393921,0.75,0.9423076923076923,0.6428571428571429,0.8571428571428571,0.0004
285,0.8802804350852966,1.2356369495391846,0.7692307692307693,0.9038461538461539,0.5,0.9285714285714286,0.0004
286,0.7190491557121277,0.9662938117980957,0.8269230769230769,0.9807692307692307,0.7142857142857143,0.8571428571428571,0.0004
287,0.93160080909729,1.2514548301696777,0.6730769230769231,0.9038461538461539,0.7142857142857143,0.7857142857142857,0.0004
288,0.9150389730930328,0.8634902238845825,0.6730769230769231,0.9423076923076923,0.7142857142857143,0.9285714285714286,0.0004
289,0.8562888503074646,0.7136618494987488,0.75,0.9423076923076923,0.7142857142857143,1.0,0.0004
290,0.7930280864238739,1.0770037174224854,0.7115384615384616,0.9038461538461539,0.7142857142857143,0.8571428571428571,0.0004
291,0.6946760416030884,1.1046744585037231,0.7884615384615384,0.9807692307692307,0.6428571428571429,0.9285714285714286,0.0004
292,0.9748034477233887,1.4123668670654297,0.6923076923076923,0.9230769230769231,0.5714285714285714,0.7857142857142857,0.0004
293,0.7676123678684235,1.2105770111083984,0.7692307692307693,0.8846153846153846,0.5714285714285714,0.9285714285714286,0.0004
294,0.7494489550590515,1.1754875183105469,0.8269230769230769,0.9230769230769231,0.6428571428571429,0.8571428571428571,0.0004
295,0.7781388163566589,1.0243676900863647,0.7692307692307693,0.9230769230769231,0.6428571428571429,0.9285714285714286,0.0004
296,0.8028658330440521,1.5062544345855713,0.7692307692307693,0.9230769230769231,0.6428571428571429,0.7857142857142857,0.0004
297,0.7579029500484467,1.156026005744934,0.7307692307692307,0.9807692307692307,0.6428571428571429,0.8571428571428571,0.0004
298,0.7379494309425354,0.7938067317008972,0.8076923076923077,0.9423076923076923,0.7857142857142857,0.9285714285714286,0.0004
299,0.7414482235908508,0.9764807224273682,0.7115384615384616,0.9423076923076923,0.7142857142857143,0.8571428571428571,0.0004
300,0.7704246342182159,0.8240368962287903,0.6923076923076923,0.9615384615384616,0.7857142857142857,0.8571428571428571,0.0004
301,0.613701343536377,1.4961535930633545,0.8076923076923077,0.9807692307692307,0.5714285714285714,0.7857142857142857,0.0004
302,0.8083661794662476,0.8897387981414795,0.7692307692307693,0.9807692307692307,0.6428571428571429,0.9285714285714286,0.0004
303,0.7940264046192169,1.2237379550933838,0.7307692307692307,0.9230769230769231,0.6428571428571429,0.9285714285714286,0.0004
304,0.8278819620609283,1.0297634601593018,0.7115384615384616,0.9230769230769231,0.7142857142857143,0.9285714285714286,0.0004
305,0.685223400592804,0.7954821586608887,0.8269230769230769,0.9423076923076923,0.7142857142857143,0.9285714285714286,0.0004
306,0.7043474316596985,0.9422354698181152,0.7692307692307693,0.9230769230769231,0.7857142857142857,0.8571428571428571,0.0004
307,0.9310206174850464,1.3543367385864258,0.7115384615384616,0.9038461538461539,0.5714285714285714,0.8571428571428571,0.0004
308,0.7535952031612396,1.3138346672058105,0.75,0.9423076923076923,0.6428571428571429,0.8571428571428571,0.0004
309,0.7084408104419708,1.7264477014541626,0.8269230769230769,0.9230769230769231,0.5714285714285714,0.8571428571428571,0.0004
310,0.8293305933475494,0.5863573551177979,0.7307692307692307,0.9423076923076923,0.8571428571428571,0.8571428571428571,0.0004
311,0.8266940712928772,1.8186440467834473,0.7307692307692307,0.9038461538461539,0.6428571428571429,0.7857142857142857,0.0004
312,0.8871484994888306,1.803537368774414,0.7692307692307693,0.8653846153846154,0.5,0.7857142857142857,0.0004
313,0.8652676045894623,1.0799407958984375,0.75,0.9038461538461539,0.7142857142857143,0.8571428571428571,0.0004
314,1.0511470139026642,1.4752492904663086,0.6730769230769231,0.8269230769230769,0.6428571428571429,0.7857142857142857,0.0004
315,0.8984208703041077,1.1031813621520996,0.6923076923076923,0.9230769230769231,0.7142857142857143,0.8571428571428571,0.0004
316,0.8126897513866425,1.1332913637161255,0.75,0.9038461538461539,0.7857142857142857,0.7857142857142857,0.0004
317,1.2694770097732544,1.192268967628479,0.6346153846153846,0.7884615384615384,0.7142857142857143,0.9285714285714286,0.0004
318,0.820530116558075,1.1070239543914795,0.75,0.9230769230769231,0.7142857142857143,0.9285714285714286,0.0004
319,0.6176778376102448,1.249330997467041,0.8076923076923077,0.9423076923076923,0.5714285714285714,0.8571428571428571,0.0004
320,0.8128261864185333,1.0574150085449219,0.6923076923076923,0.9230769230769231,0.7857142857142857,0.8571428571428571,0.0004
321,0.8461740911006927,0.7270272970199585,0.6730769230769231,0.9230769230769231,0.7857142857142857,1.0,0.0004
322,0.8656508326530457,1.4691001176834106,0.7692307692307693,0.8269230769230769,0.42857142857142855,0.7857142857142857,0.0004
323,0.762863963842392,1.3088703155517578,0.8076923076923077,0.9230769230769231,0.5,0.7857142857142857,0.0004
324,0.7745119333267212,1.420127034187317,0.6730769230769231,0.9807692307692307,0.5,0.8571428571428571,0.0004
325,0.8288439512252808,1.0378477573394775,0.75,0.9230769230769231,0.7857142857142857,0.8571428571428571,0.0004
326,0.6275152117013931,0.9911055564880371,0.8076923076923077,0.9423076923076923,0.8571428571428571,0.8571428571428571,0.0004
327,0.9745605289936066,0.9948893785476685,0.8461538461538461,0.8846153846153846,0.7857142857142857,0.7142857142857143,0.0004
328,0.8760698437690735,0.7489767670631409,0.7115384615384616,0.8846153846153846,0.8571428571428571,0.9285714285714286,0.0004
329,1.0997394323349,0.7401841878890991,0.6153846153846154,0.8846153846153846,0.8571428571428571,0.9285714285714286,0.0004
330,1.0636150240898132,1.0846238136291504,0.7115384615384616,0.8653846153846154,0.7857142857142857,0.7142857142857143,0.0004
331,1.0678657293319702,1.5200529098510742,0.7307692307692307,0.8846153846153846,0.5714285714285714,0.8571428571428571,0.0004
332,0.8157672584056854,0.9049137830734253,0.75,0.9230769230769231,0.7857142857142857,0.8571428571428571,0.0004
333,0.8403089344501495,0.9819505214691162,0.75,0.9038461538461539,0.7857142857142857,0.8571428571428571,0.0004
334,0.7943059802055359,1.0732632875442505,0.7692307692307693,0.8846153846153846,0.7142857142857143,0.8571428571428571,0.0004
335,0.7828419208526611,1.2717649936676025,0.7884615384615384,0.8846153846153846,0.5714285714285714,0.7857142857142857,0.0004
336,0.8112441003322601,1.1622365713119507,0.7884615384615384,0.8846153846153846,0.7142857142857143,0.8571428571428571,0.0004
337,0.9215234220027924,1.1985256671905518,0.6730769230769231,0.8846153846153846,0.6428571428571429,0.8571428571428571,0.0004
338,0.7929853200912476,1.3847945928573608,0.7884615384615384,0.9038461538461539,0.5714285714285714,0.8571428571428571,0.0004
339,0.678693950176239,1.707604169845581,0.7884615384615384,0.9038461538461539,0.6428571428571429,0.8571428571428571,0.0004
340,0.7875253260135651,0.8515753746032715,0.7307692307692307,0.9230769230769231,0.7142857142857143,0.9285714285714286,0.0004
341,0.7111803293228149,1.1890928745269775,0.75,0.9615384615384616,0.7142857142857143,0.8571428571428571,0.0004
342,0.7883535027503967,0.6566488742828369,0.7307692307692307,0.9423076923076923,0.8571428571428571,0.9285714285714286,0.0004
343,0.831660270690918,0.6334824562072754,0.6730769230769231,0.9423076923076923,0.9285714285714286,0.8571428571428571,0.0004
344,0.8486193120479584,0.8861802816390991,0.7692307692307693,0.9230769230769231,0.8571428571428571,0.7857142857142857,0.0004
345,0.9817187190055847,1.1189320087432861,0.7115384615384616,0.9038461538461539,0.7142857142857143,0.7857142857142857,0.0004
346,0.932305097579956,1.395162582397461,0.7115384615384616,0.9423076923076923,0.5714285714285714,0.7857142857142857,0.0004
347,0.6416198015213013,0.8144865036010742,0.7692307692307693,0.9807692307692307,0.8571428571428571,0.8571428571428571,0.0004
348,0.6684963405132294,0.9387035369873047,0.8076923076923077,1.0,0.7857142857142857,0.8571428571428571,0.0004
349,0.955261766910553,1.3466930389404297,0.6730769230769231,0.9423076923076923,0.6428571428571429,0.7857142857142857,0.0004
350,0.6341405808925629,1.0515450239181519,0.8461538461538461,0.9615384615384616,0.7142857142857143,0.8571428571428571,0.0004
351,0.752755880355835,0.726576566696167,0.7884615384615384,0.9807692307692307,0.7857142857142857,0.8571428571428571,0.0004
352,0.9119883179664612,1.2554683685302734,0.6730769230769231,0.9038461538461539,0.8571428571428571,0.8571428571428571,0.0004
353,0.812175452709198,0.9173961877822876,0.7115384615384616,0.9423076923076923,0.7857142857142857,0.9285714285714286,0.0004
354,0.5981093049049377,1.1836504936218262,0.7692307692307693,0.9615384615384616,0.6428571428571429,0.8571428571428571,0.0004
355,0.7332623898983002,1.1640180349349976,0.75,0.9423076923076923,0.7857142857142857,0.8571428571428571,0.0004
356,0.816580206155777,1.2691316604614258,0.7115384615384616,0.9230769230769231,0.5714285714285714,0.8571428571428571,0.0004
357,0.7016966938972473,1.3159741163253784,0.7884615384615384,0.9230769230769231,0.6428571428571429,0.8571428571428571,0.0004
358,0.6986455917358398,1.2628378868103027,0.7884615384615384,0.9423076923076923,0.6428571428571429,0.8571428571428571,0.0004
359,0.7173298299312592,1.00162935256958,0.75,0.9423076923076923,0.6428571428571429,0.8571428571428571,0.0004
360,0.8303326070308685,1.2927672863006592,0.6923076923076923,0.9038461538461539,0.7142857142857143,0.8571428571428571,0.0004
361,0.5397507846355438,1.4515929222106934,0.7884615384615384,0.9615384615384616,0.6428571428571429,0.7857142857142857,0.0004
362,0.6795732378959656,1.335869550704956,0.7307692307692307,0.9423076923076923,0.5714285714285714,0.8571428571428571,0.0004
363,0.8451542258262634,1.207633376121521,0.6730769230769231,0.9423076923076923,0.7142857142857143,0.8571428571428571,0.0004
364,0.7937486171722412,1.0181427001953125,0.7307692307692307,0.9423076923076923,0.7857142857142857,0.8571428571428571,0.0004
365,0.6877207159996033,1.1496223211288452,0.7884615384615384,0.9038461538461539,0.6428571428571429,0.8571428571428571,0.0004
366,0.6749421060085297,0.8625085353851318,0.7307692307692307,1.0,0.7857142857142857,0.8571428571428571,0.0004
367,0.8052985668182373,1.6218607425689697,0.7115384615384616,0.9230769230769231,0.5,0.8571428571428571,0.0004
368,0.8126567006111145,1.0748047828674316,0.7307692307692307,0.9230769230769231,0.7142857142857143,0.8571428571428571,0.0004
369,0.946817010641098,1.190207600593567,0.6730769230769231,0.9038461538461539,0.5714285714285714,0.8571428571428571,0.0004
370,0.7782282531261444,1.1537089347839355,0.6923076923076923,0.9807692307692307,0.7142857142857143,0.8571428571428571,0.0004
371,0.5820901095867157,1.2480791807174683,0.8846153846153846,0.9615384615384616,0.6428571428571429,0.6428571428571429,0.0004
372,0.6738815009593964,0.9985624551773071,0.8269230769230769,0.9423076923076923,0.6428571428571429,0.9285714285714286,0.0004
373,0.7528504729270935,1.103926420211792,0.7307692307692307,0.9230769230769231,0.7857142857142857,0.8571428571428571,0.0004
374,0.7478111684322357,1.2250161170959473,0.7884615384615384,0.9230769230769231,0.7142857142857143,0.8571428571428571,0.0004
375,1.2523952722549438,0.7672845125198364,0.5576923076923077,0.9230769230769231,0.7142857142857143,0.9285714285714286,0.0004
376,0.7898746430873871,1.3310887813568115,0.7115384615384616,0.9423076923076923,0.6428571428571429,0.7857142857142857,0.0004
377,1.1400606632232666,1.8153645992279053,0.7307692307692307,0.8846153846153846,0.5,0.7857142857142857,0.0004
378,0.7515940368175507,1.5513195991516113,0.7307692307692307,0.9423076923076923,0.7857142857142857,0.5714285714285714,0.0004
379,1.0901641249656677,1.4256635904312134,0.5961538461538461,0.9038461538461539,0.5714285714285714,0.7142857142857143,0.0004
380,0.7042309641838074,1.1685642004013062,0.8076923076923077,0.9038461538461539,0.7142857142857143,0.8571428571428571,0.0004
381,0.7032136619091034,0.9007823467254639,0.7307692307692307,0.9038461538461539,0.7857142857142857,0.9285714285714286,0.0004
382,0.8035426735877991,1.4451717138290405,0.6538461538461539,0.9423076923076923,0.5,0.8571428571428571,0.0004
383,0.7481683790683746,1.4231841564178467,0.7884615384615384,0.9423076923076923,0.6428571428571429,0.8571428571428571,0.0004
384,0.7804750204086304,1.051141381263733,0.7307692307692307,0.9230769230769231,0.7142857142857143,0.9285714285714286,0.0004
385,0.7228860855102539,1.1853363513946533,0.8076923076923077,0.9423076923076923,0.6428571428571429,0.8571428571428571,0.0004
386,0.6291616559028625,2.580899477005005,0.7884615384615384,0.9807692307692307,0.5,0.7857142857142857,0.0004
387,0.5778104960918427,1.1425615549087524,0.8076923076923077,0.9615384615384616,0.5714285714285714,0.9285714285714286,0.0004
388,0.8792069554328918,1.2059849500656128,0.6923076923076923,0.9038461538461539,0.7142857142857143,0.7857142857142857,0.0004
389,0.6257865726947784,0.848427414894104,0.75,0.9423076923076923,0.8571428571428571,0.8571428571428571,0.0004
390,0.7599822580814362,1.3787004947662354,0.7692307692307693,0.9230769230769231,0.7142857142857143,0.8571428571428571,0.0004
391,0.5462044328451157,1.1923110485076904,0.8846153846153846,0.9423076923076923,0.7142857142857143,0.7857142857142857,0.0004
392,1.0593719184398651,0.6577008962631226,0.75,0.8269230769230769,0.7857142857142857,1.0,0.0004
393,0.9941919445991516,0.9455552101135254,0.6538461538461539,0.8653846153846154,0.7142857142857143,0.8571428571428571,0.0004
394,0.7524634003639221,1.1308364868164062,0.7884615384615384,0.9038461538461539,0.7142857142857143,0.8571428571428571,0.0004
395,0.6360908150672913,1.0970770120620728,0.8269230769230769,0.9615384615384616,0.7142857142857143,0.7857142857142857,0.0004
396,0.9630558490753174,2.0433619022369385,0.6538461538461539,0.9423076923076923,0.6428571428571429,0.8571428571428571,0.0004
397,0.7047243714332581,1.0648454427719116,0.8076923076923077,0.9615384615384616,0.7142857142857143,0.7857142857142857,0.0004
398,0.7445369064807892,1.076517105102539,0.75,0.8846153846153846,0.7142857142857143,0.8571428571428571,0.0004
399,0.9589845240116119,0.8652615547180176,0.7307692307692307,0.8461538461538461,0.7857142857142857,0.9285714285714286,0.0004
400,0.8753931820392609,1.0335109233856201,0.7115384615384616,0.9038461538461539,0.8571428571428571,0.7857142857142857,0.0004
401,0.8783794939517975,0.9768035411834717,0.6730769230769231,0.9807692307692307,0.7857142857142857,0.9285714285714286,0.0004
402,1.1450238823890686,0.854841947555542,0.6346153846153846,0.9230769230769231,0.7857142857142857,0.8571428571428571,0.0004
403,0.872322291135788,0.6418320536613464,0.7692307692307693,0.9038461538461539,0.7142857142857143,0.9285714285714286,0.0004
404,0.739337295293808,0.8637211322784424,0.7692307692307693,0.9615384615384616,0.7142857142857143,0.9285714285714286,0.0004
405,0.6607584357261658,0.7530194520950317,0.9038461538461539,0.9423076923076923,0.6428571428571429,0.8571428571428571,0.0004
406,0.6716907024383545,0.7924016118049622,0.75,0.9807692307692307,0.7857142857142857,0.9285714285714286,0.0004
407,0.665863037109375,1.0387626886367798,0.7884615384615384,0.9615384615384616,0.7857142857142857,0.8571428571428571,0.0004
408,0.7550473511219025,1.4668893814086914,0.8076923076923077,0.9038461538461539,0.7142857142857143,0.7857142857142857,0.0004
409,0.641375720500946,0.5305925607681274,0.7307692307692307,1.0,0.9285714285714286,1.0,0.0004
410,0.7459970116615295,2.031639575958252,0.7307692307692307,0.9423076923076923,0.6428571428571429,0.8571428571428571,0.0004
411,0.7531093657016754,1.075812816619873,0.75,0.9230769230769231,0.7142857142857143,0.8571428571428571,0.0004
412,0.6985244452953339,1.150768756866455,0.7884615384615384,0.9615384615384616,0.7142857142857143,0.9285714285714286,0.0004
413,0.7465943098068237,1.5272290706634521,0.7692307692307693,0.9230769230769231,0.6428571428571429,0.8571428571428571,0.0004
414,0.6176041960716248,1.5104286670684814,0.7884615384615384,0.9615384615384616,0.5714285714285714,0.7857142857142857,0.0004
415,0.6737779676914215,1.18771493434906,0.7692307692307693,0.9423076923076923,0.7142857142857143,0.7857142857142857,0.0004
416,0.684962660074234,1.1031789779663086,0.75,0.9615384615384616,0.7142857142857143,0.8571428571428571,0.0004
417,0.721112847328186,1.3054327964782715,0.7692307692307693,0.9038461538461539,0.7142857142857143,0.7857142857142857,0.0004
418,0.724649578332901,1.278140664100647,0.75,0.9423076923076923,0.6428571428571429,0.8571428571428571,0.0004
419,0.7307290732860565,0.7396717071533203,0.75,0.9615384615384616,0.7142857142857143,0.8571428571428571,0.0004
420,0.6444237530231476,0.9607913494110107,0.7692307692307693,0.9423076923076923,0.9285714285714286,0.9285714285714286,0.0004
421,0.7298713028430939,1.0169318914413452,0.7692307692307693,0.9423076923076923,0.7142857142857143,0.9285714285714286,0.0004
422,0.6624441146850586,0.7108246088027954,0.7692307692307693,0.9615384615384616,0.9285714285714286,0.8571428571428571,0.0004
423,0.8153412044048309,1.6617404222488403,0.7692307692307693,0.9230769230769231,0.5,0.7857142857142857,0.0004
424,0.8845970332622528,1.0533076524734497,0.6538461538461539,0.8846153846153846,0.6428571428571429,0.8571428571428571,0.0004
425,0.6334119737148285,1.2324390411376953,0.8076923076923077,0.9615384615384616,0.7142857142857143,0.8571428571428571,0.0004
426,0.9125324785709381,1.9910404682159424,0.7307692307692307,0.9230769230769231,0.5,0.7142857142857143,0.0004
427,0.7126332521438599,0.958010196685791,0.7692307692307693,0.9423076923076923,0.7857142857142857,0.9285714285714286,0.0004
428,0.6498992741107941,0.7690631151199341,0.7692307692307693,0.9423076923076923,0.8571428571428571,0.9285714285714286,0.0004
429,0.8257370591163635,1.0570803880691528,0.7115384615384616,0.9423076923076923,0.7857142857142857,0.9285714285714286,0.0004
430,0.5787286162376404,1.2332227230072021,0.8461538461538461,0.9807692307692307,0.7142857142857143,0.8571428571428571,0.0004
431,0.5474929511547089,1.559316635131836,0.8269230769230769,0.9807692307692307,0.7142857142857143,0.7857142857142857,0.0004
432,0.6996690630912781,0.9415111541748047,0.8076923076923077,0.9038461538461539,0.7857142857142857,0.9285714285714286,0.0004
433,0.7241039872169495,0.7509948015213013,0.7884615384615384,0.9423076923076923,0.8571428571428571,0.7857142857142857,0.0004
434,0.8663149476051331,1.7108187675476074,0.7307692307692307,0.9038461538461539,0.5,0.8571428571428571,0.0004
435,0.74516561627388,1.5897166728973389,0.6923076923076923,0.9423076923076923,0.6428571428571429,0.8571428571428571,0.0004
436,0.6051827967166901,1.588796615600586,0.8076923076923077,0.9423076923076923,0.6428571428571429,0.7857142857142857,0.0004
437,0.6906694173812866,1.3391748666763306,0.75,0.9615384615384616,0.7142857142857143,0.8571428571428571,0.0004
438,0.6627428829669952,0.92767333984375,0.7115384615384616,0.9615384615384616,0.7857142857142857,0.8571428571428571,0.0004
439,0.7726398706436157,1.6606601476669312,0.7692307692307693,0.9230769230769231,0.6428571428571429,0.8571428571428571,0.0004
440,0.5488103479146957,0.9650909900665283,0.7884615384615384,0.9615384615384616,0.7857142857142857,0.7857142857142857,0.0004
441,0.5137998461723328,0.9335571527481079,0.8076923076923077,0.9615384615384616,0.7857142857142857,0.7857142857142857,0.0004
442,0.5811768621206284,1.8472890853881836,0.8076923076923077,0.9807692307692307,0.6428571428571429,0.7857142857142857,0.0004
443,0.5528279691934586,1.3188531398773193,0.8461538461538461,0.9807692307692307,0.7142857142857143,0.8571428571428571,0.0004
444,0.5590867400169373,1.0987142324447632,0.8461538461538461,0.9807692307692307,0.7142857142857143,0.9285714285714286,0.0004
445,0.5274326354265213,1.0112468004226685,0.75,1.0,0.7857142857142857,0.9285714285714286,0.0004
446,0.57712322473526,1.3817631006240845,0.8076923076923077,0.9807692307692307,0.7857142857142857,0.7857142857142857,0.0004
447,0.8662750124931335,0.8798396587371826,0.7307692307692307,0.9615384615384616,0.8571428571428571,0.8571428571428571,0.0004
448,0.9341308772563934,1.10516357421875,0.75,0.8846153846153846,0.7857142857142857,0.7857142857142857,0.0004
449,0.6270377039909363,1.4164280891418457,0.7884615384615384,0.9423076923076923,0.7142857142857143,0.8571428571428571,0.0004
450,1.0370223820209503,1.0638270378112793,0.6538461538461539,0.9230769230769231,0.7142857142857143,0.8571428571428571,0.0004
451,0.5691756755113602,0.8125332593917847,0.8461538461538461,0.9615384615384616,0.7142857142857143,0.8571428571428571,0.0004
452,0.8522982001304626,1.109344244003296,0.7115384615384616,0.9423076923076923,0.6428571428571429,0.8571428571428571,0.0004
453,0.7214259803295135,1.085062861442566,0.7884615384615384,0.9230769230769231,0.6428571428571429,0.8571428571428571,0.0004
454,0.6627472639083862,1.0663537979125977,0.7692307692307693,0.9423076923076923,0.7857142857142857,0.8571428571428571,0.0004
455,0.7135488390922546,0.9499803781509399,0.8461538461538461,0.9038461538461539,0.6428571428571429,0.9285714285714286,0.0004
456,0.6105033457279205,0.6212130188941956,0.7884615384615384,0.9423076923076923,0.9285714285714286,0.8571428571428571,0.0004
457,0.7108283936977386,1.3671010732650757,0.75,0.9423076923076923,0.7857142857142857,0.8571428571428571,0.0004
458,0.8637292385101318,1.5132625102996826,0.6730769230769231,0.9038461538461539,0.6428571428571429,0.6428571428571429,0.0004
459,0.5715011060237885,1.4548649787902832,0.8846153846153846,0.9038461538461539,0.6428571428571429,0.7857142857142857,0.0004
460,0.6374554336071014,1.2129316329956055,0.7884615384615384,0.9615384615384616,0.5714285714285714,0.8571428571428571,0.0004
461,0.9544384479522705,0.9647643566131592,0.7115384615384616,0.9230769230769231,0.8571428571428571,0.8571428571428571,0.0004
462,0.7605713903903961,1.6436538696289062,0.7307692307692307,0.9230769230769231,0.6428571428571429,0.8571428571428571,0.0004
463,0.7959786653518677,1.1708590984344482,0.7692307692307693,0.9038461538461539,0.7857142857142857,0.8571428571428571,0.0004
464,0.6957390904426575,1.3404085636138916,0.7692307692307693,0.9615384615384616,0.6428571428571429,0.7142857142857143,0.0004
465,0.6782998591661453,1.6307568550109863,0.7884615384615384,0.9807692307692307,0.6428571428571429,0.8571428571428571,0.0004
466,0.7620630264282227,1.1098309755325317,0.7307692307692307,0.9423076923076923,0.7142857142857143,0.9285714285714286,0.0004
467,0.8497325479984283,0.8515365123748779,0.7115384615384616,0.9230769230769231,0.7857142857142857,0.9285714285714286,0.0004
468,0.654994547367096,0.6705245971679688,0.7884615384615384,0.9423076923076923,0.8571428571428571,0.9285714285714286,0.0004
469,0.960461750626564,1.2323158979415894,0.6923076923076923,0.9038461538461539,0.6428571428571429,0.8571428571428571,0.0004
470,1.1170424818992615,1.0718384981155396,0.6923076923076923,0.8653846153846154,0.7857142857142857,0.9285714285714286,0.0004
471,0.749328076839447,0.5034193992614746,0.6923076923076923,0.9615384615384616,0.7857142857142857,1.0,0.0004
472,0.5854955017566681,1.523057222366333,0.8076923076923077,0.9807692307692307,0.5,0.8571428571428571,0.0004
473,0.4140074998140335,1.0814708471298218,0.9230769230769231,1.0,0.6428571428571429,0.8571428571428571,0.0004
474,0.8333551287651062,0.7831344604492188,0.7884615384615384,0.8653846153846154,0.8571428571428571,0.8571428571428571,0.0004
475,0.6567626446485519,2.010359764099121,0.7692307692307693,0.9615384615384616,0.35714285714285715,0.7142857142857143,0.0004
476,0.7893032133579254,1.3026877641677856,0.7307692307692307,0.9615384615384616,0.5714285714285714,0.8571428571428571,0.0004
477,0.9298320710659027,1.3894562721252441,0.75,0.9038461538461539,0.6428571428571429,0.7857142857142857,0.0004
478,0.6321433484554291,1.5261874198913574,0.7307692307692307,0.9807692307692307,0.6428571428571429,0.7857142857142857,0.0004
479,0.8413942158222198,0.8027809858322144,0.75,0.9615384615384616,0.7857142857142857,0.9285714285714286,0.0004
480,0.5377303957939148,0.9928978085517883,0.7307692307692307,0.9807692307692307,0.8571428571428571,0.8571428571428571,0.0004
481,0.7605206370353699,0.49370425939559937,0.7692307692307693,0.9230769230769231,0.9285714285714286,0.9285714285714286,0.0004
482,0.6782312393188477,0.8164709806442261,0.75,0.9230769230769231,0.8571428571428571,0.9285714285714286,0.0004
483,0.7082263231277466,0.803422212600708,0.7692307692307693,0.9423076923076923,0.8571428571428571,0.8571428571428571,0.0004
484,0.7112480252981186,0.9263063073158264,0.75,0.9423076923076923,0.7857142857142857,0.8571428571428571,0.0004
485,0.6833891570568085,1.210958480834961,0.7884615384615384,0.9615384615384616,0.7857142857142857,0.8571428571428571,0.0004
486,0.7259051501750946,1.2427575588226318,0.75,0.9615384615384616,0.8571428571428571,0.9285714285714286,0.0004
487,0.7483857572078705,0.982607364654541,0.7115384615384616,0.9615384615384616,0.7142857142857143,0.8571428571428571,0.0004
488,0.853415459394455,1.367443323135376,0.6923076923076923,0.9230769230769231,0.5714285714285714,0.9285714285714286,0.0004
489,0.5810496211051941,1.377826452255249,0.7884615384615384,1.0,0.8571428571428571,0.8571428571428571,0.0004
490,0.7103616297245026,1.1164264678955078,0.7692307692307693,0.9423076923076923,0.8571428571428571,0.8571428571428571,0.0004
491,0.6206845641136169,1.1469850540161133,0.7692307692307693,0.9615384615384616,0.5714285714285714,0.8571428571428571,0.0004
492,0.5864436328411102,1.0215386152267456,0.7692307692307693,0.9807692307692307,0.7142857142857143,0.7857142857142857,0.0004
493,0.6103342771530151,1.7761420011520386,0.7884615384615384,0.9423076923076923,0.5714285714285714,0.7857142857142857,0.0004
494,0.7478921115398407,1.6896284818649292,0.7307692307692307,0.9230769230769231,0.6428571428571429,0.7857142857142857,0.0004
495,1.0118459165096283,1.1799638271331787,0.6730769230769231,0.9423076923076923,0.6428571428571429,0.8571428571428571,0.0004
496,0.8684660494327545,1.291778326034546,0.8269230769230769,0.9038461538461539,0.5714285714285714,0.9285714285714286,0.0004
497,0.7869811654090881,1.029177188873291,0.6730769230769231,0.9615384615384616,0.7857142857142857,0.8571428571428571,0.0004
498,0.5688409358263016,1.245123028755188,0.8269230769230769,0.9423076923076923,0.6428571428571429,0.8571428571428571,0.0004
499,0.7750172019004822,1.764626145362854,0.8461538461538461,0.9230769230769231,0.6428571428571429,0.7857142857142857,0.0004
500,0.6534325480461121,1.7312607765197754,0.7884615384615384,0.9038461538461539,0.6428571428571429,0.7857142857142857,0.0004
501,0.7386685013771057,0.6451864242553711,0.7115384615384616,0.9230769230769231,0.8571428571428571,0.9285714285714286,0.0004
502,0.9261348843574524,1.3057734966278076,0.6730769230769231,0.9615384615384616,0.6428571428571429,0.7857142857142857,0.0004
503,0.6818235218524933,2.0587613582611084,0.7692307692307693,0.9423076923076923,0.5714285714285714,0.7857142857142857,0.0004
504,0.8598116636276245,1.4543389081954956,0.6346153846153846,0.9423076923076923,0.7142857142857143,0.7142857142857143,0.0004
505,0.7582804262638092,1.366924524307251,0.7115384615384616,0.9615384615384616,0.5714285714285714,0.8571428571428571,0.0004
506,0.679402619600296,1.103250503540039,0.7692307692307693,0.9423076923076923,0.7142857142857143,0.8571428571428571,0.0004
507,0.7356438636779785,1.6093642711639404,0.7692307692307693,0.9230769230769231,0.5714285714285714,0.8571428571428571,0.0004
508,0.5802153944969177,0.7896450161933899,0.8461538461538461,0.9615384615384616,0.7857142857142857,0.9285714285714286,0.0004
509,1.0273485779762268,1.1159087419509888,0.6153846153846154,0.9038461538461539,0.6428571428571429,0.8571428571428571,0.0004
510,0.9867025017738342,1.0173324346542358,0.75,0.9038461538461539,0.7857142857142857,0.8571428571428571,0.0004
511,0.6543455719947815,1.0984045267105103,0.8076923076923077,0.9423076923076923,0.6428571428571429,0.8571428571428571,0.0004
512,0.6350579261779785,1.0808013677597046,0.8269230769230769,0.9615384615384616,0.8571428571428571,0.8571428571428571,0.0004
513,0.6742030084133148,1.0158092975616455,0.75,0.9615384615384616,0.7857142857142857,0.7857142857142857,0.0004
514,0.6459796726703644,1.1139973402023315,0.8076923076923077,0.9615384615384616,0.5714285714285714,0.8571428571428571,0.0004
515,0.8268956243991852,0.6179507970809937,0.75,0.9038461538461539,0.9285714285714286,0.9285714285714286,0.0004
516,0.5192126929759979,0.9001451730728149,0.8653846153846154,0.9615384615384616,0.7142857142857143,0.9285714285714286,0.0004
517,0.8588588237762451,1.7742371559143066,0.75,0.9615384615384616,0.5,0.7857142857142857,0.0004
518,0.6752205491065979,0.8544752597808838,0.8269230769230769,0.9615384615384616,0.8571428571428571,0.9285714285714286,0.0004
519,0.8025344908237457,0.5264191627502441,0.7692307692307693,0.9230769230769231,0.7857142857142857,1.0,0.0004
520,0.6034247279167175,1.2981359958648682,0.7692307692307693,0.9807692307692307,0.5,0.8571428571428571,0.0004
521,0.8181322813034058,1.1512258052825928,0.7115384615384616,0.9230769230769231,0.7142857142857143,0.7857142857142857,0.0004
522,0.5892642736434937,0.921714186668396,0.8269230769230769,0.9423076923076923,0.7142857142857143,0.9285714285714286,0.0004
523,0.6795006096363068,1.0461089611053467,0.7115384615384616,0.9423076923076923,0.7142857142857143,0.8571428571428571,0.0004
524,0.8930180668830872,1.0503246784210205,0.6730769230769231,0.9615384615384616,0.7857142857142857,0.8571428571428571,0.0004
525,0.9073279500007629,1.0264618396759033,0.75,0.8653846153846154,0.6428571428571429,0.8571428571428571,0.0004
526,0.8189454972743988,1.0666496753692627,0.7115384615384616,0.9038461538461539,0.7857142857142857,0.8571428571428571,0.0004
527,0.8892731368541718,1.535062551498413,0.6153846153846154,0.9615384615384616,0.6428571428571429,0.8571428571428571,0.0004
528,0.7595471739768982,0.5912773013114929,0.7307692307692307,0.9423076923076923,1.0,0.8571428571428571,0.0004
529,0.7762858271598816,1.2707328796386719,0.7307692307692307,0.9423076923076923,0.7142857142857143,0.8571428571428571,0.0004
530,0.7193606197834015,1.05153489112854,0.7115384615384616,0.9615384615384616,0.7142857142857143,0.9285714285714286,0.0004
531,0.6283581256866455,1.579099178314209,0.8076923076923077,0.9423076923076923,0.5714285714285714,0.7857142857142857,0.0004
532,0.8960854411125183,1.0147895812988281,0.6730769230769231,0.9230769230769231,0.6428571428571429,0.9285714285714286,0.0004
533,0.843376636505127,1.4765199422836304,0.75,0.9615384615384616,0.5,0.7142857142857143,0.0004
534,0.5110292285680771,1.3664274215698242,0.8269230769230769,0.9423076923076923,0.5714285714285714,0.7857142857142857,0.0004
535,0.8772323131561279,0.9382255673408508,0.75,0.9423076923076923,0.7142857142857143,0.9285714285714286,0.0004
536,0.7782354950904846,1.2862755060195923,0.7307692307692307,0.9230769230769231,0.7857142857142857,0.8571428571428571,0.0004
537,0.5838344544172287,0.6250037550926208,0.7692307692307693,0.9807692307692307,0.9285714285714286,0.9285714285714286,0.0004
538,0.7161630988121033,0.6848559975624084,0.7115384615384616,0.9230769230769231,0.7142857142857143,0.8571428571428571,0.0004
539,0.8358588516712189,1.9514150619506836,0.6730769230769231,0.9230769230769231,0.5,0.7142857142857143,0.0004
540,0.5750219225883484,0.7046357989311218,0.7692307692307693,1.0,0.7857142857142857,0.9285714285714286,0.0004
541,0.6936584115028381,1.1350131034851074,0.7692307692307693,0.9423076923076923,0.7142857142857143,0.8571428571428571,0.0004
542,0.7703688442707062,0.9625593423843384,0.7307692307692307,0.9230769230769231,0.7142857142857143,0.8571428571428571,0.0004
543,0.6309658885002136,1.3008334636688232,0.8461538461538461,0.9423076923076923,0.7857142857142857,0.8571428571428571,0.0004
544,0.6632417440414429,0.8252431154251099,0.8076923076923077,0.9423076923076923,0.7857142857142857,0.8571428571428571,0.0004
545,0.7331541776657104,2.3632259368896484,0.7884615384615384,0.9038461538461539,0.6428571428571429,0.7857142857142857,0.0004
546,0.5904198735952377,0.6594913005828857,0.8461538461538461,0.9230769230769231,0.8571428571428571,0.9285714285714286,0.0004
547,0.7351130843162537,0.7617204785346985,0.8461538461538461,0.9615384615384616,0.8571428571428571,0.8571428571428571,0.0004
548,0.6627884805202484,1.3324918746948242,0.7307692307692307,0.9807692307692307,0.6428571428571429,0.8571428571428571,0.0004
549,0.726386547088623,0.5969081521034241,0.7692307692307693,0.9230769230769231,0.9285714285714286,0.9285714285714286,0.0004
550,0.5365017056465149,1.8561458587646484,0.7692307692307693,0.9807692307692307,0.42857142857142855,0.8571428571428571,0.0004
551,0.7074601054191589,0.49448060989379883,0.7307692307692307,0.9230769230769231,1.0,0.8571428571428571,0.0004
552,0.6687641441822052,1.575664758682251,0.7692307692307693,0.9423076923076923,0.5,0.7857142857142857,0.0004
553,0.6782244592905045,1.2469582557678223,0.7884615384615384,0.9807692307692307,0.6428571428571429,0.8571428571428571,0.0004
554,0.6301141083240509,1.104382872581482,0.7884615384615384,0.9807692307692307,0.7142857142857143,0.7857142857142857,0.0004
555,0.5545273572206497,1.1180098056793213,0.8461538461538461,0.9615384615384616,0.7142857142857143,0.8571428571428571,0.0004
556,0.6738394796848297,1.4980058670043945,0.8076923076923077,0.9615384615384616,0.5714285714285714,0.7857142857142857,0.0004
557,0.6561999022960663,1.5153957605361938,0.75,0.9423076923076923,0.5,0.8571428571428571,0.0004
558,0.6761890947818756,0.9370722770690918,0.75,0.9615384615384616,0.7142857142857143,0.9285714285714286,0.0004
559,0.7122683823108673,0.8918414115905762,0.75,0.9807692307692307,0.8571428571428571,0.8571428571428571,0.0004
560,0.663765013217926,1.4066388607025146,0.7884615384615384,0.9423076923076923,0.5714285714285714,0.9285714285714286,0.0004
561,0.7869760692119598,1.1558825969696045,0.6923076923076923,0.9423076923076923,0.5,0.8571428571428571,0.0004
562,0.6033084690570831,1.1330337524414062,0.75,0.9615384615384616,0.5714285714285714,0.8571428571428571,0.0004
563,0.8058593273162842,0.850837230682373,0.7692307692307693,0.9615384615384616,0.8571428571428571,0.7857142857142857,0.0004
564,0.8870165348052979,1.1273512840270996,0.7307692307692307,0.9038461538461539,0.7857142857142857,0.8571428571428571,0.0004
565,0.6903179287910461,1.0887963771820068,0.7692307692307693,0.9615384615384616,0.8571428571428571,0.8571428571428571,0.0004
566,0.6250134706497192,1.2046452760696411,0.6923076923076923,0.9807692307692307,0.7142857142857143,0.8571428571428571,0.0004
567,0.8703984916210175,0.9063318967819214,0.6923076923076923,0.9423076923076923,0.9285714285714286,0.7857142857142857,0.0004
568,0.5299777090549469,1.305690050125122,0.8269230769230769,0.9615384615384616,0.7142857142857143,0.8571428571428571,0.0004
569,0.7985841333866119,0.8124222755432129,0.7884615384615384,0.9038461538461539,0.8571428571428571,0.9285714285714286,0.0004
570,0.7202087938785553,1.13507080078125,0.7692307692307693,0.9615384615384616,0.5714285714285714,0.9285714285714286,0.0004
571,0.49306347966194153,1.563018560409546,0.8846153846153846,0.9423076923076923,0.5714285714285714,0.9285714285714286,0.0004
572,0.6806462407112122,0.8398973345756531,0.8269230769230769,0.9230769230769231,0.9285714285714286,0.8571428571428571,0.0004
573,0.6567710340023041,1.2711291313171387,0.8269230769230769,0.9615384615384616,0.7142857142857143,0.8571428571428571,0.0004
574,0.5031007379293442,1.0650814771652222,0.7884615384615384,1.0,0.8571428571428571,0.7857142857142857,0.0004
575,0.7138439118862152,0.9735995531082153,0.7307692307692307,1.0,0.8571428571428571,0.8571428571428571,0.0004
576,0.6237362250685692,1.7220559120178223,0.8076923076923077,0.9423076923076923,0.5714285714285714,0.8571428571428571,0.0004
577,0.8681338131427765,0.9654544591903687,0.7692307692307693,0.9230769230769231,0.8571428571428571,0.9285714285714286,0.0004
578,0.6102750301361084,0.9684513807296753,0.8076923076923077,0.9615384615384616,0.7857142857142857,0.8571428571428571,0.0004
579,1.0839235186576843,1.124366044998169,0.5384615384615384,0.9230769230769231,0.7857142857142857,0.8571428571428571,0.0004
580,0.6976073980331421,1.0430958271026611,0.7307692307692307,0.9615384615384616,0.7857142857142857,0.8571428571428571,0.0004
581,0.5373425036668777,0.5655296444892883,0.75,1.0,0.9285714285714286,0.9285714285714286,0.0004
582,0.7663113176822662,2.162470817565918,0.7692307692307693,0.9615384615384616,0.5,0.8571428571428571,0.0004
583,0.9030936062335968,1.072543978691101,0.6730769230769231,0.9230769230769231,0.6428571428571429,0.8571428571428571,0.0004
584,0.8268560171127319,1.1662442684173584,0.7307692307692307,0.8846153846153846,0.6428571428571429,0.8571428571428571,0.0004
585,0.9159940779209137,1.2654228210449219,0.6923076923076923,0.9230769230769231,0.6428571428571429,0.8571428571428571,0.0004
586,0.6813210844993591,1.208040475845337,0.7307692307692307,0.9423076923076923,0.7142857142857143,0.8571428571428571,0.0004
587,0.5495867729187012,1.1527044773101807,0.8076923076923077,1.0,0.7142857142857143,0.8571428571428571,0.0004
588,0.5104984194040298,1.5408096313476562,0.8269230769230769,0.9807692307692307,0.6428571428571429,0.8571428571428571,0.0004
589,0.6317169070243835,0.6156595945358276,0.7884615384615384,0.9423076923076923,0.7142857142857143,0.9285714285714286,0.0004
590,0.6748040318489075,1.353066086769104,0.8076923076923077,0.9230769230769231,0.5714285714285714,0.7857142857142857,0.0004
591,0.8490408957004547,1.0258314609527588,0.7307692307692307,0.9230769230769231,0.7142857142857143,0.8571428571428571,0.0004
592,0.7123966962099075,1.3979151248931885,0.8461538461538461,0.8653846153846154,0.6428571428571429,0.8571428571428571,0.0004
593,0.6149121820926666,1.1985417604446411,0.7884615384615384,0.9615384615384616,0.7857142857142857,0.9285714285714286,0.0004
594,0.7375913262367249,1.3832916021347046,0.8076923076923077,0.9230769230769231,0.6428571428571429,0.8571428571428571,0.0004
595,0.8079532086849213,1.5686519145965576,0.6730769230769231,0.9230769230769231,0.6428571428571429,0.9285714285714286,0.0004
596,0.6222807466983795,1.7949830293655396,0.8076923076923077,0.9038461538461539,0.7142857142857143,0.7857142857142857,0.0004
597,0.6993733048439026,1.5278382301330566,0.7115384615384616,0.9615384615384616,0.5,0.7857142857142857,0.0004
598,0.8690643012523651,1.4665510654449463,0.7884615384615384,0.9230769230769231,0.6428571428571429,0.8571428571428571,0.0004
599,0.6449234783649445,1.5596120357513428,0.7884615384615384,0.9615384615384616,0.5,0.7857142857142857,0.0004
600,0.5703554451465607,1.4445290565490723,0.8461538461538461,0.9615384615384616,0.5714285714285714,0.7857142857142857,0.0004
601,0.5312084555625916,1.4007022380828857,0.8269230769230769,0.9807692307692307,0.6428571428571429,0.8571428571428571,0.0004
602,1.1144067645072937,1.927433967590332,0.6538461538461539,0.8461538461538461,0.6428571428571429,0.8571428571428571,0.0004
603,0.5334041714668274,1.4168405532836914,0.8076923076923077,1.0,0.6428571428571429,0.7857142857142857,0.0004
604,0.965527355670929,1.3917381763458252,0.7307692307692307,0.9615384615384616,0.7857142857142857,0.8571428571428571,0.0004
605,0.7379062175750732,0.976354718208313,0.75,0.9423076923076923,0.7857142857142857,0.8571428571428571,0.0004
606,0.4967710077762604,1.2627789974212646,0.8653846153846154,1.0,0.6428571428571429,0.8571428571428571,0.0004
607,0.7761434018611908,1.388468623161316,0.7692307692307693,0.9230769230769231,0.6428571428571429,0.7142857142857143,0.0004
608,0.7566774487495422,1.3742390871047974,0.75,0.9230769230769231,0.6428571428571429,0.7857142857142857,0.0004
609,0.888070821762085,1.3824753761291504,0.6538461538461539,0.9038461538461539,0.5714285714285714,0.8571428571428571,0.0004
610,0.5744833797216415,1.8884108066558838,0.7884615384615384,0.9423076923076923,0.6428571428571429,0.7857142857142857,0.0004
611,0.43812863528728485,1.1452813148498535,0.9038461538461539,1.0,0.8571428571428571,0.8571428571428571,0.0004
612,0.929336428642273,1.6961205005645752,0.7307692307692307,0.9423076923076923,0.6428571428571429,0.7857142857142857,0.0004
613,0.8698193728923798,0.9975770115852356,0.7884615384615384,0.9038461538461539,0.7142857142857143,0.8571428571428571,0.0004
614,0.7632959187030792,1.0356018543243408,0.8076923076923077,0.9615384615384616,0.6428571428571429,0.8571428571428571,0.0004
615,0.5633361041545868,1.0253596305847168,0.8269230769230769,0.9423076923076923,0.7857142857142857,0.8571428571428571,0.0004
616,0.609673261642456,1.351457953453064,0.8269230769230769,0.9615384615384616,0.5714285714285714,0.7857142857142857,0.0004
617,0.7181793451309204,1.4362046718597412,0.7692307692307693,0.9615384615384616,0.7142857142857143,0.8571428571428571,0.0004
618,0.5537994503974915,1.0221210718154907,0.8846153846153846,0.9423076923076923,0.7142857142857143,0.9285714285714286,0.0004
619,0.4823900908231735,1.312745213508606,0.8461538461538461,0.9807692307692307,0.7142857142857143,0.8571428571428571,0.0004
620,0.7471645772457123,1.590918779373169,0.7692307692307693,0.9230769230769231,0.7142857142857143,0.8571428571428571,0.0004
621,0.7382760643959045,0.5363591313362122,0.7115384615384616,1.0,0.8571428571428571,0.9285714285714286,0.0004
622,0.8518263101577759,0.6865423917770386,0.7884615384615384,0.9230769230769231,0.7142857142857143,0.9285714285714286,0.0004
623,0.7180029153823853,1.6187686920166016,0.6923076923076923,0.9423076923076923,0.5714285714285714,0.9285714285714286,0.0004
624,0.7088697552680969,1.26988685131073,0.7115384615384616,0.9423076923076923,0.5,0.8571428571428571,0.0004
625,0.606919065117836,1.2401657104492188,0.7692307692307693,1.0,0.6428571428571429,0.8571428571428571,0.0004
626,0.7605206072330475,1.5165245532989502,0.7307692307692307,0.9230769230769231,0.7142857142857143,0.8571428571428571,0.0004
627,0.48082078993320465,1.7111462354660034,0.8461538461538461,0.9807692307692307,0.6428571428571429,0.8571428571428571,0.0004
628,0.6476121544837952,0.9077749848365784,0.75,0.9807692307692307,0.7142857142857143,0.9285714285714286,0.0004
629,0.7874706387519836,1.3408868312835693,0.8269230769230769,0.9230769230769231,0.7142857142857143,0.9285714285714286,0.0004
630,0.5510992109775543,1.0103039741516113,0.8461538461538461,0.9615384615384616,0.7142857142857143,0.8571428571428571,0.0004
631,0.5483420789241791,0.8108155727386475,0.8269230769230769,0.9423076923076923,0.8571428571428571,0.9285714285714286,0.0004
632,0.5917827188968658,0.7845717072486877,0.7692307692307693,0.9807692307692307,0.8571428571428571,0.9285714285714286,0.0004
633,0.6461235880851746,1.166721224784851,0.8461538461538461,0.9615384615384616,0.7142857142857143,0.7857142857142857,0.0004
634,0.6164059937000275,0.9100807905197144,0.8076923076923077,0.9807692307692307,0.7142857142857143,0.9285714285714286,0.0004
635,0.5568462610244751,1.2610383033752441,0.8269230769230769,0.9807692307692307,0.5714285714285714,0.8571428571428571,0.0004
636,0.7997001111507416,1.3771036863327026,0.7115384615384616,0.9615384615384616,0.7142857142857143,0.7857142857142857,0.0004
637,1.1135540008544922,1.2660386562347412,0.6538461538461539,0.9230769230769231,0.7142857142857143,0.8571428571428571,0.0004
638,1.047713816165924,1.3441548347473145,0.6538461538461539,0.9230769230769231,0.6428571428571429,0.8571428571428571,0.0004
639,0.7074596285820007,1.200512409210205,0.7884615384615384,0.9615384615384616,0.6428571428571429,0.8571428571428571,0.0004
640,0.7971099019050598,0.8486963510513306,0.8076923076923077,0.9230769230769231,0.7857142857142857,0.9285714285714286,0.0004
641,0.48844319581985474,0.9077354669570923,0.8269230769230769,0.9615384615384616,0.7142857142857143,0.9285714285714286,0.0004
642,0.7120679318904877,1.1140743494033813,0.7307692307692307,0.9807692307692307,0.7857142857142857,0.8571428571428571,0.0004
643,0.5922586470842361,1.2638049125671387,0.7692307692307693,1.0,0.6428571428571429,0.8571428571428571,0.0004
644,0.7614713311195374,1.1360530853271484,0.7115384615384616,0.9423076923076923,0.6428571428571429,0.8571428571428571,0.0004
645,0.4160212427377701,1.3068420886993408,0.8653846153846154,1.0,0.7142857142857143,0.8571428571428571,0.0004
646,1.181566298007965,1.3258709907531738,0.6730769230769231,0.8653846153846154,0.7857142857142857,0.8571428571428571,0.0004
647,0.6719831228256226,0.9025903344154358,0.7884615384615384,1.0,0.8571428571428571,0.8571428571428571,0.0004
648,0.735817939043045,0.9199594855308533,0.7307692307692307,0.9230769230769231,0.9285714285714286,0.8571428571428571,0.0004
649,0.6992995142936707,0.785953164100647,0.7884615384615384,0.9423076923076923,0.7142857142857143,0.8571428571428571,0.0004
650,0.6614033430814743,0.9748935699462891,0.7884615384615384,0.9807692307692307,0.7857142857142857,0.8571428571428571,0.0004
651,0.7018065750598907,1.1411019563674927,0.75,0.9615384615384616,0.5714285714285714,0.8571428571428571,0.0004
652,0.7140686810016632,1.6155593395233154,0.8461538461538461,0.9230769230769231,0.6428571428571429,0.7857142857142857,0.0004
653,0.6669062972068787,1.8205857276916504,0.8076923076923077,0.9615384615384616,0.5,0.8571428571428571,0.0004
654,0.7736521363258362,1.2986699342727661,0.8269230769230769,0.9038461538461539,0.7142857142857143,0.8571428571428571,0.0004
655,0.7927409708499908,1.0046379566192627,0.7115384615384616,0.9038461538461539,0.7857142857142857,0.8571428571428571,0.0004
656,0.8591651618480682,1.023380994796753,0.7115384615384616,0.9423076923076923,0.7142857142857143,0.8571428571428571,0.0004
657,0.693837970495224,1.1045770645141602,0.6923076923076923,0.9615384615384616,0.7142857142857143,0.8571428571428571,0.0004
658,0.6449994742870331,1.06769597530365,0.8076923076923077,0.9615384615384616,0.7857142857142857,0.8571428571428571,0.0004
659,0.547564297914505,0.9278879165649414,0.8076923076923077,0.9615384615384616,0.7142857142857143,0.8571428571428571,0.0004
660,0.6711249053478241,0.9964596033096313,0.7884615384615384,0.9807692307692307,0.7857142857142857,0.7857142857142857,0.0004
661,0.7610080242156982,1.2244224548339844,0.7884615384615384,0.9423076923076923,0.7142857142857143,0.7857142857142857,0.0004
662,0.9337967336177826,1.0533689260482788,0.6923076923076923,0.9230769230769231,0.8571428571428571,0.7857142857142857,0.0004
663,0.5801241844892502,1.2466349601745605,0.8461538461538461,0.9615384615384616,0.7142857142857143,0.8571428571428571,0.0004
664,0.8517986536026001,0.32753896713256836,0.75,0.9038461538461539,0.9285714285714286,0.9285714285714286,0.0004
665,0.6873005330562592,0.6396227478981018,0.8269230769230769,0.9615384615384616,0.7857142857142857,0.9285714285714286,0.0004
666,0.7771761119365692,0.8015271425247192,0.7884615384615384,0.9230769230769231,0.8571428571428571,0.9285714285714286,0.0004
667,0.567458838224411,1.0687479972839355,0.8076923076923077,0.9807692307692307,0.8571428571428571,0.8571428571428571,0.0004
668,0.8792587220668793,1.045637607574463,0.6923076923076923,0.9423076923076923,0.7142857142857143,0.8571428571428571,0.0004
669,0.5543252825737,1.4037930965423584,0.8076923076923077,0.9615384615384616,0.5,0.7857142857142857,0.0004
670,0.638321578502655,1.3719300031661987,0.8269230769230769,0.9423076923076923,0.7857142857142857,0.8571428571428571,0.0004
671,0.6521402597427368,1.2100814580917358,0.75,0.9615384615384616,0.6428571428571429,0.8571428571428571,0.0004
672,0.7664027214050293,1.2142614126205444,0.7884615384615384,0.9038461538461539,0.6428571428571429,0.8571428571428571,0.0004
673,0.5152999758720398,1.1859627962112427,0.8653846153846154,0.9615384615384616,0.7142857142857143,0.8571428571428571,0.0004
674,0.6139465570449829,1.6226766109466553,0.75,0.9807692307692307,0.7142857142857143,0.7857142857142857,0.0004
675,0.6803315579891205,0.8060703873634338,0.8076923076923077,0.9807692307692307,0.7857142857142857,0.8571428571428571,0.0004
676,0.7565481662750244,0.6165162324905396,0.75,0.9423076923076923,0.7857142857142857,0.8571428571428571,0.0004
677,0.8399302661418915,1.0619605779647827,0.75,0.9423076923076923,0.6428571428571429,0.9285714285714286,0.0004
678,0.7307655811309814,1.828779935836792,0.8269230769230769,0.9423076923076923,0.7857142857142857,0.7142857142857143,0.0004
679,0.6937461495399475,1.273754358291626,0.7884615384615384,0.9615384615384616,0.7857142857142857,0.7857142857142857,0.0004
680,0.6861920058727264,0.793269157409668,0.7307692307692307,0.9615384615384616,0.7857142857142857,0.8571428571428571,0.0004
681,0.4932095408439636,0.5450849533081055,0.9038461538461539,0.9615384615384616,0.8571428571428571,0.9285714285714286,0.0004
682,0.5970491468906403,1.8328516483306885,0.7307692307692307,1.0,0.6428571428571429,0.8571428571428571,0.0004
683,0.7082415819168091,1.0285500288009644,0.8269230769230769,0.9423076923076923,0.7142857142857143,0.7857142857142857,0.0004
684,0.7178289592266083,0.9141677618026733,0.8461538461538461,0.8846153846153846,0.7857142857142857,0.8571428571428571,0.0004
685,0.5747597068548203,2.509509801864624,0.7884615384615384,0.9615384615384616,0.35714285714285715,0.6428571428571429,0.0004
686,0.6913070678710938,1.0826730728149414,0.75,0.9807692307692307,0.7857142857142857,0.8571428571428571,0.0004
687,0.5954290330410004,0.9144040942192078,0.8269230769230769,0.9807692307692307,0.7857142857142857,0.9285714285714286,0.0004
688,0.6207758188247681,1.091350793838501,0.7884615384615384,0.9615384615384616,0.8571428571428571,0.8571428571428571,0.0004
689,0.7362928092479706,0.744698166847229,0.7884615384615384,0.9230769230769231,0.8571428571428571,0.8571428571428571,0.0004
690,0.6460123062133789,0.9612851142883301,0.7884615384615384,0.9230769230769231,0.7857142857142857,0.8571428571428571,0.0004
691,0.520594984292984,1.1033941507339478,0.8846153846153846,0.9423076923076923,0.6428571428571429,0.9285714285714286,0.0004
692,0.8412748277187347,0.9402800798416138,0.7692307692307693,0.9230769230769231,0.7857142857142857,0.9285714285714286,0.0004
693,0.7903116345405579,1.2644784450531006,0.7884615384615384,0.9423076923076923,0.5714285714285714,0.7857142857142857,0.0004
694,0.6790715157985687,0.9902949333190918,0.8076923076923077,0.9230769230769231,0.7857142857142857,0.8571428571428571,0.0004
695,0.524609848856926,1.7982114553451538,0.8076923076923077,0.9807692307692307,0.6428571428571429,0.7142857142857143,0.0004
696,0.5649241507053375,0.45877355337142944,0.7692307692307693,0.9423076923076923,0.9285714285714286,0.9285714285714286,0.0004
697,0.7053113281726837,0.35626524686813354,0.7692307692307693,0.9423076923076923,1.0,1.0,0.0004
698,0.6856496930122375,0.8779246807098389,0.8076923076923077,0.9615384615384616,0.9285714285714286,0.8571428571428571,0.0004
699,0.9844355285167694,1.0362637042999268,0.6923076923076923,0.9230769230769231,0.7142857142857143,0.8571428571428571,0.0004
700,0.8861421048641205,1.2665133476257324,0.75,0.9038461538461539,0.7857142857142857,0.7857142857142857,0.0004
701,0.6967899203300476,0.9406273365020752,0.7692307692307693,0.9230769230769231,0.7142857142857143,0.8571428571428571,0.0004
702,0.5873948037624359,1.450885534286499,0.8461538461538461,0.9615384615384616,0.5714285714285714,0.7142857142857143,0.0004
703,0.8741903305053711,1.358368158340454,0.6538461538461539,0.9230769230769231,0.5714285714285714,0.8571428571428571,0.0004
704,0.6409894227981567,0.8290519714355469,0.7692307692307693,0.9807692307692307,0.7142857142857143,0.8571428571428571,0.0004
705,0.676580399274826,1.5191673040390015,0.8076923076923077,0.9423076923076923,0.6428571428571429,0.7857142857142857,0.0004
706,0.5720217227935791,0.9841017723083496,0.8269230769230769,0.9423076923076923,0.8571428571428571,0.7857142857142857,0.0004
707,0.5853904038667679,0.3755480647087097,0.8269230769230769,0.9807692307692307,0.9285714285714286,0.9285714285714286,0.0004
708,0.5027847588062286,1.0531160831451416,0.8461538461538461,0.9807692307692307,0.8571428571428571,0.8571428571428571,0.0004
709,0.5530600100755692,1.4355053901672363,0.75,0.9615384615384616,0.5,0.7857142857142857,0.0004
710,0.6526900231838226,1.4277364015579224,0.7884615384615384,0.9423076923076923,0.7142857142857143,0.8571428571428571,0.0004
711,0.8837401866912842,1.8194847106933594,0.6730769230769231,0.9423076923076923,0.5714285714285714,0.7857142857142857,0.0004
712,0.6431757807731628,0.8399612307548523,0.75,0.9807692307692307,0.7857142857142857,0.8571428571428571,0.0004
713,0.8240399360656738,1.623069167137146,0.7307692307692307,0.9230769230769231,0.6428571428571429,0.8571428571428571,0.0004
714,0.6731144487857819,0.8427771329879761,0.8461538461538461,0.9230769230769231,0.7857142857142857,0.8571428571428571,0.0004
715,0.9812514185905457,1.3836705684661865,0.7307692307692307,0.9038461538461539,0.5714285714285714,0.8571428571428571,0.0004
716,0.6289027333259583,1.4316704273223877,0.7884615384615384,0.9423076923076923,0.5714285714285714,0.8571428571428571,0.0004
717,0.6623367965221405,1.2273297309875488,0.7884615384615384,0.9423076923076923,0.6428571428571429,0.9285714285714286,0.0004
718,0.830873966217041,1.3080781698226929,0.7307692307692307,0.9423076923076923,0.5714285714285714,0.9285714285714286,0.0004
719,0.9242346584796906,1.6629549264907837,0.7692307692307693,0.9423076923076923,0.7142857142857143,0.9285714285714286,0.0004
720,0.7600142657756805,0.9493458271026611,0.6923076923076923,0.9230769230769231,0.6428571428571429,0.9285714285714286,0.0004
721,0.5483539253473282,1.2484009265899658,0.7307692307692307,1.0,0.7142857142857143,0.7142857142857143,0.0004
722,0.7619902789592743,0.8624929189682007,0.7692307692307693,0.9230769230769231,0.7857142857142857,0.9285714285714286,0.0004
723,0.6246142983436584,1.1596126556396484,0.7884615384615384,0.9615384615384616,0.6428571428571429,0.8571428571428571,0.0004
724,0.5784428268671036,1.0166980028152466,0.8076923076923077,0.9807692307692307,0.7142857142857143,0.7857142857142857,0.0004
725,0.5017682313919067,1.7974961996078491,0.8846153846153846,0.9615384615384616,0.42857142857142855,0.8571428571428571,0.0004
726,0.5907894372940063,1.588886022567749,0.8076923076923077,0.9423076923076923,0.7857142857142857,0.7857142857142857,0.0004
727,0.6341399550437927,0.8473547697067261,0.8076923076923077,0.9615384615384616,0.8571428571428571,0.8571428571428571,0.0004
728,0.6163942813873291,1.0307480096817017,0.7884615384615384,0.9615384615384616,0.7142857142857143,0.8571428571428571,0.0004
729,0.731801450252533,1.0890629291534424,0.7307692307692307,0.9230769230769231,0.5714285714285714,0.9285714285714286,0.0004
730,0.731658399105072,1.7292847633361816,0.8076923076923077,0.9038461538461539,0.7142857142857143,0.8571428571428571,0.0004
731,0.44002826511859894,1.2792274951934814,0.8846153846153846,1.0,0.6428571428571429,0.7857142857142857,0.0004
732,0.6724735647439957,1.659069299697876,0.75,0.9423076923076923,0.5714285714285714,0.7857142857142857,0.0004
733,0.6202065348625183,0.972585916519165,0.8653846153846154,0.9423076923076923,0.6428571428571429,0.9285714285714286,0.0004
734,0.8971515893936157,1.3843369483947754,0.75,0.8653846153846154,0.5714285714285714,0.8571428571428571,0.0004
735,0.6538117825984955,0.8883394002914429,0.7692307692307693,0.9615384615384616,0.7857142857142857,1.0,0.0004
736,0.7189231514930725,0.5400184392929077,0.7307692307692307,0.9423076923076923,0.9285714285714286,0.9285714285714286,0.0004
737,0.6462123692035675,1.0891984701156616,0.8076923076923077,0.9807692307692307,0.6428571428571429,0.8571428571428571,0.0004
738,0.7100169956684113,0.730139434337616,0.75,1.0,0.9285714285714286,0.8571428571428571,0.0004
739,0.6651329100131989,1.5899144411087036,0.7692307692307693,1.0,0.7142857142857143,0.7857142857142857,0.0004
740,0.7913030087947845,1.5183727741241455,0.7692307692307693,0.9423076923076923,0.6428571428571429,0.8571428571428571,0.0004
741,0.6251131594181061,1.2114051580429077,0.8846153846153846,0.9230769230769231,0.7142857142857143,0.7857142857142857,0.0004
742,0.49689748883247375,1.4851680994033813,0.9423076923076923,0.9230769230769231,0.6428571428571429,0.9285714285714286,0.0004
743,0.6555436253547668,1.5861841440200806,0.75,0.9230769230769231,0.6428571428571429,0.8571428571428571,0.0004
744,0.5856040120124817,1.1544313430786133,0.7115384615384616,0.9615384615384616,0.7142857142857143,0.9285714285714286,0.0004
745,0.6046992540359497,1.0448694229125977,0.8076923076923077,0.9807692307692307,0.7142857142857143,0.8571428571428571,0.0004
746,0.830779492855072,1.4966909885406494,0.7692307692307693,0.9230769230769231,0.5,0.7857142857142857,0.0004
747,0.8763082027435303,0.5420228242874146,0.7692307692307693,0.8653846153846154,0.7857142857142857,0.9285714285714286,0.0004
748,0.48420408368110657,0.8604812026023865,0.8846153846153846,0.9807692307692307,0.7142857142857143,0.9285714285714286,0.0004
749,0.5789248943328857,1.129510760307312,0.7884615384615384,1.0,0.5714285714285714,0.8571428571428571,0.0004
750,0.5355610549449921,0.9435149431228638,0.8269230769230769,0.9807692307692307,0.7142857142857143,0.9285714285714286,0.0004
751,0.5750591158866882,1.5905067920684814,0.8076923076923077,0.9807692307692307,0.5714285714285714,0.7857142857142857,0.0004
752,0.4892003834247589,1.4466681480407715,0.8461538461538461,0.9615384615384616,0.7142857142857143,0.8571428571428571,0.0004
753,0.7137606739997864,1.744288682937622,0.75,0.9423076923076923,0.6428571428571429,0.7142857142857143,0.0004
754,0.47839774191379547,1.2472789287567139,0.8076923076923077,0.9807692307692307,0.7142857142857143,0.8571428571428571,0.0004
755,0.5320301502943039,1.1049895286560059,0.7884615384615384,0.9615384615384616,0.6428571428571429,0.9285714285714286,0.0004
756,0.6598288714885712,1.3012268543243408,0.6923076923076923,0.9615384615384616,0.6428571428571429,0.7857142857142857,0.0004
757,0.5492527484893799,1.2198351621627808,0.8076923076923077,0.9615384615384616,0.7142857142857143,0.8571428571428571,0.0004
758,0.7813534736633301,1.1459449529647827,0.75,0.9807692307692307,0.6428571428571429,0.8571428571428571,0.0004
759,0.49667221307754517,0.9805858135223389,0.8653846153846154,0.9423076923076923,0.7857142857142857,0.9285714285714286,0.0004
760,0.7088912129402161,0.6202610731124878,0.7692307692307693,0.9230769230769231,0.7857142857142857,0.9285714285714286,0.0004
761,0.7201967835426331,1.5024187564849854,0.8269230769230769,0.9615384615384616,0.5714285714285714,0.8571428571428571,0.0004
762,0.7445570230484009,1.2918927669525146,0.75,0.9038461538461539,0.5714285714285714,0.7857142857142857,0.0004
763,0.6228332817554474,1.2680931091308594,0.7884615384615384,0.9423076923076923,0.7857142857142857,0.7857142857142857,0.0004
764,0.5938366651535034,0.9672437906265259,0.8461538461538461,0.9807692307692307,0.8571428571428571,0.9285714285714286,0.0004
765,0.45089520514011383,0.8005169630050659,0.8461538461538461,0.9807692307692307,0.7857142857142857,0.9285714285714286,0.0004
766,0.7168631553649902,1.0660486221313477,0.75,0.9615384615384616,0.5714285714285714,0.8571428571428571,0.0004
767,0.5407808721065521,1.1802144050598145,0.8269230769230769,0.9615384615384616,0.6428571428571429,0.9285714285714286,0.0004
768,0.5751619338989258,1.2691165208816528,0.8269230769230769,1.0,0.9285714285714286,0.7857142857142857,0.0004
769,0.6830125004053116,0.91158527135849,0.8269230769230769,0.9423076923076923,0.8571428571428571,0.8571428571428571,0.0004
770,0.6579912006855011,1.5401201248168945,0.8269230769230769,0.9230769230769231,0.6428571428571429,0.7142857142857143,0.0004
771,0.6370960175991058,1.0785164833068848,0.8653846153846154,0.9423076923076923,0.7857142857142857,0.8571428571428571,0.0004
772,0.4584188759326935,1.2249178886413574,0.9038461538461539,0.9615384615384616,0.6428571428571429,0.8571428571428571,0.0004
773,0.7506088614463806,1.1034483909606934,0.7692307692307693,0.9615384615384616,0.7142857142857143,0.8571428571428571,0.0004
774,0.7725567817687988,0.9971737861633301,0.8076923076923077,0.9423076923076923,0.7857142857142857,0.9285714285714286,0.0004
775,0.5674721300601959,1.350212812423706,0.8461538461538461,0.9807692307692307,0.5714285714285714,0.9285714285714286,0.0004
776,0.6581350862979889,1.5559080839157104,0.8269230769230769,0.9038461538461539,0.7857142857142857,0.7857142857142857,0.0004
777,0.6544764339923859,1.0946285724639893,0.8076923076923077,0.9230769230769231,0.5714285714285714,0.8571428571428571,0.0004
778,0.6646566390991211,0.9538022875785828,0.75,0.9423076923076923,0.7142857142857143,0.9285714285714286,0.0004
779,0.7451478838920593,1.1907812356948853,0.6923076923076923,0.9230769230769231,0.6428571428571429,0.7857142857142857,0.0004
780,0.477308914065361,1.1845953464508057,0.7884615384615384,1.0,0.7142857142857143,0.7857142857142857,0.0004
781,0.5137933492660522,1.1902607679367065,0.8076923076923077,0.9807692307692307,0.6428571428571429,0.8571428571428571,0.0004
782,0.5374816954135895,1.7280113697052002,0.8269230769230769,0.9423076923076923,0.5,0.9285714285714286,0.0004
783,0.6564682424068451,1.4066157341003418,0.75,0.9423076923076923,0.7142857142857143,0.7142857142857143,0.0004
784,0.6882223784923553,0.5778316855430603,0.7884615384615384,0.9038461538461539,0.8571428571428571,1.0,0.0004
785,0.5899887681007385,1.2463792562484741,0.8076923076923077,0.9423076923076923,0.7857142857142857,0.6428571428571429,0.0004
786,0.8289377987384796,1.366275668144226,0.8076923076923077,0.9423076923076923,0.7142857142857143,0.7857142857142857,0.0004
787,0.6714465618133545,0.6753162145614624,0.75,1.0,0.7857142857142857,0.9285714285714286,0.0004
788,0.5969929397106171,0.8119603395462036,0.7692307692307693,0.9807692307692307,0.8571428571428571,0.8571428571428571,0.0004
789,0.7897109985351562,1.007331371307373,0.7692307692307693,0.9038461538461539,0.6428571428571429,0.8571428571428571,0.0004
790,0.6234706342220306,1.4204338788986206,0.75,0.9615384615384616,0.5714285714285714,0.8571428571428571,0.0004
791,0.7379472255706787,1.6329333782196045,0.7692307692307693,0.9615384615384616,0.5714285714285714,0.8571428571428571,0.0004
792,0.5983657091856003,1.136411428451538,0.8269230769230769,0.9423076923076923,0.7142857142857143,0.9285714285714286,0.0004
793,0.40165674686431885,1.132753610610962,0.8846153846153846,0.9807692307692307,0.6428571428571429,0.9285714285714286,0.0004
794,0.5514375865459442,0.9959065318107605,0.8269230769230769,0.9807692307692307,0.7857142857142857,0.8571428571428571,0.0004
795,0.8733720779418945,1.2396867275238037,0.7884615384615384,0.9038461538461539,0.7142857142857143,0.7857142857142857,0.0004
796,0.8638419508934021,0.8369070291519165,0.75,0.9038461538461539,0.8571428571428571,0.8571428571428571,0.0004
797,0.6201651394367218,0.6734180450439453,0.8269230769230769,0.9230769230769231,0.9285714285714286,0.9285714285714286,0.0004
798,0.5052443742752075,1.0049288272857666,0.8076923076923077,0.9807692307692307,0.9285714285714286,0.7857142857142857,0.0004
799,0.6407676041126251,1.1657702922821045,0.7307692307692307,0.9807692307692307,0.7142857142857143,0.7857142857142857,0.0004
800,0.5396387875080109,0.9575515985488892,0.7692307692307693,0.9615384615384616,0.6428571428571429,0.9285714285714286,0.0004
801,0.697277158498764,1.0193045139312744,0.7692307692307693,0.9615384615384616,0.7857142857142857,0.8571428571428571,0.0004
802,0.5562834739685059,1.7545888423919678,0.7884615384615384,0.9230769230769231,0.42857142857142855,0.7857142857142857,0.0004
803,0.5526604652404785,1.2825043201446533,0.8269230769230769,0.9423076923076923,0.7142857142857143,0.7857142857142857,0.0004
804,0.6479082703590393,0.9715514183044434,0.8076923076923077,0.9615384615384616,0.8571428571428571,0.9285714285714286,0.0004
805,0.5891362428665161,0.9591492414474487,0.8653846153846154,1.0,0.7857142857142857,0.8571428571428571,0.0004
806,0.5196637958288193,0.8906180262565613,0.8461538461538461,0.9807692307692307,0.7142857142857143,0.9285714285714286,0.0004
807,0.6698278188705444,1.1069462299346924,0.8076923076923077,0.9230769230769231,0.7857142857142857,0.8571428571428571,0.0004
808,0.797050803899765,0.8172268271446228,0.6923076923076923,0.9230769230769231,0.7857142857142857,0.8571428571428571,0.0004
809,0.5146633982658386,1.1597692966461182,0.8461538461538461,0.9615384615384616,0.7857142857142857,0.7857142857142857,0.0004
810,0.7454756498336792,1.0907987356185913,0.8269230769230769,0.9615384615384616,0.8571428571428571,0.7857142857142857,0.0004
811,0.5618362426757812,1.104121446609497,0.8269230769230769,0.9423076923076923,0.8571428571428571,0.7857142857142857,0.0004
812,0.5706616640090942,0.8811136484146118,0.8076923076923077,0.9423076923076923,0.7142857142857143,0.9285714285714286,0.0004
813,0.6213585734367371,1.11403489112854,0.8076923076923077,0.9230769230769231,0.7857142857142857,0.7857142857142857,0.0004
814,0.6348847150802612,1.6830472946166992,0.7692307692307693,1.0,0.35714285714285715,0.7857142857142857,0.0004
815,1.1023344993591309,1.1785614490509033,0.6923076923076923,0.9230769230769231,0.6428571428571429,0.7857142857142857,0.0004
816,0.7005946636199951,1.0712757110595703,0.7692307692307693,1.0,0.5714285714285714,0.8571428571428571,0.0004
817,0.5457710027694702,0.705564558506012,0.7692307692307693,1.0,0.8571428571428571,0.8571428571428571,0.0004
818,0.7697575092315674,0.6357040405273438,0.8076923076923077,0.9615384615384616,0.8571428571428571,0.9285714285714286,0.0004
819,0.5200664699077606,1.3062148094177246,0.8461538461538461,0.9423076923076923,0.6428571428571429,0.8571428571428571,0.0004
820,0.5340666472911835,0.9433847665786743,0.7692307692307693,0.9807692307692307,0.6428571428571429,0.8571428571428571,0.0004
821,0.5854422748088837,1.0418319702148438,0.8653846153846154,0.9807692307692307,0.7142857142857143,0.7857142857142857,0.0004
822,0.7238729596138,1.389561414718628,0.75,0.9423076923076923,0.7142857142857143,0.7857142857142857,0.0004
823,0.5075267404317856,0.8381472229957581,0.8269230769230769,0.9615384615384616,0.7142857142857143,0.9285714285714286,0.0004
824,0.6796995103359222,0.8266595602035522,0.7692307692307693,0.9615384615384616,0.7142857142857143,0.9285714285714286,0.0004
825,0.83819979429245,1.1610491275787354,0.7692307692307693,0.9230769230769231,0.6428571428571429,0.8571428571428571,0.0004
826,0.5459999144077301,1.8250699043273926,0.8269230769230769,0.9807692307692307,0.7857142857142857,0.7857142857142857,0.0004
827,0.6697780787944794,0.3955840468406677,0.8269230769230769,0.9615384615384616,0.8571428571428571,0.9285714285714286,0.0004
828,0.6072878539562225,1.1683974266052246,0.75,0.9615384615384616,0.7142857142857143,0.8571428571428571,0.0004
829,0.5153426826000214,1.0790901184082031,0.7307692307692307,0.9807692307692307,0.6428571428571429,0.9285714285714286,0.0004
830,0.4956875741481781,0.7687492370605469,0.8269230769230769,0.9615384615384616,0.8571428571428571,0.9285714285714286,0.0004
831,0.7607830464839935,1.4837040901184082,0.7884615384615384,0.9230769230769231,0.6428571428571429,0.7857142857142857,0.0004
832,0.44971149414777756,1.563315987586975,0.8461538461538461,0.9807692307692307,0.7142857142857143,0.8571428571428571,0.0004
833,0.6290217936038971,1.1707565784454346,0.8076923076923077,0.9807692307692307,0.7857142857142857,0.8571428571428571,0.0004
834,0.6428980827331543,1.7108869552612305,0.7307692307692307,0.9423076923076923,0.7142857142857143,0.8571428571428571,0.0004
835,0.508702889084816,1.2372732162475586,0.8461538461538461,0.9423076923076923,0.7857142857142857,0.8571428571428571,0.0004
836,0.5868551135063171,0.9947545528411865,0.8269230769230769,0.9615384615384616,0.7142857142857143,0.8571428571428571,0.0004
837,0.5222304612398148,1.6321974992752075,0.8653846153846154,0.9615384615384616,0.7142857142857143,0.7857142857142857,0.0004
838,0.7575430572032928,0.8696964979171753,0.7884615384615384,0.9423076923076923,0.7857142857142857,0.9285714285714286,0.0004
839,0.8203586041927338,1.185089349746704,0.75,0.8846153846153846,0.6428571428571429,0.8571428571428571,0.0004
840,0.6571783423423767,1.3432742357254028,0.75,0.9615384615384616,0.8571428571428571,0.7857142857142857,0.0004
841,0.42985476553440094,1.2244939804077148,0.8461538461538461,1.0,0.8571428571428571,0.8571428571428571,0.0004
842,0.6897493302822113,1.2359318733215332,0.7692307692307693,0.9230769230769231,0.7142857142857143,0.7857142857142857,0.0004
843,0.5878049433231354,0.7427213191986084,0.7884615384615384,0.9807692307692307,0.9285714285714286,0.9285714285714286,0.0004
844,0.7142226248979568,1.1198017597198486,0.7307692307692307,0.9230769230769231,0.7142857142857143,0.8571428571428571,0.0004
845,0.5293901264667511,1.210944652557373,0.8653846153846154,0.9615384615384616,0.7142857142857143,0.9285714285714286,0.0004
846,0.6307744085788727,2.1976826190948486,0.8269230769230769,0.9615384615384616,0.42857142857142855,0.7142857142857143,0.0004
847,0.8744430541992188,1.260495901107788,0.7884615384615384,0.9230769230769231,0.7142857142857143,0.8571428571428571,0.0004
848,0.7409624755382538,1.190384864807129,0.6538461538461539,0.9615384615384616,0.5714285714285714,0.8571428571428571,0.0004
849,0.6532063484191895,1.0848146677017212,0.8269230769230769,0.9423076923076923,0.6428571428571429,0.8571428571428571,0.0004
850,0.6575562953948975,0.9092898368835449,0.7692307692307693,0.9615384615384616,0.7857142857142857,0.9285714285714286,0.0004
851,0.7993010580539703,1.3361729383468628,0.8076923076923077,0.9423076923076923,0.6428571428571429,0.8571428571428571,0.0004
852,0.6330342292785645,1.024247169494629,0.7692307692307693,1.0,0.7857142857142857,0.8571428571428571,0.0004
853,0.5211736261844635,1.1169928312301636,0.8269230769230769,0.9615384615384616,0.6428571428571429,0.7857142857142857,0.0004
854,0.606199324131012,0.6830000877380371,0.7307692307692307,0.9615384615384616,0.7142857142857143,0.9285714285714286,0.0004
855,0.8553340137004852,0.6908676028251648,0.6538461538461539,0.9615384615384616,0.8571428571428571,0.9285714285714286,0.0004
856,0.6011112779378891,0.9870227575302124,0.8461538461538461,0.9423076923076923,0.7857142857142857,0.8571428571428571,0.0004
857,0.9877833724021912,0.993215799331665,0.75,0.8846153846153846,0.7142857142857143,0.8571428571428571,0.0004
858,1.0086761116981506,1.302103042602539,0.6538461538461539,0.9230769230769231,0.6428571428571429,0.8571428571428571,0.0004
859,0.8315894305706024,1.2712042331695557,0.7692307692307693,0.9615384615384616,0.7142857142857143,0.8571428571428571,0.0004
860,0.6297698020935059,1.5628385543823242,0.8653846153846154,0.9230769230769231,0.7142857142857143,0.9285714285714286,0.0004
861,0.7108777463436127,1.5961132049560547,0.7692307692307693,0.8846153846153846,0.6428571428571429,0.7857142857142857,0.0004
862,0.5670670568943024,0.9027433395385742,0.7692307692307693,1.0,0.9285714285714286,0.7857142857142857,0.0004
863,0.48359957337379456,1.2926594018936157,0.8653846153846154,0.9807692307692307,0.5,0.8571428571428571,0.0004
864,0.5342690646648407,1.1828817129135132,0.8269230769230769,0.9615384615384616,0.7142857142857143,0.8571428571428571,0.0004
865,0.5860718488693237,1.2854000329971313,0.8269230769230769,0.9807692307692307,0.7142857142857143,0.8571428571428571,0.0004
866,0.7123608291149139,1.1456974744796753,0.75,0.9615384615384616,0.7857142857142857,0.8571428571428571,0.0004
867,0.7614618539810181,0.8890385031700134,0.7884615384615384,0.9230769230769231,0.7857142857142857,0.8571428571428571,0.0004
868,0.4734463542699814,0.9889624714851379,0.7884615384615384,1.0,0.6428571428571429,0.7857142857142857,0.0004
869,0.4405631572008133,1.0595741271972656,0.9038461538461539,1.0,0.5,0.8571428571428571,0.0004
870,0.6900461614131927,0.8402420878410339,0.6538461538461539,0.9807692307692307,0.9285714285714286,0.8571428571428571,0.0004
871,0.5086303651332855,1.2175551652908325,0.8076923076923077,0.9615384615384616,0.6428571428571429,0.8571428571428571,0.0004
872,0.7122096419334412,1.0097606182098389,0.7692307692307693,0.9038461538461539,0.7857142857142857,0.7857142857142857,0.0004
873,0.364453062415123,1.217861294746399,0.9230769230769231,1.0,0.7142857142857143,0.8571428571428571,0.0004
874,0.5840592980384827,1.2982573509216309,0.8076923076923077,0.9807692307692307,0.5714285714285714,0.9285714285714286,0.0004
875,0.4516410678625107,0.750074028968811,0.8461538461538461,0.9807692307692307,0.7857142857142857,0.9285714285714286,0.0004
876,0.7303549647331238,1.16342294216156,0.7884615384615384,0.9230769230769231,0.6428571428571429,0.8571428571428571,0.0004
877,0.3961387276649475,1.0577112436294556,0.8846153846153846,0.9615384615384616,0.7857142857142857,0.8571428571428571,0.0004
878,0.833810955286026,1.9774243831634521,0.7307692307692307,0.9230769230769231,0.5,0.9285714285714286,0.0004
879,0.6618107855319977,0.6107942461967468,0.7692307692307693,0.9615384615384616,0.8571428571428571,0.9285714285714286,0.0004
880,0.628791868686676,1.3931005001068115,0.8076923076923077,0.9615384615384616,0.6428571428571429,0.8571428571428571,0.0004
881,0.5273928195238113,1.7341272830963135,0.8269230769230769,0.9807692307692307,0.7142857142857143,0.7857142857142857,0.0004
882,0.5232420265674591,0.9590582847595215,0.8076923076923077,0.9615384615384616,0.7142857142857143,0.8571428571428571,0.0004
883,0.45670926570892334,2.2876086235046387,0.8076923076923077,1.0,0.6428571428571429,0.9285714285714286,0.0004
884,0.6253534853458405,1.0861741304397583,0.8076923076923077,0.9807692307692307,0.7142857142857143,0.9285714285714286,0.0004
885,0.5395037680864334,1.4591435194015503,0.8269230769230769,0.9807692307692307,0.7142857142857143,0.8571428571428571,0.0004
886,0.608400285243988,0.8239040374755859,0.8269230769230769,0.9423076923076923,0.8571428571428571,0.9285714285714286,0.0004
887,0.5573441684246063,0.8882327675819397,0.7884615384615384,0.9615384615384616,0.8571428571428571,0.9285714285714286,0.0004
888,0.4137728661298752,1.5321844816207886,0.8653846153846154,0.9807692307692307,0.7857142857142857,0.7857142857142857,0.0004
889,0.8000745475292206,1.1490259170532227,0.75,0.9038461538461539,0.6428571428571429,0.9285714285714286,0.0004
890,0.6381820738315582,1.2385880947113037,0.8269230769230769,0.9615384615384616,0.7857142857142857,0.8571428571428571,0.0004
891,0.7341567873954773,1.3660500049591064,0.7884615384615384,0.9615384615384616,0.7857142857142857,0.8571428571428571,0.0004
892,0.4040457457304001,1.427112102508545,0.9038461538461539,1.0,0.7142857142857143,0.8571428571428571,0.0004
893,0.6308822929859161,1.2076101303100586,0.8461538461538461,0.9615384615384616,0.7142857142857143,0.8571428571428571,0.0004
894,0.5918418169021606,1.172783374786377,0.8653846153846154,0.9615384615384616,0.7857142857142857,0.7857142857142857,0.0004
895,0.668579638004303,1.123184084892273,0.7884615384615384,0.9615384615384616,0.7142857142857143,0.8571428571428571,0.0004
896,0.35080502927303314,1.8456358909606934,0.9038461538461539,0.9807692307692307,0.5,0.7857142857142857,0.0004
897,0.653066486120224,1.4491634368896484,0.7884615384615384,0.9230769230769231,0.7142857142857143,0.7857142857142857,0.0004
898,0.5370559096336365,1.1846835613250732,0.8269230769230769,0.9807692307692307,0.7142857142857143,0.7857142857142857,0.0004
899,0.7586506307125092,1.6746405363082886,0.7884615384615384,0.9230769230769231,0.6428571428571429,0.7857142857142857,0.0004
900,0.6078059375286102,0.8349858522415161,0.8269230769230769,0.9230769230769231,0.7857142857142857,0.8571428571428571,0.0004
901,0.5265346765518188,1.295149564743042,0.8269230769230769,0.9423076923076923,0.5714285714285714,0.8571428571428571,0.0004
902,0.5484410226345062,0.8689216375350952,0.8076923076923077,0.9230769230769231,0.7142857142857143,0.9285714285714286,0.0004
903,0.5261481702327728,0.9618406295776367,0.75,1.0,0.7857142857142857,0.9285714285714286,0.0004
904,0.5299796760082245,1.707705020904541,0.8461538461538461,0.9615384615384616,0.7142857142857143,0.8571428571428571,0.0004
905,0.9326481819152832,1.334660291671753,0.75,0.9038461538461539,0.7142857142857143,0.7857142857142857,0.0004
906,0.647300124168396,1.2222509384155273,0.8269230769230769,0.9807692307692307,0.7857142857142857,0.9285714285714286,0.0004
907,0.8120594322681427,0.9268763065338135,0.8269230769230769,0.9423076923076923,0.7857142857142857,0.7857142857142857,0.0004
908,0.3463146239519119,1.3841278553009033,0.8653846153846154,1.0,0.7142857142857143,0.7857142857142857,0.0004
909,0.5905044376850128,1.5622377395629883,0.8076923076923077,0.9615384615384616,0.7142857142857143,0.7142857142857143,0.0004
910,0.5028928965330124,1.0087809562683105,0.8461538461538461,1.0,0.7857142857142857,0.7857142857142857,0.0004
911,0.5190912634134293,1.4736918210983276,0.8269230769230769,0.9615384615384616,0.7142857142857143,0.8571428571428571,0.0004
912,0.7291523218154907,1.5659962892532349,0.7692307692307693,0.9230769230769231,0.5714285714285714,0.7857142857142857,0.0004
913,0.7030775547027588,1.632005214691162,0.6538461538461539,0.9230769230769231,0.5714285714285714,0.8571428571428571,0.0004
914,0.5920220017433167,1.1919788122177124,0.8269230769230769,0.9615384615384616,0.6428571428571429,0.9285714285714286,0.0004
915,0.8463414311408997,1.2935309410095215,0.7884615384615384,0.8846153846153846,0.7142857142857143,0.7857142857142857,0.0004
916,0.8811894059181213,0.789222240447998,0.7307692307692307,0.9423076923076923,0.8571428571428571,0.8571428571428571,0.0004
917,0.46413925290107727,1.1405576467514038,0.8846153846153846,0.9615384615384616,0.7857142857142857,0.8571428571428571,0.0004
918,0.581768274307251,0.5984732508659363,0.8076923076923077,0.9615384615384616,0.8571428571428571,0.8571428571428571,0.0004
919,0.7024357318878174,0.6987283229827881,0.7884615384615384,0.9615384615384616,0.9285714285714286,0.9285714285714286,0.0004
920,0.6976453363895416,1.0483753681182861,0.8076923076923077,0.9615384615384616,0.8571428571428571,0.9285714285714286,0.0004
921,0.4853985756635666,0.908584475517273,0.8461538461538461,1.0,0.7142857142857143,0.9285714285714286,0.0004
922,0.4186856150627136,0.9983437061309814,0.8461538461538461,0.9807692307692307,0.7857142857142857,0.9285714285714286,0.0004
923,0.7412936091423035,1.0668425559997559,0.7884615384615384,0.9615384615384616,0.7857142857142857,0.7857142857142857,0.0004
924,0.4299440383911133,1.415185570716858,0.8653846153846154,0.9807692307692307,0.7142857142857143,0.8571428571428571,0.0004
925,0.7830671668052673,2.0513670444488525,0.7115384615384616,0.9615384615384616,0.5714285714285714,0.7857142857142857,0.0004
926,0.7749416828155518,0.8819001913070679,0.75,0.9615384615384616,0.7857142857142857,0.9285714285714286,0.0004
927,0.55073182284832,1.7564451694488525,0.7692307692307693,0.9423076923076923,0.6428571428571429,0.7142857142857143,0.0004
928,0.5008503198623657,1.3146109580993652,0.8461538461538461,0.9615384615384616,0.7857142857142857,0.9285714285714286,0.0004
929,0.5714791417121887,0.6902821063995361,0.8076923076923077,0.9807692307692307,0.9285714285714286,0.9285714285714286,0.0004
930,0.5589888393878937,1.279843807220459,0.8076923076923077,0.9615384615384616,0.7857142857142857,0.7142857142857143,0.0004
931,0.6643986105918884,1.076636791229248,0.8076923076923077,0.9423076923076923,0.7857142857142857,0.7857142857142857,0.0004
932,0.5520034730434418,1.5016977787017822,0.7884615384615384,0.9807692307692307,0.7857142857142857,0.7857142857142857,0.0004
933,0.5389242023229599,0.8854608535766602,0.8461538461538461,0.9423076923076923,0.8571428571428571,0.8571428571428571,0.0004
934,0.5857665538787842,1.259855031967163,0.8269230769230769,0.9807692307692307,0.5714285714285714,0.9285714285714286,0.0004
935,0.6443313658237457,1.8503164052963257,0.7884615384615384,0.9423076923076923,0.5,0.7142857142857143,0.0004
936,0.6935490369796753,0.5875620245933533,0.8269230769230769,0.9423076923076923,0.9285714285714286,0.9285714285714286,0.0004
937,0.5314488112926483,1.3568300008773804,0.8076923076923077,0.9615384615384616,0.7142857142857143,0.8571428571428571,0.0004
938,0.4977536201477051,0.9523346424102783,0.8846153846153846,0.9423076923076923,0.6428571428571429,0.8571428571428571,0.0004
939,0.5409405827522278,1.1797138452529907,0.8076923076923077,0.9807692307692307,0.7142857142857143,0.7857142857142857,0.0004
940,0.3585451692342758,1.0985043048858643,0.9038461538461539,0.9807692307692307,0.7142857142857143,0.8571428571428571,0.0004
941,0.4749137759208679,1.7921719551086426,0.7884615384615384,0.9807692307692307,0.5714285714285714,0.7857142857142857,0.0004
942,0.4901391714811325,1.471566915512085,0.8076923076923077,0.9807692307692307,0.7142857142857143,0.7857142857142857,0.0004
943,0.7087833285331726,1.3643534183502197,0.6923076923076923,0.9423076923076923,0.6428571428571429,0.8571428571428571,0.0004
944,0.6790004819631577,0.973875105381012,0.8461538461538461,0.9423076923076923,0.8571428571428571,0.8571428571428571,0.0004
945,0.57364422082901,1.4338258504867554,0.8076923076923077,0.9230769230769231,0.7142857142857143,0.9285714285714286,0.0004
946,0.5449922382831573,2.059648036956787,0.7692307692307693,0.9807692307692307,0.5714285714285714,0.8571428571428571,0.0004
947,0.6643405854701996,1.4525753259658813,0.8269230769230769,0.9230769230769231,0.7142857142857143,0.8571428571428571,0.0004
948,0.5490411520004272,0.9387742877006531,0.8076923076923077,0.9615384615384616,0.8571428571428571,0.7857142857142857,0.0004
949,0.551651656627655,0.8474745154380798,0.8269230769230769,0.9230769230769231,0.7857142857142857,0.9285714285714286,0.0004
950,0.6389002501964569,1.6562368869781494,0.7692307692307693,0.9423076923076923,0.7142857142857143,0.9285714285714286,0.0004
951,0.7755398154258728,0.9821039438247681,0.75,0.9038461538461539,0.7857142857142857,0.8571428571428571,0.0004
952,0.5659116953611374,1.0934664011001587,0.8461538461538461,0.9615384615384616,0.7857142857142857,0.7142857142857143,0.0004
953,0.4069925993680954,0.903899073600769,0.8461538461538461,0.9807692307692307,0.7142857142857143,0.8571428571428571,0.0004
954,0.6951837688684464,0.6488959789276123,0.8269230769230769,0.9615384615384616,0.8571428571428571,0.9285714285714286,0.0004
955,0.4911044239997864,1.0377520322799683,0.7692307692307693,0.9807692307692307,0.7142857142857143,0.8571428571428571,0.0004
956,0.614399179816246,1.5800449848175049,0.8076923076923077,0.9230769230769231,0.5714285714285714,0.7857142857142857,0.0004
957,0.527672529220581,2.1825475692749023,0.8653846153846154,0.9423076923076923,0.5,0.8571428571428571,0.0004
958,0.41146333515644073,0.9146142601966858,0.8461538461538461,0.9807692307692307,0.7857142857142857,0.9285714285714286,0.0004
959,0.47810639441013336,1.9282338619232178,0.8846153846153846,0.9615384615384616,0.42857142857142855,0.8571428571428571,0.0004
960,0.8251393139362335,1.3208746910095215,0.75,0.9230769230769231,0.5714285714285714,0.8571428571428571,0.0004
961,0.7884227186441422,1.3507611751556396,0.8269230769230769,0.9423076923076923,0.6428571428571429,0.8571428571428571,0.0004
962,0.4696865528821945,1.3857316970825195,0.8653846153846154,0.9615384615384616,0.7142857142857143,0.9285714285714286,0.0004
963,0.6101543605327606,1.319044589996338,0.8269230769230769,0.9423076923076923,0.7142857142857143,0.8571428571428571,0.0004
964,0.543661430478096,1.0215680599212646,0.8461538461538461,0.9615384615384616,0.7857142857142857,0.9285714285714286,0.0004
965,0.568484753370285,1.1429557800292969,0.8269230769230769,0.9807692307692307,0.7142857142857143,0.8571428571428571,0.0004
966,0.4983644336462021,1.1439094543457031,0.8269230769230769,0.9615384615384616,0.7857142857142857,0.7857142857142857,0.0004
967,0.5171808153390884,0.8514982461929321,0.8269230769230769,0.9615384615384616,0.7857142857142857,0.8571428571428571,0.0004
968,0.516676515340805,1.1096196174621582,0.8076923076923077,0.9807692307692307,0.7857142857142857,0.8571428571428571,0.0004
969,0.7016454637050629,1.1986815929412842,0.7115384615384616,0.9615384615384616,0.7142857142857143,0.9285714285714286,0.0004
970,0.5767658352851868,1.86503005027771,0.7884615384615384,0.9615384615384616,0.6428571428571429,0.7142857142857143,0.0004
971,0.47842344641685486,1.05097234249115,0.8269230769230769,0.9615384615384616,0.7857142857142857,0.8571428571428571,0.0004
972,0.6074208617210388,1.0598618984222412,0.7307692307692307,0.9615384615384616,0.6428571428571429,0.9285714285714286,0.0004
973,0.5619261264801025,1.0813624858856201,0.7307692307692307,0.9615384615384616,0.6428571428571429,0.9285714285714286,0.0004
974,0.4220502972602844,1.2395720481872559,0.8653846153846154,0.9615384615384616,0.7857142857142857,0.8571428571428571,0.0004
975,0.4781784415245056,1.140340805053711,0.8846153846153846,0.9807692307692307,0.6428571428571429,0.9285714285714286,0.0004
976,0.9476366937160492,1.015861988067627,0.6730769230769231,0.9230769230769231,0.7857142857142857,0.9285714285714286,0.0004
977,0.653126060962677,1.1829450130462646,0.8269230769230769,0.9230769230769231,0.7857142857142857,0.8571428571428571,0.0004
978,0.5185736417770386,1.5019257068634033,0.8269230769230769,0.9807692307692307,0.7142857142857143,0.8571428571428571,0.0004
979,0.6878401339054108,1.03103506565094,0.7692307692307693,0.9038461538461539,0.7142857142857143,0.8571428571428571,0.0004
980,0.4780350625514984,1.5777404308319092,0.8269230769230769,0.9423076923076923,0.7142857142857143,0.8571428571428571,0.0004
981,0.7137773334980011,1.3982064723968506,0.75,0.9615384615384616,0.6428571428571429,0.7857142857142857,0.0004
982,0.5669989734888077,1.218774676322937,0.8269230769230769,0.9807692307692307,0.7142857142857143,0.9285714285714286,0.0004
983,0.4338553249835968,1.2660934925079346,0.8461538461538461,1.0,0.5,0.8571428571428571,0.0004
984,0.6282701194286346,2.136988401412964,0.8653846153846154,0.9423076923076923,0.6428571428571429,0.7142857142857143,0.0004
985,0.4993464797735214,1.1025470495224,0.8076923076923077,0.9615384615384616,0.7142857142857143,0.9285714285714286,0.0004
986,0.5870567262172699,1.0096795558929443,0.8269230769230769,0.9423076923076923,0.7142857142857143,0.9285714285714286,0.0004
987,0.667243555188179,1.5960447788238525,0.7115384615384616,0.9615384615384616,0.7857142857142857,0.7142857142857143,0.0004
988,0.6658399999141693,0.848410964012146,0.7692307692307693,0.9423076923076923,0.7142857142857143,0.9285714285714286,0.0004
