epoch,train_loss,val_loss,train_acc_action,train_acc_status,val_acc_action,val_acc_status,learning_rate
1,1.745888888835907,1.633695363998413,0.3076923076923077,0.7115384615384616,0.14285714285714285,0.8571428571428571,0.0004
2,1.7593549489974976,1.8538018465042114,0.25,0.8269230769230769,0.21428571428571427,0.8571428571428571,0.004995066821070679
3,1.7393794059753418,1.5714635848999023,0.36538461538461536,0.8269230769230769,0.35714285714285715,0.8571428571428571,0.004980286753286195
4,1.6188333630561829,1.6029510498046875,0.3076923076923077,0.8269230769230769,0.21428571428571427,0.8571428571428571,0.004955718126821722
5,1.5694302320480347,1.5395845174789429,0.3269230769230769,0.8269230769230769,0.2857142857142857,0.8571428571428571,0.004921457902821578
6,1.571628749370575,1.5230040550231934,0.3269230769230769,0.8269230769230769,0.21428571428571427,0.8571428571428571,0.0048776412907378846
7,1.5683727860450745,1.5159351825714111,0.40384615384615385,0.8269230769230769,0.35714285714285715,0.8571428571428571,0.004824441214720628
8,1.5829122066497803,1.5082268714904785,0.36538461538461536,0.8269230769230769,0.35714285714285715,0.8571428571428571,0.004762067631165049
9,1.5833939909934998,1.523154377937317,0.3269230769230769,0.8269230769230769,0.35714285714285715,0.8571428571428571,0.0046907667001096585
10,1.5838640928268433,1.5733164548873901,0.3269230769230769,0.8269230769230769,0.21428571428571427,0.8571428571428571,0.004610819813755038
11,1.5593547821044922,1.5929343700408936,0.36538461538461536,0.8269230769230769,0.21428571428571427,0.8571428571428571,0.0045225424859373685
12,1.5512081980705261,1.5740950107574463,0.36538461538461536,0.8269230769230769,0.21428571428571427,0.8571428571428571,0.004426283106939473
13,1.5503838658332825,1.545801043510437,0.36538461538461536,0.8269230769230769,0.21428571428571427,0.8571428571428571,0.004322421568553529
14,1.547495186328888,1.531334638595581,0.3076923076923077,0.8269230769230769,0.2857142857142857,0.8571428571428571,0.004211367764821722
15,1.5443934798240662,1.5499424934387207,0.40384615384615385,0.8269230769230769,0.21428571428571427,0.8571428571428571,0.004093559974371724
16,1.5606263875961304,1.6009759902954102,0.36538461538461536,0.8269230769230769,0.21428571428571427,0.8571428571428571,0.003969463130731183
17,1.5128654837608337,1.6069624423980713,0.36538461538461536,0.8269230769230769,0.21428571428571427,0.8571428571428571,0.0038395669874474914
18,1.5269969701766968,1.5836445093154907,0.36538461538461536,0.8269230769230769,0.21428571428571427,0.8571428571428571,0.0037043841852542883
19,1.537501037120819,1.5587472915649414,0.4807692307692308,0.8269230769230769,0.35714285714285715,0.8571428571428571,0.003564448228912682
20,1.508309006690979,1.5773988962173462,0.4230769230769231,0.8269230769230769,0.42857142857142855,0.8571428571428571,0.0034203113817116953
21,1.5985966920852661,1.51455557346344,0.4807692307692308,0.8269230769230769,0.5,0.8571428571428571,0.0032725424859373687
22,1.5140896439552307,1.5112707614898682,0.40384615384615385,0.8269230769230769,0.35714285714285715,0.8571428571428571,0.0031217247179121366
23,1.5175981521606445,1.4532300233840942,0.5,0.8269230769230769,0.5,0.8571428571428571,0.002968453286464312
24,1.50286865234375,1.6466237306594849,0.5384615384615384,0.8269230769230769,0.35714285714285715,0.8571428571428571,0.002813333083910761
25,1.4295739531517029,1.5075318813323975,0.5769230769230769,0.8269230769230769,0.42857142857142855,0.8571428571428571,0.0026569762988232835
26,1.5165711045265198,1.4734795093536377,0.46153846153846156,0.8269230769230769,0.5,0.8571428571428571,0.0025
27,1.5161561369895935,1.675925612449646,0.4230769230769231,0.8269230769230769,0.21428571428571427,0.8571428571428571,0.0023430237011767166
28,1.5924649834632874,1.51259446144104,0.40384615384615385,0.8269230769230769,0.21428571428571427,0.8571428571428571,0.0021866669160892395
29,1.512661099433899,1.4048259258270264,0.40384615384615385,0.8269230769230769,0.5,0.8571428571428571,0.0020315467135356884
30,1.6297850608825684,1.4227721691131592,0.2692307692307692,0.8269230769230769,0.5714285714285714,0.8571428571428571,0.0018782752820878628
31,1.5731549859046936,1.4532015323638916,0.34615384615384615,0.8269230769230769,0.35714285714285715,0.8571428571428571,0.0017274575140626323
32,1.5727177858352661,1.4417598247528076,0.2692307692307692,0.8269230769230769,0.5,0.8571428571428571,0.0015796886182883059
33,1.5383767485618591,1.4812796115875244,0.28846153846153844,0.8269230769230769,0.42857142857142855,0.8571428571428571,0.0014355517710873183
34,1.4794106483459473,1.5045119524002075,0.36538461538461536,0.8269230769230769,0.35714285714285715,0.8571428571428571,0.0012956158147457114
35,1.3991264700889587,1.5467952489852905,0.4423076923076923,0.8269230769230769,0.35714285714285715,0.8571428571428571,0.0011604330125525079
36,1.4752228260040283,1.6099066734313965,0.38461538461538464,0.8269230769230769,0.2857142857142857,0.8571428571428571,0.0010305368692688174
37,1.5649800300598145,1.6687132120132446,0.36538461538461536,0.8269230769230769,0.35714285714285715,0.8571428571428571,0.0009064400256282757
38,1.5539695024490356,1.6657302379608154,0.4230769230769231,0.8269230769230769,0.2857142857142857,0.8571428571428571,0.0007886322351782782
39,1.4590218663215637,1.7547554969787598,0.4230769230769231,0.8269230769230769,0.21428571428571427,0.8571428571428571,0.0006775784314464717
40,1.3793851137161255,1.6488674879074097,0.4230769230769231,0.8269230769230769,0.42857142857142855,0.8571428571428571,0.0005737168930605272
41,1.4057360887527466,1.5544941425323486,0.4807692307692308,0.8269230769230769,0.6428571428571429,0.8571428571428571,0.00047745751406263163
42,1.4250999093055725,1.6169531345367432,0.40384615384615385,0.8269230769230769,0.5,0.8571428571428571,0.00038918018624496285
43,1.4429266452789307,1.4927629232406616,0.4230769230769231,0.8269230769230769,0.35714285714285715,0.8571428571428571,0.00030923329989034103
44,1.5086708068847656,1.561720609664917,0.40384615384615385,0.8269230769230769,0.21428571428571427,0.8571428571428571,0.00023793236883495162
45,1.41816908121109,1.4901448488235474,0.40384615384615385,0.8269230769230769,0.35714285714285715,0.8571428571428571,0.00017555878527937164
46,1.3900182843208313,1.6095399856567383,0.46153846153846156,0.8269230769230769,0.42857142857142855,0.8571428571428571,0.00012235870926211617
47,1.489342451095581,1.5295393466949463,0.4230769230769231,0.8269230769230769,0.2857142857142857,0.8571428571428571,7.854209717842258e-05
48,1.3896527290344238,1.5301783084869385,0.40384615384615385,0.8269230769230769,0.42857142857142855,0.8571428571428571,4.4281873178278196e-05
49,1.3660809397697449,1.5821501016616821,0.46153846153846156,0.8269230769230769,0.42857142857142855,0.8571428571428571,1.9713246713805587e-05
50,1.4120964407920837,1.5229625701904297,0.36538461538461536,0.8269230769230769,0.35714285714285715,0.8571428571428571,4.933178929321102e-06
51,1.5462565422058105,1.545168399810791,0.40384615384615385,0.8269230769230769,0.5714285714285714,0.8571428571428571,0.005
52,1.5368096828460693,1.5545953512191772,0.36538461538461536,0.8269230769230769,0.42857142857142855,0.8571428571428571,0.0049987664009143295
53,1.422611117362976,1.7226237058639526,0.4807692307692308,0.8269230769230769,0.2857142857142857,0.8571428571428571,0.004995066821070679
54,1.5554223656654358,1.7169880867004395,0.5192307692307693,0.8269230769230769,0.35714285714285715,0.8571428571428571,0.0049889049115077
55,1.4660969972610474,1.7247023582458496,0.4230769230769231,0.8461538461538461,0.42857142857142855,0.42857142857142855,0.004980286753286195
56,1.2695490717887878,1.2974282503128052,0.4807692307692308,0.8846153846153846,0.5714285714285714,0.7857142857142857,0.0049692208514878445
57,1.3371515274047852,1.6212728023529053,0.38461538461538464,0.8461538461538461,0.35714285714285715,0.7142857142857143,0.004955718126821722
58,1.2371507287025452,1.5002610683441162,0.5,0.9038461538461539,0.42857142857142855,0.6428571428571429,0.004939791904846869
59,1.4160019159317017,1.5507729053497314,0.4807692307692308,0.8269230769230769,0.5,0.6428571428571429,0.004921457902821578
60,1.4245696663856506,1.5506227016448975,0.46153846153846156,0.8076923076923077,0.35714285714285715,0.7142857142857143,0.004900734214192358
61,1.2996455430984497,1.6919580698013306,0.5384615384615384,0.8269230769230769,0.21428571428571427,0.7857142857142857,0.0048776412907378846
62,1.2623370289802551,1.828908920288086,0.5192307692307693,0.8269230769230769,0.2857142857142857,0.5714285714285714,0.004852201922385564
63,1.2634561657905579,1.5988703966140747,0.5,0.8846153846153846,0.42857142857142855,0.5,0.004824441214720628
64,1.5339040756225586,1.2888718843460083,0.4807692307692308,0.7307692307692307,0.42857142857142855,0.8571428571428571,0.0047943865642099525
65,1.2136322259902954,1.7119767665863037,0.5384615384615384,0.8269230769230769,0.35714285714285715,0.8571428571428571,0.004762067631165049
66,1.3523163795471191,1.494837999343872,0.4423076923076923,0.8269230769230769,0.35714285714285715,0.8571428571428571,0.00472751631047092
67,1.3566305041313171,1.2867882251739502,0.46153846153846156,0.8269230769230769,0.35714285714285715,0.8571428571428571,0.0046907667001096585
68,1.2281692028045654,1.5017824172973633,0.4807692307692308,0.8269230769230769,0.5,0.8571428571428571,0.0046518550675098596
69,1.4589775204658508,1.8125122785568237,0.40384615384615385,0.8269230769230769,0.42857142857142855,0.8571428571428571,0.004610819813755038
70,1.3159799575805664,1.514753818511963,0.4423076923076923,0.8269230769230769,0.2857142857142857,0.8571428571428571,0.004567701435686404
71,1.1427758932113647,1.3646700382232666,0.5384615384615384,0.8269230769230769,0.35714285714285715,0.8571428571428571,0.0045225424859373685
72,1.3848715424537659,1.9824156761169434,0.4230769230769231,0.8269230769230769,0.35714285714285715,0.5714285714285714,0.0044753875309392266
73,1.192747175693512,1.678316354751587,0.5192307692307693,0.9423076923076923,0.21428571428571427,0.7857142857142857,0.004426283106939473
74,1.4950904846191406,1.8704307079315186,0.4230769230769231,0.8653846153846154,0.2857142857142857,0.6428571428571429,0.004375277674076149
75,1.4847807884216309,1.5695323944091797,0.40384615384615385,0.8461538461538461,0.2857142857142857,0.8571428571428571,0.004322421568553529
76,1.5038642287254333,1.7869985103607178,0.4423076923076923,0.8461538461538461,0.2857142857142857,0.7857142857142857,0.004267766952966369
77,1.3273708820343018,1.3379721641540527,0.46153846153846156,0.9038461538461539,0.2857142857142857,0.9285714285714286,0.004211367764821722
78,1.4098410606384277,1.659822702407837,0.46153846153846156,0.9038461538461539,0.35714285714285715,0.6428571428571429,0.00415327966330913
79,1.2334978580474854,1.8817918300628662,0.5,0.9423076923076923,0.14285714285714285,0.7142857142857143,0.004093559974371724
80,1.2538458704948425,1.7013404369354248,0.40384615384615385,0.9230769230769231,0.35714285714285715,0.7857142857142857,0.004032267634132442
81,1.2975654602050781,1.5412222146987915,0.4423076923076923,0.9038461538461539,0.42857142857142855,0.8571428571428571,0.003969463130731183
82,1.3923049569129944,1.5439256429672241,0.46153846153846156,0.9038461538461539,0.42857142857142855,0.8571428571428571,0.003905208444630327
83,1.2807145714759827,1.6537976264953613,0.34615384615384615,0.9038461538461539,0.21428571428571427,0.8571428571428571,0.0038395669874474914
84,1.4100654125213623,1.5312485694885254,0.38461538461538464,0.8653846153846154,0.35714285714285715,0.8571428571428571,0.0037726035393759283
85,1.4549548029899597,1.5432679653167725,0.46153846153846156,0.8653846153846154,0.35714285714285715,0.8571428571428571,0.0037043841852542883
86,1.3627294301986694,2.0040359497070312,0.5,0.9038461538461539,0.2857142857142857,0.8571428571428571,0.003634976249348867
87,1.3868746757507324,1.556746482849121,0.4423076923076923,0.9038461538461539,0.2857142857142857,0.8571428571428571,0.003564448228912682
88,1.4609850645065308,1.809992790222168,0.4230769230769231,0.8461538461538461,0.2857142857142857,0.8571428571428571,0.003492869726586951
89,1.3890925645828247,1.7583063840866089,0.4807692307692308,0.8653846153846154,0.35714285714285715,0.7857142857142857,0.0034203113817116953
90,1.4469952583312988,1.9133644104003906,0.4230769230769231,0.8076923076923077,0.2857142857142857,0.7857142857142857,0.0033468448006132292
91,1.6102509498596191,1.4381248950958252,0.38461538461538464,0.7884615384615384,0.2857142857142857,0.9285714285714286,0.0032725424859373687
92,1.5249817371368408,1.7230385541915894,0.36538461538461536,0.8461538461538461,0.21428571428571427,0.8571428571428571,0.0031974777650980737
93,1.40059095621109,1.31899094581604,0.4807692307692308,0.8653846153846154,0.2857142857142857,0.9285714285714286,0.0031217247179121366
94,1.3082968592643738,1.6823068857192993,0.40384615384615385,0.8846153846153846,0.5,0.7857142857142857,0.0030453581034913567
95,1.3899551630020142,1.6192371845245361,0.3269230769230769,0.8653846153846154,0.2857142857142857,0.8571428571428571,0.002968453286464312
96,1.3550026416778564,1.6923004388809204,0.4423076923076923,0.8846153846153846,0.42857142857142855,0.7857142857142857,0.0028910861626005773
97,1.384279489517212,1.4230232238769531,0.38461538461538464,0.8461538461538461,0.35714285714285715,0.9285714285714286,0.002813333083910761
98,1.469891607761383,1.329535722732544,0.4423076923076923,0.8653846153846154,0.2857142857142857,0.9285714285714286,0.002735270783296286
99,1.2451227903366089,1.7178070545196533,0.5576923076923077,0.9230769230769231,0.2857142857142857,0.8571428571428571,0.0026569762988232835
100,1.3648029565811157,1.3445632457733154,0.5192307692307693,0.8846153846153846,0.2857142857142857,0.9285714285714286,0.0025785268976953207
101,1.5176080465316772,1.4195553064346313,0.40384615384615385,0.8269230769230769,0.21428571428571427,0.8571428571428571,0.0025
102,1.1246687769889832,2.0234241485595703,0.5192307692307693,0.9423076923076923,0.21428571428571427,0.7857142857142857,0.0024214731023046794
103,1.0665335059165955,1.6011381149291992,0.5192307692307693,0.9615384615384616,0.21428571428571427,0.8571428571428571,0.0023430237011767166
104,1.0180042386054993,1.821730136871338,0.5192307692307693,0.9615384615384616,0.21428571428571427,0.7857142857142857,0.002264729216703714
105,1.3249595761299133,1.3327460289001465,0.4423076923076923,0.8846153846153846,0.2857142857142857,0.9285714285714286,0.0021866669160892395
106,1.3800086379051208,1.2661241292953491,0.4230769230769231,0.8846153846153846,0.2857142857142857,0.9285714285714286,0.002108913837399423
107,1.4332505464553833,1.4549942016601562,0.46153846153846156,0.8846153846153846,0.5714285714285714,0.8571428571428571,0.0020315467135356884
108,1.4421956539154053,1.9188244342803955,0.38461538461538464,0.8461538461538461,0.35714285714285715,0.7857142857142857,0.0019546418965086442
109,1.3194580674171448,2.0341203212738037,0.4230769230769231,0.9038461538461539,0.42857142857142855,0.7857142857142857,0.0018782752820878628
110,1.4305719137191772,1.3707953691482544,0.46153846153846156,0.8653846153846154,0.5,0.9285714285714286,0.001802522234901927
111,1.4659073948860168,1.6253890991210938,0.46153846153846156,0.8653846153846154,0.5,0.8571428571428571,0.0017274575140626323
112,1.204677939414978,1.2975064516067505,0.5384615384615384,0.9038461538461539,0.5714285714285714,0.9285714285714286,0.0016531551993867715
113,1.3121225833892822,1.597954273223877,0.5,0.8846153846153846,0.42857142857142855,0.8571428571428571,0.0015796886182883059
114,1.2038520574569702,1.8768264055252075,0.5576923076923077,0.9230769230769231,0.42857142857142855,0.7142857142857143,0.0015071302734130482
115,1.0742803812026978,1.6991630792617798,0.6538461538461539,0.9807692307692307,0.2857142857142857,0.7857142857142857,0.0014355517710873183
116,1.435668170452118,1.6633341312408447,0.4423076923076923,0.8653846153846154,0.35714285714285715,0.7142857142857143,0.0013650237506511332
117,1.2653805613517761,1.6276960372924805,0.46153846153846156,0.9038461538461539,0.21428571428571427,0.8571428571428571,0.0012956158147457114
118,1.3125503659248352,1.6051565408706665,0.40384615384615385,0.9230769230769231,0.14285714285714285,0.7857142857142857,0.0012273964606240718
119,1.200694501399994,1.6961033344268799,0.4807692307692308,0.9230769230769231,0.35714285714285715,0.6428571428571429,0.0011604330125525079
120,1.3776805400848389,1.5035053491592407,0.4423076923076923,0.8461538461538461,0.2857142857142857,0.8571428571428571,0.0010947915553696733
121,1.2835037112236023,1.7191574573516846,0.4423076923076923,0.8846153846153846,0.21428571428571427,0.7857142857142857,0.0010305368692688174
122,1.3334989547729492,1.5758390426635742,0.4423076923076923,0.8653846153846154,0.2857142857142857,0.8571428571428571,0.0009677323658675585
123,1.2637656331062317,1.9428884983062744,0.46153846153846156,0.9230769230769231,0.21428571428571427,0.7142857142857143,0.0009064400256282757
124,1.250409722328186,1.6881537437438965,0.4807692307692308,0.9230769230769231,0.21428571428571427,0.8571428571428571,0.0008467203366908707
125,1.3796479105949402,1.3837919235229492,0.46153846153846156,0.9038461538461539,0.2857142857142857,0.9285714285714286,0.0007886322351782782
126,1.2487468719482422,1.3552958965301514,0.5,0.9230769230769231,0.2857142857142857,0.9285714285714286,0.0007322330470336313
127,1.3969886302947998,1.5374120473861694,0.4423076923076923,0.8846153846153846,0.2857142857142857,0.8571428571428571,0.0006775784314464717
128,1.3318541049957275,1.5170902013778687,0.4807692307692308,0.9038461538461539,0.2857142857142857,0.8571428571428571,0.0006247223259238514
129,1.234980285167694,1.7917444705963135,0.4423076923076923,0.9230769230769231,0.21428571428571427,0.7857142857142857,0.0005737168930605272
130,1.3986570835113525,1.9328761100769043,0.46153846153846156,0.8846153846153846,0.21428571428571427,0.7142857142857143,0.000524612469060774
131,1.3716555833816528,1.5228363275527954,0.46153846153846156,0.8846153846153846,0.21428571428571427,0.8571428571428571,0.00047745751406263163
132,1.2921790480613708,1.5503650903701782,0.4423076923076923,0.9230769230769231,0.2857142857142857,0.8571428571428571,0.000432298564313596
133,1.2666106224060059,1.4112374782562256,0.46153846153846156,0.9230769230769231,0.2857142857142857,0.9285714285714286,0.00038918018624496285
134,1.4870440363883972,1.590103268623352,0.4423076923076923,0.8653846153846154,0.21428571428571427,0.8571428571428571,0.0003481449324901406
135,1.3594072461128235,1.6428742408752441,0.5,0.9038461538461539,0.2857142857142857,0.7857142857142857,0.00030923329989034103
136,1.1740766167640686,1.3969396352767944,0.4423076923076923,0.9423076923076923,0.5,0.8571428571428571,0.00027248368952908055
137,1.3363847732543945,1.7720550298690796,0.4230769230769231,0.8846153846153846,0.42857142857142855,0.7857142857142857,0.00023793236883495162
138,1.2861993908882141,1.3362727165222168,0.5192307692307693,0.9230769230769231,0.5,0.8571428571428571,0.0002056134357900477
139,1.4001702070236206,1.6225662231445312,0.38461538461538464,0.8653846153846154,0.2857142857142857,0.8571428571428571,0.00017555878527937164
140,1.4302552938461304,1.364985466003418,0.40384615384615385,0.8461538461538461,0.42857142857142855,0.9285714285714286,0.00014779807761443637
141,1.1589446663856506,1.3542137145996094,0.5384615384615384,0.9423076923076923,0.42857142857142855,0.9285714285714286,0.00012235870926211617
142,1.3347066640853882,1.2994120121002197,0.40384615384615385,0.9038461538461539,0.35714285714285715,0.9285714285714286,9.926578580764262e-05
143,1.2997830510139465,1.3339238166809082,0.40384615384615385,0.9038461538461539,0.35714285714285715,0.9285714285714286,7.854209717842258e-05
144,1.3365075588226318,1.6715307235717773,0.40384615384615385,0.9038461538461539,0.5,0.8571428571428571,6.0208095153131695e-05
145,1.3394556641578674,1.5489219427108765,0.34615384615384615,0.9230769230769231,0.21428571428571427,0.8571428571428571,4.4281873178278196e-05
146,1.3380868434906006,1.4925007820129395,0.4230769230769231,0.9038461538461539,0.42857142857142855,0.8571428571428571,3.077914851215585e-05
147,1.1589753031730652,1.8027622699737549,0.4423076923076923,0.9615384615384616,0.21428571428571427,0.7857142857142857,1.9713246713805587e-05
148,1.242137610912323,1.5044721364974976,0.4230769230769231,0.9038461538461539,0.35714285714285715,0.8571428571428571,1.109508849230001e-05
149,1.2218471765518188,1.3132097721099854,0.4807692307692308,0.9230769230769231,0.42857142857142855,0.9285714285714286,4.933178929321102e-06
150,1.1759793758392334,1.4760750532150269,0.5,0.9230769230769231,0.35714285714285715,0.8571428571428571,1.233599085671e-06
151,1.4524649381637573,2.0167553424835205,0.34615384615384615,0.8461538461538461,0.14285714285714285,0.7142857142857143,0.005
152,1.2820002436637878,1.69355309009552,0.46153846153846156,0.9230769230769231,0.2857142857142857,0.8571428571428571,0.004999691581204151
153,1.2046218514442444,1.5375219583511353,0.5192307692307693,0.9230769230769231,0.5,0.8571428571428571,0.0049987664009143295
154,1.3403156995773315,1.7451772689819336,0.40384615384615385,0.9230769230769231,0.35714285714285715,0.8571428571428571,0.004997224687404925
155,1.2670948505401611,1.3720651865005493,0.4423076923076923,0.9230769230769231,0.2857142857142857,0.9285714285714286,0.004995066821070679
156,1.2311859726905823,1.4333535432815552,0.46153846153846156,0.9230769230769231,0.2857142857142857,0.9285714285714286,0.00499229333433282
157,1.39974045753479,1.7963855266571045,0.4423076923076923,0.9038461538461539,0.21428571428571427,0.8571428571428571,0.0049889049115077
158,1.2118659615516663,1.3363583087921143,0.4807692307692308,0.9423076923076923,0.2857142857142857,0.9285714285714286,0.004984902388637949
159,1.3778825998306274,1.9199175834655762,0.46153846153846156,0.9038461538461539,0.2857142857142857,0.7142857142857143,0.004980286753286195
160,1.549871027469635,2.1733551025390625,0.4230769230769231,0.8461538461538461,0.2857142857142857,0.6428571428571429,0.004975059144291394
161,1.4903540015220642,1.5412261486053467,0.3269230769230769,0.8461538461538461,0.5,0.7857142857142857,0.0049692208514878445
162,1.4076022505760193,1.6957648992538452,0.4230769230769231,0.8846153846153846,0.6428571428571429,0.6428571428571429,0.004962773315386935
163,1.4690021872520447,1.4448721408843994,0.5,0.8076923076923077,0.7142857142857143,0.7142857142857143,0.004955718126821722
164,1.2988781929016113,1.612209677696228,0.38461538461538464,0.9038461538461539,0.35714285714285715,0.6428571428571429,0.0049480570265544145
165,1.3569099307060242,1.6977343559265137,0.5,0.8269230769230769,0.42857142857142855,0.5,0.004939791904846869
166,1.3218392133712769,1.5828921794891357,0.5192307692307693,0.9038461538461539,0.5,0.5714285714285714,0.004930924800994192
167,1.2301033735275269,2.0754928588867188,0.5,0.9423076923076923,0.21428571428571427,0.5714285714285714,0.004921457902821578
168,1.5857884287834167,1.9262806177139282,0.4230769230769231,0.8269230769230769,0.21428571428571427,0.7857142857142857,0.004911393546144495
169,1.3266552686691284,1.3956677913665771,0.4423076923076923,0.8653846153846154,0.35714285714285715,0.8571428571428571,0.004900734214192358
170,1.5269099473953247,1.7056548595428467,0.4423076923076923,0.8269230769230769,0.35714285714285715,0.8571428571428571,0.004889482536995825
171,1.4190347790718079,1.2353699207305908,0.5192307692307693,0.8269230769230769,0.7142857142857143,0.8571428571428571,0.0048776412907378846
172,1.4518887400627136,1.504976749420166,0.40384615384615385,0.8269230769230769,0.5,0.8571428571428571,0.004865213397068863
173,1.3350038528442383,1.4538518190383911,0.4807692307692308,0.8269230769230769,0.5,0.8571428571428571,0.004852201922385564
174,1.2367498874664307,1.598763108253479,0.4423076923076923,0.8269230769230769,0.5,0.8571428571428571,0.004838610077074669
175,1.4880832433700562,1.4279117584228516,0.34615384615384615,0.8269230769230769,0.35714285714285715,0.8571428571428571,0.004824441214720628
176,1.4277172684669495,1.8647775650024414,0.5,0.8269230769230769,0.2857142857142857,0.8571428571428571,0.004809698831278217
177,1.4742399454116821,1.647275686264038,0.4230769230769231,0.8269230769230769,0.35714285714285715,0.8571428571428571,0.0047943865642099525
178,1.4295619130134583,1.8133785724639893,0.40384615384615385,0.8269230769230769,0.2857142857142857,0.8571428571428571,0.004778508191588613
179,1.4163672924041748,1.5321691036224365,0.4807692307692308,0.8269230769230769,0.35714285714285715,0.7857142857142857,0.004762067631165049
180,1.5753260254859924,1.5526329278945923,0.4423076923076923,0.8846153846153846,0.35714285714285715,0.6428571428571429,0.004745068939401539
181,1.3909399509429932,1.8297004699707031,0.4807692307692308,0.8461538461538461,0.2857142857142857,0.5714285714285714,0.00472751631047092
182,1.4592334628105164,1.841398000717163,0.4807692307692308,0.8269230769230769,0.2857142857142857,0.42857142857142855,0.004709414075221734
183,1.4225292801856995,1.6505564451217651,0.4230769230769231,0.8846153846153846,0.2857142857142857,0.6428571428571429,0.0046907667001096585
184,1.3748644590377808,1.5751845836639404,0.4807692307692308,0.9038461538461539,0.2857142857142857,0.8571428571428571,0.004671578786095479
185,1.350145697593689,1.527080774307251,0.4807692307692308,0.9038461538461539,0.42857142857142855,0.7142857142857143,0.0046518550675098596
186,1.3254649639129639,1.7963192462921143,0.5,0.8846153846153846,0.21428571428571427,0.6428571428571429,0.004631600410885231
187,1.168063223361969,1.5798447132110596,0.5769230769230769,0.9423076923076923,0.2857142857142857,0.7142857142857143,0.004610819813755038
188,1.466113567352295,1.69465970993042,0.4423076923076923,0.8269230769230769,0.2857142857142857,0.5,0.004589518403420676
189,1.4570048451423645,1.637199878692627,0.4423076923076923,0.8653846153846154,0.35714285714285715,0.5714285714285714,0.004567701435686404
190,1.2857056260108948,1.6720304489135742,0.5576923076923077,0.9038461538461539,0.35714285714285715,0.6428571428571429,0.004545374293562558
191,1.362351655960083,1.7177612781524658,0.5384615384615384,0.8653846153846154,0.2857142857142857,0.7142857142857143,0.0045225424859373685
192,1.1711795926094055,1.9027624130249023,0.5961538461538461,0.9423076923076923,0.2857142857142857,0.5714285714285714,0.004499211646217727
193,1.3336732387542725,1.525671124458313,0.5769230769230769,0.8846153846153846,0.42857142857142855,0.7142857142857143,0.0044753875309392266
194,1.3173224925994873,2.1586153507232666,0.5,0.8653846153846154,0.35714285714285715,0.42857142857142855,0.004451076018345824
195,1.4023030996322632,2.350477695465088,0.4807692307692308,0.8653846153846154,0.35714285714285715,0.35714285714285715,0.004426283106939473
196,1.3755136132240295,2.182084083557129,0.5384615384615384,0.8653846153846154,0.35714285714285715,0.42857142857142855,0.004401014914000078
197,1.33384370803833,2.6037845611572266,0.5,0.9038461538461539,0.2857142857142857,0.35714285714285715,0.004375277674076149
198,1.4362847805023193,2.1579947471618652,0.4807692307692308,0.8653846153846154,0.35714285714285715,0.42857142857142855,0.004349077737446524
199,1.3206158876419067,1.974808931350708,0.4230769230769231,0.9038461538461539,0.42857142857142855,0.42857142857142855,0.004322421568553529
200,1.141774594783783,1.7893216609954834,0.4423076923076923,0.9615384615384616,0.42857142857142855,0.5714285714285714,0.004295315744407973
201,1.4485422372817993,2.123891830444336,0.38461538461538464,0.9038461538461539,0.42857142857142855,0.5,0.004267766952966369
202,1.5822668671607971,2.508401870727539,0.38461538461538464,0.8269230769230769,0.35714285714285715,0.35714285714285715,0.004239781991480785
203,1.4963620901107788,1.794288158416748,0.34615384615384615,0.8461538461538461,0.35714285714285715,0.6428571428571429,0.004211367764821722
204,1.4271228313446045,1.8301372528076172,0.3269230769230769,0.8653846153846154,0.35714285714285715,0.6428571428571429,0.004182531283774433
205,1.387639045715332,1.8698055744171143,0.34615384615384615,0.8846153846153846,0.42857142857142855,0.5714285714285714,0.00415327966330913
206,1.3958776593208313,1.9020599126815796,0.4807692307692308,0.8653846153846154,0.42857142857142855,0.5714285714285714,0.00412362012082546
207,1.2143786549568176,1.8552218675613403,0.5384615384615384,0.9423076923076923,0.42857142857142855,0.6428571428571429,0.004093559974371724
208,1.5313720703125,2.1238436698913574,0.38461538461538464,0.8461538461538461,0.35714285714285715,0.5,0.004063106640839263
209,1.272694170475006,1.8247578144073486,0.4423076923076923,0.9038461538461539,0.35714285714285715,0.6428571428571429,0.004032267634132442
210,1.5092675685882568,2.2986831665039062,0.4230769230769231,0.8461538461538461,0.35714285714285715,0.42857142857142855,0.004001050563314711
211,1.401777744293213,2.6098177433013916,0.4230769230769231,0.8653846153846154,0.14285714285714285,0.5,0.003969463130731183
212,1.331678032875061,2.0457828044891357,0.4423076923076923,0.9038461538461539,0.35714285714285715,0.5,0.003937513130108197
213,1.4479336738586426,1.5039904117584229,0.38461538461538464,0.8653846153846154,0.5714285714285714,0.7142857142857143,0.003905208444630327
214,1.2188969254493713,1.6001983880996704,0.4423076923076923,0.9423076923076923,0.42857142857142855,0.7857142857142857,0.0038725570449953295
215,1.4335432648658752,2.038132667541504,0.36538461538461536,0.8653846153846154,0.35714285714285715,0.5714285714285714,0.0038395669874474914
216,1.386753499507904,2.2903146743774414,0.4230769230769231,0.8653846153846154,0.5,0.5,0.0038062464117898723
217,1.4442844986915588,1.7661243677139282,0.4807692307692308,0.8076923076923077,0.6428571428571429,0.6428571428571429,0.0037726035393759283
218,1.3660647869110107,1.8607820272445679,0.46153846153846156,0.8846153846153846,0.5714285714285714,0.6428571428571429,0.003738646671081019
219,1.3883749842643738,2.059389591217041,0.4230769230769231,0.8269230769230769,0.2857142857142857,0.5714285714285714,0.0037043841852542883
220,1.3245285153388977,2.146822452545166,0.5192307692307693,0.8846153846153846,0.42857142857142855,0.5714285714285714,0.0036698245356514337
221,1.3532675504684448,2.1087303161621094,0.5192307692307693,0.8269230769230769,0.5,0.5714285714285714,0.003634976249348867
222,1.4567285180091858,2.035341501235962,0.40384615384615385,0.8653846153846154,0.35714285714285715,0.5714285714285714,0.0035998479246397877
223,1.2563908696174622,1.4209558963775635,0.4807692307692308,0.9230769230769231,0.42857142857142855,0.7857142857142857,0.003564448228912682
224,1.0877633094787598,1.7800973653793335,0.5384615384615384,0.9423076923076923,0.5,0.7142857142857143,0.0035287858965127724
225,1.2116695642471313,2.0728278160095215,0.46153846153846156,0.9230769230769231,0.35714285714285715,0.5714285714285714,0.003492869726586951
226,1.2175200581550598,2.5677309036254883,0.4230769230769231,0.9423076923076923,0.42857142857142855,0.5,0.003456708580912725
227,1.1814395189285278,2.162053346633911,0.46153846153846156,0.9038461538461539,0.35714285714285715,0.5714285714285714,0.0034203113817116953
228,1.111856460571289,2.4139609336853027,0.5,0.9230769230769231,0.42857142857142855,0.5714285714285714,0.003383687109448143
229,1.166517972946167,3.04831862449646,0.4423076923076923,0.9615384615384616,0.5,0.42857142857142855,0.0033468448006132292
230,1.19739431142807,2.4448442459106445,0.5,0.9423076923076923,0.42857142857142855,0.5714285714285714,0.003309793545495374
231,1.5478792786598206,1.7664639949798584,0.4423076923076923,0.8461538461538461,0.42857142857142855,0.6428571428571429,0.0032725424859373687
232,1.3837182521820068,2.2155954837799072,0.40384615384615385,0.8846153846153846,0.42857142857142855,0.6428571428571429,0.00323510081308076
233,1.1595587730407715,2.895193099975586,0.46153846153846156,0.9230769230769231,0.35714285714285715,0.5,0.0031974777650980737
234,1.2042306065559387,2.0329558849334717,0.5,0.9038461538461539,0.42857142857142855,0.6428571428571429,0.003159682624913432
235,1.2914678454399109,2.452913284301758,0.4230769230769231,0.8846153846153846,0.21428571428571427,0.5714285714285714,0.0031217247179121366
236,1.3661543130874634,2.2744083404541016,0.4807692307692308,0.8846153846153846,0.42857142857142855,0.5,0.0030836134096397638
237,1.35222989320755,1.6901558637619019,0.4230769230769231,0.8461538461538461,0.5,0.7142857142857143,0.0030453581034913567
238,1.3603888154029846,2.475494861602783,0.4423076923076923,0.9230769230769231,0.42857142857142855,0.5,0.0030069682383912816
239,1.4315970540046692,2.222257614135742,0.46153846153846156,0.8461538461538461,0.2857142857142857,0.6428571428571429,0.002968453286464312
240,1.06614750623703,1.0603489875793457,0.5961538461538461,0.9423076923076923,0.42857142857142855,0.8571428571428571,0.0029298227506985236
241,1.3962393999099731,2.02099609375,0.4807692307692308,0.8653846153846154,0.2857142857142857,0.7142857142857143,0.0028910861626005773
242,1.3857638835906982,1.9866175651550293,0.4807692307692308,0.8653846153846154,0.35714285714285715,0.6428571428571429,0.0028522530798439573
243,1.1834198832511902,1.9112217426300049,0.5192307692307693,0.8846153846153846,0.35714285714285715,0.7142857142857143,0.002813333083910761
244,1.2971488237380981,2.6066951751708984,0.5,0.9230769230769231,0.35714285714285715,0.42857142857142855,0.0027743357777276134
245,1.2036974430084229,1.8102892637252808,0.5576923076923077,0.9038461538461539,0.2857142857142857,0.7142857142857143,0.002735270783296286
246,1.304262101650238,1.627798318862915,0.4423076923076923,0.8269230769230769,0.42857142857142855,0.7142857142857143,0.0026961477393196128
247,1.4029563665390015,1.6298341751098633,0.4230769230769231,0.8461538461538461,0.5,0.7142857142857143,0.0026569762988232835
248,1.4682600498199463,1.3782323598861694,0.38461538461538464,0.8653846153846154,0.42857142857142855,0.7142857142857143,0.0026177661267741065
249,1.3366737961769104,1.7235772609710693,0.4230769230769231,0.9038461538461539,0.42857142857142855,0.7142857142857143,0.0025785268976953207
250,1.1164263486862183,1.9751050472259521,0.5384615384615384,0.9038461538461539,0.5,0.6428571428571429,0.002539268293279552
251,1.1253778338432312,1.9455485343933105,0.5,0.9615384615384616,0.35714285714285715,0.5714285714285714,0.0025
252,1.25054132938385,2.4050984382629395,0.5192307692307693,0.9230769230769231,0.35714285714285715,0.5,0.002460731706720449
253,1.0858047604560852,2.2218692302703857,0.4807692307692308,0.9615384615384616,0.2857142857142857,0.5714285714285714,0.0024214731023046794
254,1.2889119982719421,2.1954450607299805,0.40384615384615385,0.9230769230769231,0.35714285714285715,0.6428571428571429,0.0023822338732258936
255,1.6069912314414978,2.1380527019500732,0.40384615384615385,0.8269230769230769,0.2857142857142857,0.6428571428571429,0.0023430237011767166
256,1.1827794313430786,2.644700527191162,0.5769230769230769,0.9038461538461539,0.35714285714285715,0.42857142857142855,0.002303852260680388
257,1.376474380493164,1.836154580116272,0.5576923076923077,0.8461538461538461,0.2857142857142857,0.6428571428571429,0.002264729216703714
258,1.399800181388855,2.2701468467712402,0.5,0.8461538461538461,0.5,0.5714285714285714,0.0022256642222723867
259,1.1158354878425598,1.4451589584350586,0.5,0.9615384615384616,0.5,0.7857142857142857,0.0021866669160892395
260,1.3619884252548218,2.0164732933044434,0.4230769230769231,0.9038461538461539,0.42857142857142855,0.7142857142857143,0.002147746920156044
261,1.3695276975631714,1.5348520278930664,0.4423076923076923,0.8653846153846154,0.42857142857142855,0.7857142857142857,0.002108913837399423
262,1.1749488711357117,2.321873426437378,0.5192307692307693,0.8846153846153846,0.35714285714285715,0.5714285714285714,0.002070177249301476
263,1.1633532643318176,2.0026957988739014,0.4807692307692308,0.9230769230769231,0.5,0.5714285714285714,0.0020315467135356884
264,1.222278356552124,1.9070955514907837,0.5384615384615384,0.9423076923076923,0.2857142857142857,0.7142857142857143,0.001993031761608719
265,1.2369030714035034,1.5705921649932861,0.4807692307692308,0.9230769230769231,0.42857142857142855,0.8571428571428571,0.0019546418965086442
266,1.318347454071045,1.826969027519226,0.4807692307692308,0.9038461538461539,0.2857142857142857,0.7142857142857143,0.0019163865903602361
267,1.1470943689346313,1.8468806743621826,0.5,0.9423076923076923,0.42857142857142855,0.6428571428571429,0.0018782752820878628
268,1.2887141704559326,1.616206407546997,0.5576923076923077,0.9230769230769231,0.42857142857142855,0.6428571428571429,0.0018403173750865679
269,1.2103806138038635,1.9455022811889648,0.5769230769230769,0.9038461538461539,0.2857142857142857,0.6428571428571429,0.001802522234901927
270,1.2047205567359924,2.171567916870117,0.5384615384615384,0.9423076923076923,0.2857142857142857,0.7142857142857143,0.0017648991869192404
271,1.1310675144195557,1.3931291103363037,0.5192307692307693,0.9423076923076923,0.5,0.7857142857142857,0.0017274575140626323
272,1.324368178844452,1.9598591327667236,0.5192307692307693,0.8846153846153846,0.5,0.5714285714285714,0.0016902064545046263
273,1.047283560037613,1.6806039810180664,0.5576923076923077,0.9423076923076923,0.35714285714285715,0.7857142857142857,0.0016531551993867715
274,1.5423793196678162,1.6293871402740479,0.4423076923076923,0.8269230769230769,0.42857142857142855,0.7857142857142857,0.0016163128905518577
275,1.3157483339309692,2.5647449493408203,0.46153846153846156,0.9038461538461539,0.21428571428571427,0.5714285714285714,0.0015796886182883059
276,1.4998090863227844,1.701373815536499,0.5,0.8269230769230769,0.35714285714285715,0.7142857142857143,0.0015432914190872762
277,1.2716827392578125,2.4101109504699707,0.46153846153846156,0.9230769230769231,0.2857142857142857,0.5,0.0015071302734130482
278,1.5332655310630798,1.4977092742919922,0.5384615384615384,0.8076923076923077,0.5,0.7142857142857143,0.001471214103487228
279,1.441577434539795,1.6885340213775635,0.4230769230769231,0.8653846153846154,0.5,0.7142857142857143,0.0014355517710873183
280,1.3322134017944336,1.5974318981170654,0.5,0.8653846153846154,0.42857142857142855,0.7142857142857143,0.001400152075360212
281,1.1574819087982178,2.104322910308838,0.4807692307692308,0.9230769230769231,0.21428571428571427,0.6428571428571429,0.0013650237506511332
282,1.190517246723175,1.2514568567276,0.5576923076923077,0.9423076923076923,0.5,0.9285714285714286,0.001330175464348567
283,1.247672438621521,1.450819492340088,0.5769230769230769,0.9038461538461539,0.5,0.7142857142857143,0.0012956158147457114
284,1.339711308479309,1.5108187198638916,0.5192307692307693,0.9038461538461539,0.2857142857142857,0.7142857142857143,0.001261353328918981
285,1.3229283690452576,1.9338011741638184,0.46153846153846156,0.9038461538461539,0.2857142857142857,0.5714285714285714,0.0012273964606240718
286,1.263836145401001,1.8070937395095825,0.5192307692307693,0.9230769230769231,0.5,0.6428571428571429,0.001193753588210128
287,1.3191573023796082,1.3909380435943604,0.5769230769230769,0.9230769230769231,0.5,0.7857142857142857,0.0011604330125525079
288,1.3018490672111511,1.5086658000946045,0.46153846153846156,0.9230769230769231,0.2857142857142857,0.7142857142857143,0.0011274429550046702
289,1.217607021331787,1.4006829261779785,0.5576923076923077,0.9230769230769231,0.42857142857142855,0.7857142857142857,0.0010947915553696733
290,1.1477171778678894,1.5893758535385132,0.6346153846153846,0.9615384615384616,0.42857142857142855,0.7857142857142857,0.0010624868698918036
291,1.2786386013031006,1.4197282791137695,0.38461538461538464,0.9423076923076923,0.42857142857142855,0.7857142857142857,0.0010305368692688174
292,1.155574083328247,1.6245813369750977,0.5769230769230769,0.9230769230769231,0.42857142857142855,0.7142857142857143,0.0009989494366852902
293,1.0813433527946472,1.8550183773040771,0.5576923076923077,0.9423076923076923,0.35714285714285715,0.6428571428571429,0.0009677323658675585
294,1.1623234748840332,1.970656394958496,0.46153846153846156,0.9423076923076923,0.42857142857142855,0.5714285714285714,0.000936893359160737
295,1.2880238890647888,1.3716710805892944,0.46153846153846156,0.8653846153846154,0.5,0.7857142857142857,0.0009064400256282757
296,1.2425530552864075,1.753759741783142,0.4423076923076923,0.9230769230769231,0.35714285714285715,0.6428571428571429,0.0008763798791745412
297,1.467667281627655,1.6411421298980713,0.5,0.8269230769230769,0.2857142857142857,0.7142857142857143,0.0008467203366908707
298,1.2925951480865479,1.7593114376068115,0.5384615384615384,0.8653846153846154,0.35714285714285715,0.5714285714285714,0.0008174687162255665
299,1.309785008430481,1.7011607885360718,0.5961538461538461,0.8846153846153846,0.2857142857142857,0.7142857142857143,0.0007886322351782782
300,1.2762094736099243,1.6722168922424316,0.5192307692307693,0.8846153846153846,0.35714285714285715,0.6428571428571429,0.0007602180085192142
301,1.2579862475395203,1.4684650897979736,0.5,0.9230769230769231,0.2857142857142857,0.7857142857142857,0.0007322330470336313
302,1.203816831111908,2.0016024112701416,0.46153846153846156,0.9423076923076923,0.21428571428571427,0.6428571428571429,0.0007046842555920282
303,1.1594550013542175,1.8190138339996338,0.5576923076923077,0.9423076923076923,0.42857142857142855,0.5714285714285714,0.0006775784314464717
304,1.208223819732666,1.3158358335494995,0.5192307692307693,0.9230769230769231,0.42857142857142855,0.7857142857142857,0.0006509222625534758
305,1.2197399139404297,1.6124473810195923,0.5192307692307693,0.9230769230769231,0.5714285714285714,0.6428571428571429,0.0006247223259238514
306,1.3420680165290833,1.701153039932251,0.5,0.9038461538461539,0.35714285714285715,0.7142857142857143,0.0005989850859999227
307,1.2165210843086243,1.365074634552002,0.5192307692307693,0.9230769230769231,0.42857142857142855,0.7857142857142857,0.0005737168930605272
308,1.237833321094513,1.8771088123321533,0.5384615384615384,0.9038461538461539,0.42857142857142855,0.5,0.000548923981654176
309,1.0990050435066223,1.583736538887024,0.5384615384615384,0.9423076923076923,0.35714285714285715,0.7142857142857143,0.000524612469060774
310,1.1443995237350464,1.5987439155578613,0.5192307692307693,0.9038461538461539,0.2857142857142857,0.7142857142857143,0.0005007883537822738
311,1.3628997206687927,1.0115718841552734,0.5192307692307693,0.8846153846153846,0.5714285714285714,0.9285714285714286,0.00047745751406263163
312,1.2252002358436584,1.283519983291626,0.5,0.9038461538461539,0.35714285714285715,0.9285714285714286,0.00045462570643744175
313,1.062022179365158,1.5452933311462402,0.5961538461538461,0.9615384615384616,0.42857142857142855,0.7142857142857143,0.000432298564313596
314,1.091129183769226,2.1401689052581787,0.4807692307692308,0.9807692307692307,0.35714285714285715,0.5714285714285714,0.00041048159657932487
315,1.1855095028877258,1.8467320203781128,0.5384615384615384,0.9423076923076923,0.2857142857142857,0.7142857142857143,0.00038918018624496285
316,1.118791103363037,1.7804572582244873,0.5961538461538461,0.9230769230769231,0.42857142857142855,0.7142857142857143,0.00036839958911477014
317,1.3358494639396667,2.115499973297119,0.46153846153846156,0.8653846153846154,0.2857142857142857,0.5,0.0003481449324901406
318,1.177270233631134,1.967378854751587,0.4807692307692308,0.9615384615384616,0.2857142857142857,0.5714285714285714,0.0003284212139045217
319,1.2963216304779053,1.6627626419067383,0.4230769230769231,0.8846153846153846,0.42857142857142855,0.7142857142857143,0.00030923329989034103
320,1.1848424077033997,1.8782340288162231,0.4230769230769231,0.9423076923076923,0.35714285714285715,0.6428571428571429,0.00029058592477826633
321,1.0650658905506134,1.5220036506652832,0.5769230769230769,0.9423076923076923,0.35714285714285715,0.7142857142857143,0.00027248368952908055
322,1.2007270455360413,1.5989179611206055,0.5576923076923077,0.8846153846153846,0.42857142857142855,0.7142857142857143,0.00025493106059846116
323,1.3271974325180054,2.047330856323242,0.4807692307692308,0.9038461538461539,0.21428571428571427,0.7142857142857143,0.00023793236883495162
324,1.3527254462242126,1.7532408237457275,0.46153846153846156,0.8846153846153846,0.42857142857142855,0.5714285714285714,0.00022149180841138732
325,1.2438335418701172,1.9484138488769531,0.46153846153846156,0.9038461538461539,0.42857142857142855,0.5714285714285714,0.0002056134357900477
326,1.3727843165397644,1.6062859296798706,0.46153846153846156,0.8846153846153846,0.42857142857142855,0.7142857142857143,0.0001903011687217837
327,1.0725972056388855,2.0745620727539062,0.5576923076923077,0.9423076923076923,0.35714285714285715,0.5,0.00017555878527937164
328,1.1539095044136047,2.3395583629608154,0.5192307692307693,0.9423076923076923,0.2857142857142857,0.5,0.00016138992292533155
329,1.2369264364242554,1.5527148246765137,0.4807692307692308,0.9230769230769231,0.2857142857142857,0.7857142857142857,0.00014779807761443637
330,1.2389689683914185,1.311531662940979,0.5384615384615384,0.9038461538461539,0.35714285714285715,0.9285714285714286,0.00013478660293113676
331,1.1396815180778503,2.0253729820251465,0.5384615384615384,0.9230769230769231,0.42857142857142855,0.5,0.00012235870926211617
332,1.2915223836898804,2.2533349990844727,0.5,0.9038461538461539,0.35714285714285715,0.5714285714285714,0.0001105174630041747
333,1.1324282884597778,1.8056674003601074,0.5192307692307693,0.9230769230769231,0.35714285714285715,0.6428571428571429,9.926578580764262e-05
334,1.2607566714286804,1.8600578308105469,0.5192307692307693,0.9230769230769231,0.35714285714285715,0.7142857142857143,8.860645385550508e-05
335,1.0898448824882507,1.747921109199524,0.4807692307692308,0.9615384615384616,0.42857142857142855,0.7142857142857143,7.854209717842258e-05
336,1.2217899560928345,1.8381242752075195,0.5384615384615384,0.9423076923076923,0.35714285714285715,0.7142857142857143,6.90751990058086e-05
337,1.2918296456336975,1.611069917678833,0.5192307692307693,0.8846153846153846,0.5714285714285714,0.6428571428571429,6.0208095153131695e-05
338,1.1792820692062378,1.8749229907989502,0.46153846153846156,0.9615384615384616,0.14285714285714285,0.7857142857142857,5.194297344558535e-05
339,1.0079781711101532,2.149444103240967,0.6153846153846154,0.9615384615384616,0.35714285714285715,0.5714285714285714,4.4281873178278196e-05
340,1.1636881232261658,1.928380012512207,0.4807692307692308,0.9423076923076923,0.35714285714285715,0.5714285714285714,3.7226684613065334e-05
341,1.2150819897651672,1.9220741987228394,0.4423076923076923,0.9423076923076923,0.2857142857142857,0.6428571428571429,3.077914851215585e-05
342,1.148034691810608,1.758155345916748,0.46153846153846156,0.9423076923076923,0.2857142857142857,0.7857142857142857,2.4940855708606158e-05
343,1.3890255093574524,2.188361644744873,0.38461538461538464,0.9038461538461539,0.2857142857142857,0.5,1.9713246713805587e-05
344,1.2849448919296265,1.8611915111541748,0.5192307692307693,0.9038461538461539,0.35714285714285715,0.7142857142857143,1.5097611362051012e-05
345,1.0965337753295898,1.725660800933838,0.5576923076923077,0.9423076923076923,0.42857142857142855,0.7857142857142857,1.109508849230001e-05
346,1.2636389136314392,2.2942192554473877,0.5961538461538461,0.8846153846153846,0.35714285714285715,0.5714285714285714,7.70666566718009e-06
347,1.1255614161491394,2.5493357181549072,0.5384615384615384,0.9423076923076923,0.35714285714285715,0.42857142857142855,4.933178929321102e-06
348,1.4382559657096863,2.2375073432922363,0.4423076923076923,0.8846153846153846,0.35714285714285715,0.5,2.775312595075241e-06
349,1.1059507131576538,1.9053800106048584,0.5192307692307693,0.9423076923076923,0.35714285714285715,0.6428571428571429,1.233599085671e-06
350,1.2131657600402832,1.2476469278335571,0.5769230769230769,0.8846153846153846,0.5714285714285714,0.8571428571428571,3.0841879584853074e-07
