epoch,train_loss,val_loss,train_acc_action,train_acc_status,val_acc_action,val_acc_status,learning_rate
1,1.7511981129646301,1.7358884811401367,0.3269230769230769,0.8269230769230769,0.35714285714285715,0.8571428571428571,0.0004
2,1.7398825883865356,1.72947359085083,0.3269230769230769,0.8269230769230769,0.35714285714285715,0.8571428571428571,0.0004
3,1.7366814613342285,1.7195329666137695,0.3269230769230769,0.8269230769230769,0.35714285714285715,0.8571428571428571,0.0004
4,1.7216621041297913,1.709136962890625,0.3269230769230769,0.8269230769230769,0.35714285714285715,0.8571428571428571,0.0004
5,1.7095328569412231,1.6992084980010986,0.3076923076923077,0.8269230769230769,0.35714285714285715,0.8571428571428571,0.0004
6,1.6953629851341248,1.681734323501587,0.3269230769230769,0.8269230769230769,0.2857142857142857,0.8571428571428571,0.0004
7,1.6786563992500305,1.654178261756897,0.4230769230769231,0.8269230769230769,0.21428571428571427,0.8571428571428571,0.0004
8,1.6361375451087952,1.6406567096710205,0.36538461538461536,0.8269230769230769,0.21428571428571427,0.8571428571428571,0.0004
9,1.5859006643295288,1.558736801147461,0.36538461538461536,0.8269230769230769,0.21428571428571427,0.8571428571428571,0.0004
10,1.5547471046447754,1.5803362131118774,0.36538461538461536,0.8269230769230769,0.21428571428571427,0.8571428571428571,0.0004
11,1.6141870021820068,1.5694955587387085,0.36538461538461536,0.8269230769230769,0.21428571428571427,0.8571428571428571,0.0004
12,1.6036092638969421,1.5776671171188354,0.36538461538461536,0.8269230769230769,0.21428571428571427,0.8571428571428571,0.0004
13,1.5694939494132996,1.5146483182907104,0.36538461538461536,0.8269230769230769,0.21428571428571427,0.8571428571428571,0.0004
14,1.5407344102859497,1.5113469362258911,0.36538461538461536,0.8269230769230769,0.21428571428571427,0.8571428571428571,0.0004
15,1.5290398001670837,1.516892433166504,0.36538461538461536,0.8269230769230769,0.35714285714285715,0.8571428571428571,0.0004
16,1.5559019446372986,1.4906470775604248,0.34615384615384615,0.8269230769230769,0.35714285714285715,0.8571428571428571,0.0004
17,1.5483219623565674,1.528677225112915,0.3269230769230769,0.8269230769230769,0.35714285714285715,0.8571428571428571,0.0004
18,1.5311895608901978,1.5351604223251343,0.3269230769230769,0.8269230769230769,0.35714285714285715,0.8571428571428571,0.0004
19,1.5626022815704346,1.5154467821121216,0.3269230769230769,0.8269230769230769,0.42857142857142855,0.8571428571428571,0.0004
20,1.5244291424751282,1.5867218971252441,0.34615384615384615,0.8269230769230769,0.35714285714285715,0.8571428571428571,0.0004
21,1.5402766466140747,1.5888159275054932,0.3269230769230769,0.8269230769230769,0.2857142857142857,0.8571428571428571,0.0004
22,1.5520018339157104,1.549198031425476,0.34615384615384615,0.8269230769230769,0.2857142857142857,0.8571428571428571,0.0004
23,1.4837858080863953,1.5527069568634033,0.40384615384615385,0.8269230769230769,0.14285714285714285,0.8571428571428571,0.0004
24,1.5418428778648376,1.5681071281433105,0.4230769230769231,0.8269230769230769,0.21428571428571427,0.8571428571428571,0.0004
25,1.5161352753639221,1.5180742740631104,0.38461538461538464,0.8269230769230769,0.21428571428571427,0.8571428571428571,0.0004
26,1.5571030378341675,1.5334272384643555,0.36538461538461536,0.8269230769230769,0.21428571428571427,0.8571428571428571,0.0004
27,1.5335920453071594,1.5296708345413208,0.36538461538461536,0.8269230769230769,0.21428571428571427,0.8571428571428571,0.0004
28,1.4594019055366516,1.6385014057159424,0.36538461538461536,0.8269230769230769,0.21428571428571427,0.8571428571428571,0.0004
29,1.5566170811653137,1.5345340967178345,0.36538461538461536,0.8269230769230769,0.21428571428571427,0.8571428571428571,0.0004
30,1.5146178007125854,1.5244135856628418,0.36538461538461536,0.8269230769230769,0.21428571428571427,0.8571428571428571,0.0004
31,1.5034961700439453,1.495509147644043,0.36538461538461536,0.8269230769230769,0.21428571428571427,0.8571428571428571,0.0004
32,1.5113857984542847,1.514051079750061,0.36538461538461536,0.8269230769230769,0.21428571428571427,0.8571428571428571,0.0004
33,1.53853440284729,1.609497308731079,0.36538461538461536,0.8269230769230769,0.21428571428571427,0.8571428571428571,0.0004
34,1.513512909412384,1.4587504863739014,0.36538461538461536,0.8269230769230769,0.21428571428571427,0.8571428571428571,0.0004
35,1.469974935054779,1.6120336055755615,0.38461538461538464,0.8269230769230769,0.21428571428571427,0.8571428571428571,0.0004
36,1.5256288647651672,1.5153791904449463,0.4230769230769231,0.8269230769230769,0.21428571428571427,0.8571428571428571,0.0004
37,1.4981014132499695,1.4518508911132812,0.3269230769230769,0.8269230769230769,0.21428571428571427,0.8571428571428571,0.0004
38,1.514672577381134,1.6343876123428345,0.4423076923076923,0.8269230769230769,0.2857142857142857,0.8571428571428571,0.0004
39,1.5117504000663757,1.5934393405914307,0.40384615384615385,0.8269230769230769,0.21428571428571427,0.8571428571428571,0.0004
40,1.525141954421997,1.5889109373092651,0.40384615384615385,0.8269230769230769,0.21428571428571427,0.8571428571428571,0.0004
41,1.4639728665351868,1.4653074741363525,0.34615384615384615,0.8269230769230769,0.2857142857142857,0.8571428571428571,0.0004
42,1.4468574523925781,1.5170940160751343,0.40384615384615385,0.8269230769230769,0.42857142857142855,0.8571428571428571,0.0004
43,1.451752245426178,1.6143295764923096,0.4230769230769231,0.8269230769230769,0.21428571428571427,0.8571428571428571,0.0004
44,1.4566835761070251,1.468266487121582,0.34615384615384615,0.8269230769230769,0.2857142857142857,0.8571428571428571,0.0004
45,1.5023263096809387,1.7214927673339844,0.38461538461538464,0.8269230769230769,0.21428571428571427,0.8571428571428571,0.0004
46,1.4076206684112549,1.6722989082336426,0.36538461538461536,0.8269230769230769,0.35714285714285715,0.8571428571428571,0.0004
47,1.4170875549316406,1.4425115585327148,0.40384615384615385,0.8269230769230769,0.35714285714285715,0.8571428571428571,0.0004
48,1.4249622821807861,1.344499111175537,0.46153846153846156,0.8269230769230769,0.42857142857142855,0.8571428571428571,0.0004
49,1.344508945941925,1.4856370687484741,0.5192307692307693,0.8269230769230769,0.2857142857142857,0.8571428571428571,0.0004
50,1.3985544443130493,1.5916647911071777,0.4230769230769231,0.8269230769230769,0.2857142857142857,0.8571428571428571,0.0004
51,1.4419513940811157,1.7696027755737305,0.4230769230769231,0.8269230769230769,0.21428571428571427,0.8571428571428571,0.0004
52,1.4453617334365845,1.4929347038269043,0.4230769230769231,0.8269230769230769,0.35714285714285715,0.8571428571428571,0.0004
53,1.3912843465805054,1.4846997261047363,0.46153846153846156,0.8269230769230769,0.2857142857142857,0.8571428571428571,0.0004
54,1.4427582621574402,1.6808347702026367,0.38461538461538464,0.8269230769230769,0.14285714285714285,0.8571428571428571,0.0004
55,1.3831495642662048,1.4283686876296997,0.4423076923076923,0.8269230769230769,0.2857142857142857,0.8571428571428571,0.0004
56,1.4717392921447754,1.5331352949142456,0.38461538461538464,0.8269230769230769,0.2857142857142857,0.8571428571428571,0.0004
57,1.4068278670310974,1.5461580753326416,0.40384615384615385,0.8269230769230769,0.21428571428571427,0.8571428571428571,0.0004
58,1.4739853739738464,1.503226399421692,0.4230769230769231,0.8269230769230769,0.21428571428571427,0.8571428571428571,0.0004
59,1.39487886428833,1.4835114479064941,0.4807692307692308,0.8269230769230769,0.5,0.8571428571428571,0.0004
60,1.465171456336975,1.5971429347991943,0.36538461538461536,0.8269230769230769,0.42857142857142855,0.8571428571428571,0.0004
61,1.3479145169258118,1.6027495861053467,0.4230769230769231,0.8269230769230769,0.42857142857142855,0.8571428571428571,0.0004
62,1.5060416460037231,1.5980273485183716,0.34615384615384615,0.8269230769230769,0.42857142857142855,0.8571428571428571,0.0004
63,1.7601981163024902,1.5880746841430664,0.3076923076923077,0.8269230769230769,0.42857142857142855,0.8571428571428571,0.0004
64,1.6442815065383911,1.572060465812683,0.3076923076923077,0.8269230769230769,0.42857142857142855,0.8571428571428571,0.0004
65,1.5966036319732666,1.5404937267303467,0.2692307692307692,0.8269230769230769,0.21428571428571427,0.8571428571428571,0.0004
66,1.5641769766807556,1.5264569520950317,0.36538461538461536,0.8269230769230769,0.35714285714285715,0.8571428571428571,0.0004
67,1.5806578397750854,1.5290943384170532,0.3269230769230769,0.8269230769230769,0.35714285714285715,0.8571428571428571,0.0004
68,1.5621405839920044,1.537954568862915,0.3269230769230769,0.8269230769230769,0.35714285714285715,0.8571428571428571,0.0004
69,1.5638532638549805,1.5517494678497314,0.3269230769230769,0.8269230769230769,0.35714285714285715,0.8571428571428571,0.0004
70,1.556324064731598,1.5606235265731812,0.3269230769230769,0.8269230769230769,0.35714285714285715,0.8571428571428571,0.0004
71,1.5636562705039978,1.5657622814178467,0.3269230769230769,0.8269230769230769,0.21428571428571427,0.8571428571428571,0.0004
72,1.5748500227928162,1.570839524269104,0.36538461538461536,0.8269230769230769,0.21428571428571427,0.8571428571428571,0.0004
73,1.5562484860420227,1.5780682563781738,0.36538461538461536,0.8269230769230769,0.21428571428571427,0.8571428571428571,0.0004
74,1.5930600762367249,1.5772768259048462,0.36538461538461536,0.8269230769230769,0.21428571428571427,0.8571428571428571,0.0004
75,1.5478565692901611,1.5768005847930908,0.36538461538461536,0.8269230769230769,0.21428571428571427,0.8571428571428571,0.0004
76,1.5577757954597473,1.5758543014526367,0.36538461538461536,0.8269230769230769,0.21428571428571427,0.8571428571428571,0.0004
77,1.5893357992172241,1.5698037147521973,0.36538461538461536,0.8269230769230769,0.21428571428571427,0.8571428571428571,0.0004
78,1.5568655729293823,1.5672259330749512,0.36538461538461536,0.8269230769230769,0.21428571428571427,0.8571428571428571,0.0004
79,1.5759307742118835,1.5613348484039307,0.36538461538461536,0.8269230769230769,0.21428571428571427,0.8571428571428571,0.0004
80,1.5560872554779053,1.5485541820526123,0.36538461538461536,0.8269230769230769,0.21428571428571427,0.8571428571428571,0.0004
81,1.5485179424285889,1.5423773527145386,0.36538461538461536,0.8269230769230769,0.21428571428571427,0.8571428571428571,0.0004
82,1.5328757762908936,1.5319150686264038,0.36538461538461536,0.8269230769230769,0.21428571428571427,0.8571428571428571,0.0004
83,1.5502985119819641,1.5305534601211548,0.36538461538461536,0.8269230769230769,0.21428571428571427,0.8571428571428571,0.0004
84,1.5192140340805054,1.5240380764007568,0.36538461538461536,0.8269230769230769,0.21428571428571427,0.8571428571428571,0.0004
85,1.577449381351471,1.518551230430603,0.36538461538461536,0.8269230769230769,0.21428571428571427,0.8571428571428571,0.0004
86,1.562251329421997,1.5183422565460205,0.36538461538461536,0.8269230769230769,0.21428571428571427,0.8571428571428571,0.0004
87,1.564591646194458,1.5154507160186768,0.36538461538461536,0.8269230769230769,0.2857142857142857,0.8571428571428571,0.0004
88,1.5479180812835693,1.516080617904663,0.3269230769230769,0.8269230769230769,0.42857142857142855,0.8571428571428571,0.0004
89,1.549333930015564,1.5156532526016235,0.3076923076923077,0.8269230769230769,0.42857142857142855,0.8571428571428571,0.0004
90,1.5614597797393799,1.5285499095916748,0.34615384615384615,0.8269230769230769,0.21428571428571427,0.8571428571428571,0.0004
91,1.5468010306358337,1.5180031061172485,0.40384615384615385,0.8269230769230769,0.2857142857142857,0.8571428571428571,0.0004
92,1.5579938292503357,1.521914005279541,0.4423076923076923,0.8269230769230769,0.35714285714285715,0.8571428571428571,0.0004
93,1.5770798921585083,1.5251963138580322,0.4230769230769231,0.8269230769230769,0.21428571428571427,0.8571428571428571,0.0004
94,1.5297294855117798,1.5335431098937988,0.34615384615384615,0.8269230769230769,0.21428571428571427,0.8571428571428571,0.0004
95,1.5282767415046692,1.5400028228759766,0.36538461538461536,0.8269230769230769,0.21428571428571427,0.8571428571428571,0.0004
96,1.5427024364471436,1.5392658710479736,0.36538461538461536,0.8269230769230769,0.21428571428571427,0.8571428571428571,0.0004
97,1.5365556478500366,1.5410016775131226,0.36538461538461536,0.8269230769230769,0.21428571428571427,0.8571428571428571,0.0004
98,1.5425278544425964,1.532166838645935,0.36538461538461536,0.8269230769230769,0.21428571428571427,0.8571428571428571,0.0004
99,1.5532214045524597,1.5300779342651367,0.36538461538461536,0.8269230769230769,0.21428571428571427,0.8571428571428571,0.0004
100,1.5574018955230713,1.541910171508789,0.36538461538461536,0.8269230769230769,0.21428571428571427,0.8571428571428571,0.0004
101,1.5432382822036743,1.5035228729248047,0.36538461538461536,0.8269230769230769,0.21428571428571427,0.8571428571428571,0.0004
102,1.5015869140625,1.5325515270233154,0.38461538461538464,0.8269230769230769,0.2857142857142857,0.8571428571428571,0.0004
103,1.5134496092796326,1.5298547744750977,0.46153846153846156,0.8269230769230769,0.2857142857142857,0.8571428571428571,0.0004
104,1.4921692609786987,1.524641990661621,0.4423076923076923,0.8269230769230769,0.2857142857142857,0.8571428571428571,0.0004
105,1.4965211153030396,1.548142910003662,0.38461538461538464,0.8269230769230769,0.21428571428571427,0.8571428571428571,0.0004
106,1.540488600730896,1.4815183877944946,0.38461538461538464,0.8269230769230769,0.2857142857142857,0.8571428571428571,0.0004
107,1.5010205507278442,1.4465736150741577,0.4423076923076923,0.8269230769230769,0.42857142857142855,0.8571428571428571,0.0004
108,1.4687463641166687,1.526759386062622,0.5,0.8269230769230769,0.35714285714285715,0.8571428571428571,0.0004
109,1.510577917098999,1.5642974376678467,0.4230769230769231,0.8269230769230769,0.35714285714285715,0.8571428571428571,0.0004
110,1.4725297689437866,1.517075777053833,0.40384615384615385,0.8269230769230769,0.2857142857142857,0.8571428571428571,0.0004
111,1.3915054202079773,1.5645992755889893,0.5,0.8269230769230769,0.14285714285714285,0.8571428571428571,0.0004
112,1.5194119811058044,1.5152537822723389,0.46153846153846156,0.8269230769230769,0.2857142857142857,0.8571428571428571,0.0004
113,1.4375011920928955,1.5466301441192627,0.46153846153846156,0.8269230769230769,0.2857142857142857,0.8571428571428571,0.0004
114,1.4657538533210754,1.5999318361282349,0.4230769230769231,0.8269230769230769,0.21428571428571427,0.8571428571428571,0.0004
115,1.4868071675300598,1.6509184837341309,0.4230769230769231,0.8269230769230769,0.21428571428571427,0.8571428571428571,0.0004
116,1.5012732148170471,1.4977976083755493,0.40384615384615385,0.8269230769230769,0.21428571428571427,0.8571428571428571,0.0004
117,1.4539756178855896,1.6170954704284668,0.4807692307692308,0.8269230769230769,0.21428571428571427,0.8571428571428571,0.0004
118,1.5018538236618042,1.5818819999694824,0.4230769230769231,0.8269230769230769,0.21428571428571427,0.8571428571428571,0.0004
119,1.4120537638664246,1.717168927192688,0.4423076923076923,0.8269230769230769,0.21428571428571427,0.8571428571428571,0.0004
120,1.3886314034461975,1.5351815223693848,0.5,0.8269230769230769,0.2857142857142857,0.8571428571428571,0.0004
121,1.3645578622817993,1.534476637840271,0.40384615384615385,0.8269230769230769,0.21428571428571427,0.8571428571428571,0.0004
122,1.4317717552185059,1.5256391763687134,0.4423076923076923,0.8269230769230769,0.21428571428571427,0.8571428571428571,0.0004
123,1.404301941394806,1.6003026962280273,0.40384615384615385,0.8269230769230769,0.21428571428571427,0.8571428571428571,0.0004
124,1.3662073016166687,1.6282577514648438,0.4807692307692308,0.8461538461538461,0.14285714285714285,0.8571428571428571,0.0004
125,1.505610466003418,1.5470292568206787,0.3269230769230769,0.8269230769230769,0.2857142857142857,0.8571428571428571,0.0004
126,1.4434723258018494,1.6353013515472412,0.4230769230769231,0.8269230769230769,0.35714285714285715,0.8571428571428571,0.0004
127,1.451433539390564,1.522679090499878,0.34615384615384615,0.8269230769230769,0.35714285714285715,0.8571428571428571,0.0004
128,1.5316582918167114,1.5487521886825562,0.3076923076923077,0.8269230769230769,0.35714285714285715,0.8571428571428571,0.0004
129,1.4980164766311646,1.455095648765564,0.46153846153846156,0.8269230769230769,0.21428571428571427,0.8571428571428571,0.0004
130,1.5172525644302368,1.524247407913208,0.46153846153846156,0.8269230769230769,0.21428571428571427,0.8571428571428571,0.0004
131,1.491148829460144,1.5154966115951538,0.36538461538461536,0.8269230769230769,0.21428571428571427,0.8571428571428571,0.0004
132,1.5504427552223206,1.4927666187286377,0.36538461538461536,0.8269230769230769,0.21428571428571427,0.8571428571428571,0.0004
133,1.5117055177688599,1.6234387159347534,0.36538461538461536,0.8269230769230769,0.21428571428571427,0.8571428571428571,0.0004
134,1.5216462016105652,1.5604232549667358,0.36538461538461536,0.8269230769230769,0.21428571428571427,0.8571428571428571,0.0004
135,1.550948977470398,1.5879312753677368,0.36538461538461536,0.8269230769230769,0.21428571428571427,0.8571428571428571,0.0004
136,1.4999961853027344,1.4476088285446167,0.36538461538461536,0.8269230769230769,0.2857142857142857,0.8571428571428571,0.0004
137,1.4627186059951782,1.4623961448669434,0.4230769230769231,0.8269230769230769,0.2857142857142857,0.8571428571428571,0.0004
138,1.3863793015480042,1.529170274734497,0.4807692307692308,0.8269230769230769,0.21428571428571427,0.8571428571428571,0.0004
139,1.4000217914581299,1.6386268138885498,0.5192307692307693,0.8269230769230769,0.2857142857142857,0.8571428571428571,0.0004
140,1.4210177063941956,1.4942866563796997,0.4230769230769231,0.8269230769230769,0.21428571428571427,0.8571428571428571,0.0004
141,1.4002888202667236,1.5578606128692627,0.4423076923076923,0.8269230769230769,0.2857142857142857,0.8571428571428571,0.0004
142,1.3652540445327759,1.5563668012619019,0.4423076923076923,0.8269230769230769,0.21428571428571427,0.8571428571428571,0.0004
143,1.3825960755348206,1.8012328147888184,0.4230769230769231,0.8269230769230769,0.14285714285714285,0.8571428571428571,0.0004
144,1.4836313724517822,1.6699516773223877,0.4423076923076923,0.8269230769230769,0.2857142857142857,0.8571428571428571,0.0004
145,1.3792765736579895,1.7104980945587158,0.4230769230769231,0.8269230769230769,0.2857142857142857,0.8571428571428571,0.0004
146,1.4055808782577515,1.539419412612915,0.4423076923076923,0.8269230769230769,0.35714285714285715,0.8571428571428571,0.0004
147,1.4574373364448547,1.5448980331420898,0.38461538461538464,0.8269230769230769,0.35714285714285715,0.8571428571428571,0.0004
148,1.4720473885536194,1.5977966785430908,0.38461538461538464,0.8269230769230769,0.2857142857142857,0.8571428571428571,0.0004
149,1.4432144165039062,1.4974265098571777,0.5,0.8269230769230769,0.2857142857142857,0.8571428571428571,0.0004
150,1.4527073502540588,1.5003547668457031,0.36538461538461536,0.8269230769230769,0.2857142857142857,0.8571428571428571,0.0004
151,1.48419588804245,1.5476996898651123,0.36538461538461536,0.8269230769230769,0.21428571428571427,0.8571428571428571,0.0004
152,1.5064409971237183,1.5363876819610596,0.36538461538461536,0.8269230769230769,0.21428571428571427,0.8571428571428571,0.0004
153,1.4972350001335144,1.4828345775604248,0.36538461538461536,0.8269230769230769,0.21428571428571427,0.8571428571428571,0.0004
154,1.5055598616600037,1.4529578685760498,0.36538461538461536,0.8269230769230769,0.21428571428571427,0.8571428571428571,0.0004
155,1.4733287692070007,1.5910561084747314,0.38461538461538464,0.8269230769230769,0.21428571428571427,0.8571428571428571,0.0004
156,1.4582228660583496,1.5083214044570923,0.5,0.8269230769230769,0.21428571428571427,0.8571428571428571,0.0004
157,1.466687560081482,1.5219504833221436,0.4230769230769231,0.8269230769230769,0.2857142857142857,0.8571428571428571,0.0004
158,1.5122654438018799,1.5284115076065063,0.4230769230769231,0.8269230769230769,0.2857142857142857,0.8571428571428571,0.0004
159,1.4871681928634644,1.4694852828979492,0.4230769230769231,0.8269230769230769,0.21428571428571427,0.8571428571428571,0.0004
160,1.4309335947036743,1.4041248559951782,0.4230769230769231,0.8269230769230769,0.21428571428571427,0.8571428571428571,0.0004
161,1.435078740119934,1.6724789142608643,0.4423076923076923,0.8269230769230769,0.21428571428571427,0.7142857142857143,0.0004
162,1.424590289592743,1.6868152618408203,0.40384615384615385,0.9038461538461539,0.2857142857142857,0.7857142857142857,0.0004
163,1.370146930217743,1.5770467519760132,0.40384615384615385,0.8653846153846154,0.21428571428571427,0.9285714285714286,0.0004
164,1.494418740272522,1.570483922958374,0.40384615384615385,0.8461538461538461,0.2857142857142857,0.8571428571428571,0.0004
165,1.3807233572006226,1.803358554840088,0.40384615384615385,0.8269230769230769,0.21428571428571427,0.8571428571428571,0.0004
166,1.3019646406173706,1.6598076820373535,0.46153846153846156,0.8269230769230769,0.42857142857142855,0.8571428571428571,0.0004
167,1.3392346501350403,1.4181861877441406,0.3269230769230769,0.8269230769230769,0.2857142857142857,0.9285714285714286,0.0004
168,1.4289197325706482,1.652966856956482,0.38461538461538464,0.8653846153846154,0.21428571428571427,0.8571428571428571,0.0004
169,1.4693215489387512,1.6486773490905762,0.38461538461538464,0.8653846153846154,0.2857142857142857,0.7857142857142857,0.0004
170,1.3910439014434814,1.6215503215789795,0.40384615384615385,0.8269230769230769,0.21428571428571427,0.8571428571428571,0.0004
171,1.3969330191612244,1.476201057434082,0.4423076923076923,0.8461538461538461,0.42857142857142855,0.8571428571428571,0.0004
172,1.3700965642929077,1.6061279773712158,0.5,0.8846153846153846,0.2857142857142857,0.8571428571428571,0.0004
173,1.2991400361061096,1.7402300834655762,0.4230769230769231,0.8653846153846154,0.2857142857142857,0.7857142857142857,0.0004
174,1.4315112829208374,1.5213024616241455,0.34615384615384615,0.8461538461538461,0.35714285714285715,0.7857142857142857,0.0004
175,1.402014434337616,1.7453439235687256,0.38461538461538464,0.8461538461538461,0.2857142857142857,0.7142857142857143,0.0004
176,1.4594776630401611,1.702869176864624,0.34615384615384615,0.8653846153846154,0.21428571428571427,0.7142857142857143,0.0004
177,1.3756405115127563,1.4784669876098633,0.46153846153846156,0.8846153846153846,0.35714285714285715,0.9285714285714286,0.0004
178,1.4102512001991272,1.4294133186340332,0.4423076923076923,0.8076923076923077,0.42857142857142855,0.8571428571428571,0.0004
179,1.4548491835594177,1.5618698596954346,0.40384615384615385,0.8461538461538461,0.21428571428571427,0.8571428571428571,0.0004
180,1.4177448153495789,1.6924282312393188,0.4423076923076923,0.9038461538461539,0.35714285714285715,0.7142857142857143,0.0004
181,1.344462811946869,1.8245426416397095,0.4423076923076923,0.8461538461538461,0.14285714285714285,0.7857142857142857,0.0004
182,1.3815851211547852,1.7241644859313965,0.46153846153846156,0.8076923076923077,0.14285714285714285,0.7142857142857143,0.0004
183,1.4085740447044373,1.7836425304412842,0.4423076923076923,0.8076923076923077,0.2857142857142857,0.7142857142857143,0.0004
184,1.2978658080101013,1.862100601196289,0.4230769230769231,0.8653846153846154,0.14285714285714285,0.7142857142857143,0.0004
185,1.3749383687973022,1.7781236171722412,0.4807692307692308,0.9230769230769231,0.2857142857142857,0.7857142857142857,0.0004
186,1.4224597215652466,1.619248628616333,0.40384615384615385,0.8846153846153846,0.21428571428571427,0.8571428571428571,0.0004
187,1.4254058003425598,1.591007947921753,0.4807692307692308,0.8269230769230769,0.21428571428571427,0.8571428571428571,0.0004
188,1.4184067845344543,1.6523926258087158,0.4807692307692308,0.8269230769230769,0.14285714285714285,0.8571428571428571,0.0004
189,1.4143413305282593,1.435056209564209,0.40384615384615385,0.8269230769230769,0.35714285714285715,0.8571428571428571,0.0004
190,1.435459017753601,1.5027306079864502,0.38461538461538464,0.8269230769230769,0.2857142857142857,0.8571428571428571,0.0004
191,1.4240815043449402,1.6364187002182007,0.38461538461538464,0.8269230769230769,0.2857142857142857,0.8571428571428571,0.0004
192,1.3221091032028198,1.7127461433410645,0.4230769230769231,0.8269230769230769,0.2857142857142857,0.8571428571428571,0.0004
193,1.3508999943733215,1.623252034187317,0.34615384615384615,0.8269230769230769,0.2857142857142857,0.8571428571428571,0.0004
194,1.3250046968460083,1.5105372667312622,0.4423076923076923,0.8269230769230769,0.21428571428571427,0.8571428571428571,0.0004
195,1.3974957466125488,1.5101045370101929,0.40384615384615385,0.8269230769230769,0.42857142857142855,0.8571428571428571,0.0004
196,1.386791706085205,1.387912392616272,0.4230769230769231,0.8269230769230769,0.5,0.8571428571428571,0.0004
197,1.4329677820205688,1.4851861000061035,0.36538461538461536,0.8269230769230769,0.5,0.8571428571428571,0.0004
198,1.4201555848121643,1.543805480003357,0.36538461538461536,0.8269230769230769,0.2857142857142857,0.8571428571428571,0.0004
199,1.2967406511306763,1.4951817989349365,0.40384615384615385,0.8269230769230769,0.42857142857142855,0.8571428571428571,0.0004
200,1.3780840635299683,1.3414390087127686,0.4423076923076923,0.8269230769230769,0.42857142857142855,0.8571428571428571,0.0004
201,1.3943716287612915,1.4679570198059082,0.38461538461538464,0.8269230769230769,0.35714285714285715,0.8571428571428571,0.0004
202,1.3330141305923462,1.6217029094696045,0.38461538461538464,0.9038461538461539,0.2857142857142857,0.7857142857142857,0.0004
203,1.4238861203193665,1.545424222946167,0.4230769230769231,0.8461538461538461,0.35714285714285715,0.8571428571428571,0.0004
204,1.4465965628623962,1.4436163902282715,0.3269230769230769,0.7692307692307693,0.14285714285714285,0.8571428571428571,0.0004
205,1.4304895401000977,1.548082709312439,0.36538461538461536,0.7884615384615384,0.5,0.7857142857142857,0.0004
206,1.2824912071228027,1.9125440120697021,0.4230769230769231,0.8846153846153846,0.35714285714285715,0.7142857142857143,0.0004
207,1.215163230895996,1.37091064453125,0.4423076923076923,0.9230769230769231,0.5714285714285714,0.9285714285714286,0.0004
208,1.323180615901947,1.6390759944915771,0.36538461538461536,0.9038461538461539,0.14285714285714285,0.7857142857142857,0.0004
209,1.3336603045463562,1.3928277492523193,0.4807692307692308,0.8653846153846154,0.42857142857142855,0.8571428571428571,0.0004
210,1.4053118228912354,1.5849882364273071,0.46153846153846156,0.8653846153846154,0.2857142857142857,0.8571428571428571,0.0004
211,1.2002987265586853,1.547338604927063,0.4230769230769231,0.9230769230769231,0.42857142857142855,0.7857142857142857,0.0004
212,1.2362089157104492,1.7249279022216797,0.4230769230769231,0.8846153846153846,0.21428571428571427,0.7857142857142857,0.0004
213,1.2704856395721436,2.0482146739959717,0.4423076923076923,0.8653846153846154,0.14285714285714285,0.6428571428571429,0.0004
214,1.5915864706039429,1.8561155796051025,0.3269230769230769,0.7884615384615384,0.2857142857142857,0.5714285714285714,0.0004
215,1.555966317653656,1.6156694889068604,0.4230769230769231,0.7307692307692307,0.2857142857142857,0.7142857142857143,0.0004
216,1.3555932641029358,1.787369966506958,0.4423076923076923,0.7884615384615384,0.35714285714285715,0.7142857142857143,0.0004
217,1.3048850297927856,1.5366100072860718,0.46153846153846156,0.8269230769230769,0.35714285714285715,0.7857142857142857,0.0004
218,1.4227182269096375,1.9526861906051636,0.46153846153846156,0.7884615384615384,0.21428571428571427,0.7142857142857143,0.0004
219,1.3526145815849304,1.9304933547973633,0.40384615384615385,0.8846153846153846,0.14285714285714285,0.7142857142857143,0.0004
220,1.3842156529426575,1.8860113620758057,0.40384615384615385,0.8076923076923077,0.21428571428571427,0.8571428571428571,0.0004
221,1.215454876422882,1.5497667789459229,0.5192307692307693,0.8269230769230769,0.2857142857142857,0.8571428571428571,0.0004
222,1.2434123158454895,1.5344606637954712,0.5192307692307693,0.8269230769230769,0.2857142857142857,0.8571428571428571,0.0004
223,1.3166583180427551,1.628541350364685,0.4807692307692308,0.8269230769230769,0.14285714285714285,0.8571428571428571,0.0004
224,1.3664688467979431,1.574472427368164,0.46153846153846156,0.8269230769230769,0.35714285714285715,0.8571428571428571,0.0004
225,1.3464252948760986,1.7341890335083008,0.38461538461538464,0.8269230769230769,0.35714285714285715,0.8571428571428571,0.0004
226,1.34188711643219,1.3661088943481445,0.4423076923076923,0.8846153846153846,0.35714285714285715,0.9285714285714286,0.0004
227,1.3282373547554016,1.495147943496704,0.38461538461538464,0.8653846153846154,0.2857142857142857,0.8571428571428571,0.0004
228,1.3992666006088257,1.5516761541366577,0.36538461538461536,0.9038461538461539,0.35714285714285715,0.8571428571428571,0.0004
229,1.5021040439605713,2.0804946422576904,0.4807692307692308,0.8269230769230769,0.2857142857142857,0.6428571428571429,0.0004
230,1.3259121179580688,1.9433350563049316,0.38461538461538464,0.8846153846153846,0.2857142857142857,0.7857142857142857,0.0004
231,1.3978052139282227,1.9342416524887085,0.36538461538461536,0.9038461538461539,0.2857142857142857,0.7857142857142857,0.0004
232,1.3395883440971375,1.7993000745773315,0.4230769230769231,0.9230769230769231,0.35714285714285715,0.8571428571428571,0.0004
233,1.3673917651176453,1.510209083557129,0.40384615384615385,0.9230769230769231,0.21428571428571427,0.8571428571428571,0.0004
234,1.2431941628456116,1.5660287141799927,0.46153846153846156,0.8846153846153846,0.2857142857142857,0.8571428571428571,0.0004
235,1.2300615310668945,1.7584187984466553,0.4230769230769231,0.8846153846153846,0.2857142857142857,0.8571428571428571,0.0004
236,1.3737581968307495,1.5121279954910278,0.46153846153846156,0.8461538461538461,0.21428571428571427,0.8571428571428571,0.0004
237,1.3176754713058472,1.525242567062378,0.4807692307692308,0.8269230769230769,0.2857142857142857,0.8571428571428571,0.0004
238,1.3798705339431763,1.4935126304626465,0.4423076923076923,0.8269230769230769,0.2857142857142857,0.8571428571428571,0.0004
239,1.480194330215454,1.604915738105774,0.4230769230769231,0.8269230769230769,0.21428571428571427,0.8571428571428571,0.0004
240,1.3447977900505066,1.487732172012329,0.4423076923076923,0.8269230769230769,0.2857142857142857,0.7857142857142857,0.0004
241,1.2666260600090027,1.6418875455856323,0.46153846153846156,0.8461538461538461,0.14285714285714285,0.8571428571428571,0.0004
242,1.2117599248886108,1.3414380550384521,0.46153846153846156,0.9230769230769231,0.35714285714285715,0.9285714285714286,0.0004
243,1.2895798683166504,1.438590168952942,0.40384615384615385,0.9230769230769231,0.2857142857142857,0.8571428571428571,0.0004
244,1.3641884326934814,1.372873306274414,0.4423076923076923,0.8269230769230769,0.2857142857142857,0.9285714285714286,0.0004
245,1.4208129048347473,1.6103698015213013,0.36538461538461536,0.8461538461538461,0.2857142857142857,0.7857142857142857,0.0004
246,1.3110052943229675,1.4391629695892334,0.4230769230769231,0.8461538461538461,0.2857142857142857,0.8571428571428571,0.0004
247,1.3235479593276978,1.868982195854187,0.4230769230769231,0.8269230769230769,0.21428571428571427,0.6428571428571429,0.0004
248,1.2514455914497375,1.506367564201355,0.4423076923076923,0.9038461538461539,0.21428571428571427,0.8571428571428571,0.0004
249,1.4847722053527832,1.3705984354019165,0.36538461538461536,0.8076923076923077,0.21428571428571427,0.9285714285714286,0.0004
250,1.3810500502586365,1.6209900379180908,0.38461538461538464,0.8461538461538461,0.2857142857142857,0.7857142857142857,0.0004
251,1.150054693222046,1.4478096961975098,0.4230769230769231,0.9615384615384616,0.35714285714285715,0.8571428571428571,0.0004
252,1.241639256477356,1.5124897956848145,0.40384615384615385,0.9230769230769231,0.35714285714285715,0.8571428571428571,0.0004
253,1.2402461171150208,1.6691932678222656,0.5192307692307693,0.9423076923076923,0.5,0.7857142857142857,0.0004
254,1.1873970031738281,1.5319701433181763,0.5,0.9423076923076923,0.2857142857142857,0.8571428571428571,0.0004
255,1.4008691906929016,1.6171530485153198,0.4423076923076923,0.9038461538461539,0.35714285714285715,0.7857142857142857,0.0004
256,1.2880935072898865,1.5171531438827515,0.5384615384615384,0.8846153846153846,0.21428571428571427,0.9285714285714286,0.0004
257,1.283351480960846,1.4333237409591675,0.46153846153846156,0.8846153846153846,0.21428571428571427,0.9285714285714286,0.0004
258,1.376921534538269,1.344799518585205,0.38461538461538464,0.8653846153846154,0.35714285714285715,0.9285714285714286,0.0004
259,1.3578428626060486,1.5501809120178223,0.46153846153846156,0.8653846153846154,0.21428571428571427,0.9285714285714286,0.0004
260,1.3846856355667114,2.050872325897217,0.40384615384615385,0.8653846153846154,0.14285714285714285,0.6428571428571429,0.0004
261,1.3332268595695496,1.6252481937408447,0.4230769230769231,0.8846153846153846,0.14285714285714285,0.8571428571428571,0.0004
262,1.268012285232544,1.545128583908081,0.46153846153846156,0.9230769230769231,0.21428571428571427,0.7857142857142857,0.0004
263,1.353982150554657,1.438222050666809,0.4230769230769231,0.8461538461538461,0.2857142857142857,0.8571428571428571,0.0004
264,1.4114221334457397,1.5874731540679932,0.4807692307692308,0.8461538461538461,0.21428571428571427,0.8571428571428571,0.0004
265,1.362987458705902,1.4170453548431396,0.4807692307692308,0.8269230769230769,0.2857142857142857,0.8571428571428571,0.0004
266,1.2346473336219788,1.6394762992858887,0.5192307692307693,0.8653846153846154,0.21428571428571427,0.7857142857142857,0.0004
267,1.2900007963180542,1.8393175601959229,0.4423076923076923,0.9038461538461539,0.21428571428571427,0.7857142857142857,0.0004
268,1.336137592792511,1.4599651098251343,0.40384615384615385,0.8653846153846154,0.2857142857142857,0.8571428571428571,0.0004
269,1.0640770196914673,1.702380895614624,0.5384615384615384,0.9807692307692307,0.21428571428571427,0.7857142857142857,0.0004
270,1.4646314978599548,1.4514985084533691,0.4423076923076923,0.8461538461538461,0.2857142857142857,0.8571428571428571,0.0004
271,1.3391446471214294,1.8134397268295288,0.4423076923076923,0.8653846153846154,0.21428571428571427,0.7142857142857143,0.0004
272,1.1971780061721802,1.6668814420700073,0.4423076923076923,0.9230769230769231,0.21428571428571427,0.8571428571428571,0.0004
273,1.1992743611335754,1.5980479717254639,0.4423076923076923,0.9615384615384616,0.21428571428571427,0.8571428571428571,0.0004
274,1.2552125453948975,1.4036144018173218,0.4423076923076923,0.9230769230769231,0.2857142857142857,0.9285714285714286,0.0004
275,1.217191219329834,1.6063041687011719,0.46153846153846156,0.9230769230769231,0.21428571428571427,0.8571428571428571,0.0004
276,1.3106717467308044,1.6148502826690674,0.4230769230769231,0.9038461538461539,0.21428571428571427,0.7857142857142857,0.0004
277,1.3402398824691772,1.6341549158096313,0.38461538461538464,0.8846153846153846,0.21428571428571427,0.8571428571428571,0.0004
278,1.2631900906562805,1.773268699645996,0.46153846153846156,0.9038461538461539,0.14285714285714285,0.7857142857142857,0.0004
279,1.2457259893417358,1.6721115112304688,0.4423076923076923,0.9038461538461539,0.21428571428571427,0.8571428571428571,0.0004
280,1.1258995532989502,1.6400213241577148,0.46153846153846156,0.9807692307692307,0.2857142857142857,0.8571428571428571,0.0004
281,1.3394299745559692,1.5422431230545044,0.4423076923076923,0.9038461538461539,0.2857142857142857,0.8571428571428571,0.0004
282,1.164766550064087,1.7990416288375854,0.5,0.9423076923076923,0.21428571428571427,0.7142857142857143,0.0004
283,1.3262776136398315,2.185055732727051,0.4423076923076923,0.8846153846153846,0.21428571428571427,0.6428571428571429,0.0004
284,1.277794063091278,1.8152904510498047,0.46153846153846156,0.8846153846153846,0.21428571428571427,0.7857142857142857,0.0004
285,1.295302391052246,1.8999446630477905,0.4423076923076923,0.9038461538461539,0.21428571428571427,0.7142857142857143,0.0004
286,1.2778127193450928,1.588565468788147,0.46153846153846156,0.8846153846153846,0.2857142857142857,0.8571428571428571,0.0004
287,1.2174912095069885,1.9129384756088257,0.4807692307692308,0.9038461538461539,0.21428571428571427,0.7857142857142857,0.0004
288,1.3685712814331055,1.635941505432129,0.4807692307692308,0.8653846153846154,0.35714285714285715,0.8571428571428571,0.0004
289,1.2408522963523865,1.6441385746002197,0.4230769230769231,0.8846153846153846,0.21428571428571427,0.8571428571428571,0.0004
290,1.1727924942970276,1.8603036403656006,0.5384615384615384,0.9230769230769231,0.2857142857142857,0.7857142857142857,0.0004
291,1.205143690109253,1.8264057636260986,0.5,0.8846153846153846,0.35714285714285715,0.7857142857142857,0.0004
292,1.2629483938217163,2.168954610824585,0.46153846153846156,0.9038461538461539,0.21428571428571427,0.6428571428571429,0.0004
293,1.2182140350341797,1.3865973949432373,0.46153846153846156,0.9230769230769231,0.5714285714285714,0.8571428571428571,0.0004
294,1.093970775604248,1.7887828350067139,0.4807692307692308,0.9615384615384616,0.2857142857142857,0.8571428571428571,0.0004
295,1.2013156414031982,1.778270959854126,0.4423076923076923,0.9423076923076923,0.21428571428571427,0.8571428571428571,0.0004
296,1.3159926533699036,1.876638650894165,0.38461538461538464,0.8653846153846154,0.2857142857142857,0.8571428571428571,0.0004
297,1.202987790107727,1.9071861505508423,0.4423076923076923,0.9230769230769231,0.21428571428571427,0.7857142857142857,0.0004
298,1.2177923917770386,1.591283917427063,0.46153846153846156,0.9230769230769231,0.35714285714285715,0.8571428571428571,0.0004
299,1.1555675268173218,1.5702857971191406,0.5192307692307693,0.9615384615384616,0.6428571428571429,0.8571428571428571,0.0004
300,1.191515862941742,1.7946300506591797,0.5769230769230769,0.9615384615384616,0.21428571428571427,0.7857142857142857,0.0004
301,1.2357668280601501,1.6747078895568848,0.5,0.9038461538461539,0.21428571428571427,0.8571428571428571,0.0004
302,1.075740933418274,1.3674546480178833,0.5,0.9615384615384616,0.2857142857142857,0.9285714285714286,0.0004
303,1.263443410396576,1.5305837392807007,0.5,0.9230769230769231,0.2857142857142857,0.8571428571428571,0.0004
304,1.2177119851112366,1.8708868026733398,0.46153846153846156,0.9423076923076923,0.21428571428571427,0.7857142857142857,0.0004
305,1.037678986787796,1.3132668733596802,0.5,0.9807692307692307,0.2857142857142857,0.9285714285714286,0.0004
306,1.3289582133293152,1.3303215503692627,0.46153846153846156,0.9038461538461539,0.2857142857142857,0.9285714285714286,0.0004
307,1.2234658598899841,1.9228699207305908,0.46153846153846156,0.9423076923076923,0.21428571428571427,0.7857142857142857,0.0004
308,1.1152724027633667,1.4567476511001587,0.5,0.9807692307692307,0.2857142857142857,0.9285714285714286,0.0004
309,1.2788718342781067,1.425010085105896,0.46153846153846156,0.9038461538461539,0.21428571428571427,0.8571428571428571,0.0004
310,1.141824334859848,1.3649203777313232,0.46153846153846156,0.9423076923076923,0.2857142857142857,0.9285714285714286,0.0004
311,1.3599429726600647,1.3776471614837646,0.46153846153846156,0.8653846153846154,0.21428571428571427,0.9285714285714286,0.0004
312,1.2414555549621582,1.8914581537246704,0.46153846153846156,0.9423076923076923,0.21428571428571427,0.7857142857142857,0.0004
313,1.2678366303443909,1.6437383890151978,0.4807692307692308,0.9038461538461539,0.21428571428571427,0.8571428571428571,0.0004
314,1.1198980212211609,1.7161041498184204,0.5,0.9615384615384616,0.21428571428571427,0.8571428571428571,0.0004
315,1.2925408482551575,1.4530816078186035,0.4230769230769231,0.9230769230769231,0.2857142857142857,0.8571428571428571,0.0004
316,1.2461609840393066,1.725777506828308,0.46153846153846156,0.9230769230769231,0.14285714285714285,0.8571428571428571,0.0004
317,1.0861638188362122,1.747732162475586,0.46153846153846156,0.9615384615384616,0.14285714285714285,0.8571428571428571,0.0004
318,1.1961774230003357,1.4720691442489624,0.46153846153846156,0.9230769230769231,0.2857142857142857,0.8571428571428571,0.0004
319,1.3544355034828186,1.518053412437439,0.46153846153846156,0.8653846153846154,0.21428571428571427,0.8571428571428571,0.0004
320,1.2565299272537231,1.3612749576568604,0.4423076923076923,0.9038461538461539,0.2857142857142857,0.9285714285714286,0.0004
321,0.9999299943447113,1.6207239627838135,0.4807692307692308,0.9807692307692307,0.21428571428571427,0.8571428571428571,0.0004
322,1.2692665457725525,1.4301470518112183,0.46153846153846156,0.9038461538461539,0.2857142857142857,0.8571428571428571,0.0004
323,1.1699247360229492,1.6117006540298462,0.46153846153846156,0.9423076923076923,0.2857142857142857,0.8571428571428571,0.0004
324,1.1682156324386597,1.6165790557861328,0.46153846153846156,0.9423076923076923,0.2857142857142857,0.8571428571428571,0.0004
325,1.2599124908447266,1.4074041843414307,0.4423076923076923,0.9423076923076923,0.21428571428571427,0.9285714285714286,0.0004
326,1.2700886726379395,1.423086404800415,0.4230769230769231,0.9038461538461539,0.35714285714285715,0.8571428571428571,0.0004
327,1.2399949431419373,1.4674952030181885,0.4807692307692308,0.9230769230769231,0.2857142857142857,0.8571428571428571,0.0004
328,1.241215169429779,1.536281704902649,0.4807692307692308,0.8846153846153846,0.21428571428571427,0.8571428571428571,0.0004
329,1.400177001953125,1.567131757736206,0.46153846153846156,0.8846153846153846,0.2857142857142857,0.8571428571428571,0.0004
330,1.4182279109954834,1.4327163696289062,0.4230769230769231,0.8653846153846154,0.35714285714285715,0.8571428571428571,0.0004
331,1.1403886675834656,1.7129559516906738,0.46153846153846156,0.9423076923076923,0.21428571428571427,0.7857142857142857,0.0004
332,1.332428753376007,1.6275694370269775,0.4423076923076923,0.8653846153846154,0.14285714285714285,0.8571428571428571,0.0004
333,1.2280963063240051,1.6097941398620605,0.4807692307692308,0.9230769230769231,0.21428571428571427,0.8571428571428571,0.0004
334,1.3270546197891235,1.638378620147705,0.5,0.9038461538461539,0.21428571428571427,0.8571428571428571,0.0004
335,1.106920748949051,1.7908430099487305,0.5,0.9615384615384616,0.14285714285714285,0.7857142857142857,0.0004
336,1.2205621004104614,1.5934079885482788,0.46153846153846156,0.9038461538461539,0.21428571428571427,0.8571428571428571,0.0004
337,1.1851731538772583,1.3104214668273926,0.46153846153846156,0.9230769230769231,0.2857142857142857,0.9285714285714286,0.0004
338,1.268271267414093,1.5530509948730469,0.4230769230769231,0.9038461538461539,0.21428571428571427,0.7857142857142857,0.0004
339,1.3374150395393372,1.5642699003219604,0.4807692307692308,0.9038461538461539,0.2857142857142857,0.8571428571428571,0.0004
340,1.2677226066589355,1.770132303237915,0.4423076923076923,0.8653846153846154,0.21428571428571427,0.8571428571428571,0.0004
341,1.0663006901741028,1.7547268867492676,0.5192307692307693,0.9615384615384616,0.14285714285714285,0.7857142857142857,0.0004
342,1.1876545548439026,1.8472988605499268,0.4807692307692308,0.9230769230769231,0.21428571428571427,0.7857142857142857,0.0004
343,1.2354458570480347,1.6464812755584717,0.46153846153846156,0.8846153846153846,0.21428571428571427,0.7142857142857143,0.0004
344,1.3471384644508362,1.784721851348877,0.46153846153846156,0.8653846153846154,0.2857142857142857,0.7857142857142857,0.0004
345,1.2987074851989746,1.6394320726394653,0.4230769230769231,0.8846153846153846,0.21428571428571427,0.7857142857142857,0.0004
346,1.215374231338501,1.737768530845642,0.46153846153846156,0.9230769230769231,0.21428571428571427,0.7857142857142857,0.0004
347,1.3100183010101318,1.4157066345214844,0.4423076923076923,0.8846153846153846,0.2857142857142857,0.8571428571428571,0.0004
348,1.2949745059013367,1.6667490005493164,0.4423076923076923,0.9038461538461539,0.2857142857142857,0.7142857142857143,0.0004
349,1.2398184537887573,1.8978173732757568,0.46153846153846156,0.8846153846153846,0.21428571428571427,0.7857142857142857,0.0004
350,1.1773990392684937,1.5662202835083008,0.4230769230769231,0.9230769230769231,0.2857142857142857,0.8571428571428571,0.0004
351,1.254686713218689,1.9590415954589844,0.5769230769230769,0.9038461538461539,0.42857142857142855,0.7857142857142857,0.0004
352,1.1218857169151306,1.9945058822631836,0.5576923076923077,0.9423076923076923,0.21428571428571427,0.7857142857142857,0.0004
353,1.0767897963523865,1.4759732484817505,0.5384615384615384,0.9615384615384616,0.2857142857142857,0.9285714285714286,0.0004
354,1.3568916320800781,1.603403091430664,0.4230769230769231,0.8653846153846154,0.35714285714285715,0.8571428571428571,0.0004
355,1.09718719124794,1.3948886394500732,0.4423076923076923,0.9615384615384616,0.5,0.9285714285714286,0.0004
356,1.240714430809021,1.9358642101287842,0.5576923076923077,0.8846153846153846,0.35714285714285715,0.8571428571428571,0.0004
357,1.2059065103530884,1.8725526332855225,0.4423076923076923,0.9230769230769231,0.2857142857142857,0.8571428571428571,0.0004
358,1.0576770901679993,1.6540193557739258,0.4807692307692308,1.0,0.42857142857142855,0.7857142857142857,0.0004
359,1.226148784160614,1.8709025382995605,0.5192307692307693,0.9230769230769231,0.35714285714285715,0.7857142857142857,0.0004
360,1.1677921414375305,1.5239797830581665,0.5384615384615384,0.9230769230769231,0.35714285714285715,0.8571428571428571,0.0004
361,1.1830917000770569,1.777549386024475,0.4230769230769231,0.9423076923076923,0.2857142857142857,0.8571428571428571,0.0004
362,1.3838247060775757,1.582505702972412,0.46153846153846156,0.8653846153846154,0.2857142857142857,0.8571428571428571,0.0004
363,1.1895506978034973,1.731803297996521,0.5192307692307693,0.9423076923076923,0.35714285714285715,0.8571428571428571,0.0004
364,1.194031298160553,1.6250622272491455,0.46153846153846156,0.9615384615384616,0.21428571428571427,0.8571428571428571,0.0004
365,1.1973817646503448,1.567911982536316,0.5384615384615384,0.9423076923076923,0.35714285714285715,0.8571428571428571,0.0004
366,1.2156160473823547,1.6512200832366943,0.40384615384615385,0.9230769230769231,0.5,0.8571428571428571,0.0004
367,1.1472293138504028,1.6240618228912354,0.4807692307692308,0.9423076923076923,0.14285714285714285,0.8571428571428571,0.0004
368,1.2781827449798584,1.6012871265411377,0.46153846153846156,0.9038461538461539,0.5,0.8571428571428571,0.0004
369,1.2533133029937744,1.4835036993026733,0.4807692307692308,0.8846153846153846,0.5714285714285714,0.7857142857142857,0.0004
370,1.343678057193756,1.7178938388824463,0.4230769230769231,0.9038461538461539,0.5,0.8571428571428571,0.0004
371,1.3198195695877075,1.5059552192687988,0.5192307692307693,0.8846153846153846,0.42857142857142855,0.9285714285714286,0.0004
372,1.3523979783058167,1.2069774866104126,0.46153846153846156,0.9038461538461539,0.5714285714285714,0.9285714285714286,0.0004
373,1.2183305621147156,1.8612431287765503,0.4807692307692308,0.8846153846153846,0.35714285714285715,0.7142857142857143,0.0004
374,1.4635129570960999,1.6660248041152954,0.5192307692307693,0.8653846153846154,0.42857142857142855,0.7857142857142857,0.0004
375,1.0920673608779907,1.5164810419082642,0.5,0.9423076923076923,0.2857142857142857,0.8571428571428571,0.0004
376,1.430257797241211,1.565154790878296,0.46153846153846156,0.8846153846153846,0.35714285714285715,0.8571428571428571,0.0004
377,1.1594891548156738,1.708009123802185,0.4807692307692308,0.9615384615384616,0.2857142857142857,0.7857142857142857,0.0004
378,1.1841338872909546,1.9180785417556763,0.5192307692307693,0.9423076923076923,0.2857142857142857,0.6428571428571429,0.0004
379,1.1342942118644714,1.3010683059692383,0.5961538461538461,0.9423076923076923,0.5714285714285714,0.9285714285714286,0.0004
380,1.195974349975586,1.8140618801116943,0.5,0.8846153846153846,0.2857142857142857,0.7857142857142857,0.0004
381,1.4548377990722656,1.7980397939682007,0.4807692307692308,0.8269230769230769,0.2857142857142857,0.7857142857142857,0.0004
382,1.1539427638053894,1.325629472732544,0.5,0.9230769230769231,0.2857142857142857,0.9285714285714286,0.0004
383,1.0864055156707764,1.511746883392334,0.4807692307692308,0.9423076923076923,0.2857142857142857,0.8571428571428571,0.0004
384,1.057446837425232,1.6152613162994385,0.5,0.9615384615384616,0.2857142857142857,0.8571428571428571,0.0004
385,1.1981667280197144,1.6815776824951172,0.46153846153846156,0.9038461538461539,0.21428571428571427,0.7857142857142857,0.0004
386,1.1869143843650818,1.339571237564087,0.4423076923076923,0.9423076923076923,0.21428571428571427,0.8571428571428571,0.0004
387,1.1153106093406677,1.4587522745132446,0.46153846153846156,0.9423076923076923,0.2857142857142857,0.8571428571428571,0.0004
388,1.1075705289840698,1.6418248414993286,0.4423076923076923,0.9615384615384616,0.2857142857142857,0.8571428571428571,0.0004
389,1.2976150512695312,1.613234281539917,0.46153846153846156,0.8846153846153846,0.2857142857142857,0.8571428571428571,0.0004
390,1.1913974285125732,1.587493896484375,0.5,0.9038461538461539,0.21428571428571427,0.8571428571428571,0.0004
391,1.3454914689064026,1.5383808612823486,0.46153846153846156,0.8461538461538461,0.2857142857142857,0.8571428571428571,0.0004
392,1.29067063331604,1.5301437377929688,0.4807692307692308,0.8269230769230769,0.42857142857142855,0.8571428571428571,0.0004
393,1.4399730563163757,1.5598572492599487,0.5,0.8269230769230769,0.35714285714285715,0.8571428571428571,0.0004
394,1.2219680547714233,1.453179955482483,0.5769230769230769,0.8269230769230769,0.42857142857142855,0.8571428571428571,0.0004
395,1.2640990018844604,1.3358430862426758,0.6153846153846154,0.9038461538461539,0.42857142857142855,0.9285714285714286,0.0004
396,1.2110782265663147,1.6238274574279785,0.4423076923076923,0.9423076923076923,0.6428571428571429,0.7142857142857143,0.0004
397,1.2867134809494019,1.6367614269256592,0.5384615384615384,0.9038461538461539,0.42857142857142855,0.8571428571428571,0.0004
398,1.3581382632255554,1.582174301147461,0.5,0.8653846153846154,0.2857142857142857,0.9285714285714286,0.0004
399,1.2463217377662659,1.3898844718933105,0.5,0.8653846153846154,0.6428571428571429,0.8571428571428571,0.0004
400,1.2328470349311829,1.5760365724563599,0.5192307692307693,0.8653846153846154,0.42857142857142855,0.8571428571428571,0.0004
401,1.337059497833252,1.8380433320999146,0.46153846153846156,0.8461538461538461,0.35714285714285715,0.8571428571428571,0.0004
402,1.2937766313552856,1.693703532218933,0.46153846153846156,0.8653846153846154,0.42857142857142855,0.8571428571428571,0.0004
403,1.2736278772354126,1.6652216911315918,0.46153846153846156,0.8653846153846154,0.35714285714285715,0.8571428571428571,0.0004
404,1.260180413722992,1.590969204902649,0.40384615384615385,0.9230769230769231,0.42857142857142855,0.8571428571428571,0.0004
405,1.1763444542884827,1.7898443937301636,0.4807692307692308,0.9038461538461539,0.21428571428571427,0.8571428571428571,0.0004
406,1.05667382478714,1.6206552982330322,0.5192307692307693,0.9423076923076923,0.5,0.7142857142857143,0.0004
407,1.45082426071167,1.5426967144012451,0.4423076923076923,0.8461538461538461,0.5,0.8571428571428571,0.0004
408,1.183270514011383,1.6246963739395142,0.5192307692307693,0.9423076923076923,0.42857142857142855,0.8571428571428571,0.0004
409,1.2447094917297363,1.34657883644104,0.5192307692307693,0.9230769230769231,0.35714285714285715,0.9285714285714286,0.0004
410,1.1852111220359802,1.6832292079925537,0.40384615384615385,0.9423076923076923,0.2857142857142857,0.8571428571428571,0.0004
411,1.3243556022644043,1.5600337982177734,0.5,0.8653846153846154,0.21428571428571427,0.8571428571428571,0.0004
412,1.384317934513092,1.5729862451553345,0.4807692307692308,0.8269230769230769,0.35714285714285715,0.8571428571428571,0.0004
413,1.376654326915741,1.30710768699646,0.46153846153846156,0.8461538461538461,0.21428571428571427,0.8571428571428571,0.0004
414,1.225262463092804,1.6701171398162842,0.5192307692307693,0.8461538461538461,0.21428571428571427,0.8571428571428571,0.0004
415,1.2098362445831299,1.4339454174041748,0.4807692307692308,0.9038461538461539,0.14285714285714285,0.8571428571428571,0.0004
416,1.0888423323631287,1.701616883277893,0.4230769230769231,0.9615384615384616,0.2857142857142857,0.7142857142857143,0.0004
417,1.272744596004486,1.670283555984497,0.4807692307692308,0.9038461538461539,0.42857142857142855,0.8571428571428571,0.0004
418,1.3439565300941467,1.523576021194458,0.46153846153846156,0.8461538461538461,0.2857142857142857,0.7857142857142857,0.0004
419,1.2519073486328125,1.6370537281036377,0.4230769230769231,0.8846153846153846,0.21428571428571427,0.7857142857142857,0.0004
420,1.2629634141921997,1.6521894931793213,0.4807692307692308,0.8653846153846154,0.21428571428571427,0.8571428571428571,0.0004
421,1.2970762252807617,1.5835556983947754,0.4807692307692308,0.8461538461538461,0.2857142857142857,0.8571428571428571,0.0004
422,1.3153170943260193,1.7047502994537354,0.5192307692307693,0.8653846153846154,0.21428571428571427,0.8571428571428571,0.0004
423,1.3747642040252686,1.6987818479537964,0.5,0.8846153846153846,0.14285714285714285,0.7857142857142857,0.0004
424,1.185579240322113,1.4952720403671265,0.46153846153846156,0.9230769230769231,0.2857142857142857,0.8571428571428571,0.0004
425,1.2404642701148987,1.8182120323181152,0.4423076923076923,0.8846153846153846,0.21428571428571427,0.7857142857142857,0.0004
426,1.1780202388763428,1.5438199043273926,0.4423076923076923,0.9038461538461539,0.2857142857142857,0.7857142857142857,0.0004
427,1.1765790581703186,2.022742986679077,0.46153846153846156,0.9038461538461539,0.14285714285714285,0.7857142857142857,0.0004
428,1.1530527472496033,1.442266821861267,0.5,0.9423076923076923,0.21428571428571427,0.8571428571428571,0.0004
429,1.24662446975708,1.561823844909668,0.4423076923076923,0.9423076923076923,0.35714285714285715,0.8571428571428571,0.0004
430,1.228215515613556,1.6876626014709473,0.5192307692307693,0.8846153846153846,0.2857142857142857,0.8571428571428571,0.0004
431,1.319261372089386,1.4444689750671387,0.40384615384615385,0.8461538461538461,0.35714285714285715,0.8571428571428571,0.0004
432,1.1204875111579895,1.3572590351104736,0.6153846153846154,0.9423076923076923,0.5,0.9285714285714286,0.0004
433,1.1611422300338745,1.2672386169433594,0.5769230769230769,0.9423076923076923,0.5,0.8571428571428571,0.0004
434,1.1248462796211243,1.7993731498718262,0.5,0.9423076923076923,0.21428571428571427,0.7857142857142857,0.0004
435,1.2394442558288574,1.5350340604782104,0.4807692307692308,0.9230769230769231,0.42857142857142855,0.8571428571428571,0.0004
436,1.1022623181343079,1.2702858448028564,0.5,0.9423076923076923,0.5714285714285714,0.9285714285714286,0.0004
437,1.1238630414009094,1.7402677536010742,0.5384615384615384,0.9807692307692307,0.5,0.7857142857142857,0.0004
438,1.3508968949317932,1.4431347846984863,0.4230769230769231,0.8846153846153846,0.5714285714285714,0.8571428571428571,0.0004
439,1.1319880485534668,1.6201320886611938,0.40384615384615385,0.9423076923076923,0.14285714285714285,0.8571428571428571,0.0004
440,1.2941207885742188,1.3897029161453247,0.40384615384615385,0.9038461538461539,0.35714285714285715,0.8571428571428571,0.0004
441,1.1664046049118042,1.5223554372787476,0.4423076923076923,0.9038461538461539,0.42857142857142855,0.7857142857142857,0.0004
442,1.156041145324707,1.6913907527923584,0.5961538461538461,0.8846153846153846,0.42857142857142855,0.8571428571428571,0.0004
443,1.1031829118728638,1.5054614543914795,0.4807692307692308,0.9423076923076923,0.42857142857142855,0.8571428571428571,0.0004
444,1.1151471138000488,1.6338051557540894,0.4807692307692308,0.9038461538461539,0.2857142857142857,0.8571428571428571,0.0004
445,1.025290608406067,1.8579609394073486,0.4807692307692308,1.0,0.21428571428571427,0.7857142857142857,0.0004
446,1.6782755255699158,2.3670082092285156,0.40384615384615385,0.8461538461538461,0.2857142857142857,0.6428571428571429,0.0004
447,1.1993606686592102,1.9975954294204712,0.5,0.9038461538461539,0.21428571428571427,0.7857142857142857,0.0004
448,1.1720421612262726,1.2266979217529297,0.46153846153846156,0.9038461538461539,0.5,0.9285714285714286,0.0004
449,1.2323119044303894,1.3135743141174316,0.46153846153846156,0.9230769230769231,0.5,0.9285714285714286,0.0004
450,1.3696934580802917,1.6206562519073486,0.4807692307692308,0.8653846153846154,0.2857142857142857,0.8571428571428571,0.0004
451,1.0792297720909119,1.454123616218567,0.5384615384615384,0.9230769230769231,0.35714285714285715,0.9285714285714286,0.0004
452,1.1903074383735657,1.644081950187683,0.4230769230769231,0.9230769230769231,0.2857142857142857,0.7857142857142857,0.0004
453,1.1157906651496887,1.3893074989318848,0.5,0.9615384615384616,0.35714285714285715,0.9285714285714286,0.0004
454,1.0280816555023193,1.942206859588623,0.5,0.9807692307692307,0.21428571428571427,0.7857142857142857,0.0004
455,1.084642231464386,1.3282560110092163,0.46153846153846156,0.9615384615384616,0.42857142857142855,0.9285714285714286,0.0004
456,1.2784156799316406,1.4962574243545532,0.46153846153846156,0.9230769230769231,0.35714285714285715,0.7142857142857143,0.0004
457,1.3203561305999756,1.9153226613998413,0.4807692307692308,0.9038461538461539,0.35714285714285715,0.7857142857142857,0.0004
458,1.3791781663894653,1.461026668548584,0.5,0.8269230769230769,0.2857142857142857,0.8571428571428571,0.0004
459,1.173900842666626,1.6249167919158936,0.46153846153846156,0.9230769230769231,0.2857142857142857,0.7857142857142857,0.0004
460,1.1122322082519531,1.509990930557251,0.5192307692307693,0.9230769230769231,0.21428571428571427,0.8571428571428571,0.0004
461,1.1450061798095703,1.6264381408691406,0.46153846153846156,0.9038461538461539,0.2857142857142857,0.8571428571428571,0.0004
462,1.1286515593528748,1.786972999572754,0.5769230769230769,0.9038461538461539,0.21428571428571427,0.8571428571428571,0.0004
463,1.0501537919044495,2.053636312484741,0.5192307692307693,0.9423076923076923,0.14285714285714285,0.7142857142857143,0.0004
464,1.1507095992565155,1.6917153596878052,0.5192307692307693,0.9038461538461539,0.35714285714285715,0.7857142857142857,0.0004
465,1.1987935900688171,1.2429983615875244,0.5576923076923077,0.9230769230769231,0.42857142857142855,0.9285714285714286,0.0004
466,1.1460713148117065,1.7395304441452026,0.46153846153846156,0.9230769230769231,0.2857142857142857,0.7857142857142857,0.0004
467,1.2150754928588867,1.4343633651733398,0.4807692307692308,0.9038461538461539,0.35714285714285715,0.8571428571428571,0.0004
468,1.2152066826820374,1.5521572828292847,0.5,0.9423076923076923,0.2857142857142857,0.8571428571428571,0.0004
469,1.1354983448982239,1.809797763824463,0.5192307692307693,0.9038461538461539,0.35714285714285715,0.7142857142857143,0.0004
470,1.1738848686218262,1.8630445003509521,0.4423076923076923,0.9423076923076923,0.2857142857142857,0.8571428571428571,0.0004
471,1.4014596343040466,1.8207927942276,0.5384615384615384,0.8653846153846154,0.5,0.7857142857142857,0.0004
472,1.1587308049201965,1.5379770994186401,0.5769230769230769,0.9615384615384616,0.42857142857142855,0.7857142857142857,0.0004
473,1.0994933545589447,1.769446849822998,0.5192307692307693,0.9423076923076923,0.35714285714285715,0.8571428571428571,0.0004
474,1.0490069091320038,1.7214179039001465,0.5384615384615384,0.9230769230769231,0.42857142857142855,0.8571428571428571,0.0004
475,1.0553419589996338,1.5068838596343994,0.5769230769230769,0.9615384615384616,0.42857142857142855,0.8571428571428571,0.0004
476,1.0269230008125305,1.638826847076416,0.5,0.9230769230769231,0.42857142857142855,0.8571428571428571,0.0004
477,1.1865312159061432,1.854421854019165,0.6153846153846154,0.8846153846153846,0.5,0.7857142857142857,0.0004
478,1.393935739994049,1.4499520063400269,0.4807692307692308,0.9038461538461539,0.5,0.8571428571428571,0.0004
479,1.0991389155387878,2.0468544960021973,0.5961538461538461,0.9423076923076923,0.2857142857142857,0.7857142857142857,0.0004
480,1.1191746890544891,1.7302706241607666,0.5961538461538461,0.9615384615384616,0.21428571428571427,0.8571428571428571,0.0004
481,1.0224290192127228,1.3224167823791504,0.5961538461538461,0.9423076923076923,0.35714285714285715,0.8571428571428571,0.0004
482,0.9847044050693512,1.339487075805664,0.5384615384615384,0.9423076923076923,0.2857142857142857,0.9285714285714286,0.0004
483,1.3397607803344727,1.7076117992401123,0.4807692307692308,0.9038461538461539,0.21428571428571427,0.8571428571428571,0.0004
484,1.1689894795417786,1.5126781463623047,0.5,0.9423076923076923,0.2857142857142857,0.8571428571428571,0.0004
485,1.2290263772010803,1.6689074039459229,0.4807692307692308,0.9038461538461539,0.2857142857142857,0.8571428571428571,0.0004
486,1.0139322876930237,1.5037174224853516,0.5192307692307693,0.9615384615384616,0.2857142857142857,0.8571428571428571,0.0004
487,1.0936522483825684,1.8028396368026733,0.4807692307692308,0.9615384615384616,0.35714285714285715,0.7857142857142857,0.0004
488,1.1790475249290466,1.5355024337768555,0.4807692307692308,0.9423076923076923,0.2857142857142857,0.8571428571428571,0.0004
489,1.054907500743866,1.5789809226989746,0.5,0.9807692307692307,0.21428571428571427,0.8571428571428571,0.0004
490,1.2055671215057373,1.3440327644348145,0.5,0.9230769230769231,0.2857142857142857,0.9285714285714286,0.0004
491,1.0003201961517334,1.527665615081787,0.5384615384615384,0.9615384615384616,0.35714285714285715,0.8571428571428571,0.0004
492,1.2479575276374817,1.3157414197921753,0.4807692307692308,0.9038461538461539,0.35714285714285715,0.9285714285714286,0.0004
493,0.9980446100234985,1.4156805276870728,0.5769230769230769,0.9807692307692307,0.35714285714285715,0.8571428571428571,0.0004
494,1.0491107404232025,1.9277130365371704,0.5384615384615384,0.9423076923076923,0.35714285714285715,0.7857142857142857,0.0004
495,1.128542959690094,1.4643025398254395,0.4807692307692308,0.9230769230769231,0.2857142857142857,0.8571428571428571,0.0004
496,1.1822880506515503,1.4111206531524658,0.46153846153846156,0.8846153846153846,0.5,0.8571428571428571,0.0004
497,1.67576265335083,1.2205214500427246,0.40384615384615385,0.8461538461538461,0.5714285714285714,0.8571428571428571,0.0004
498,1.9759567975997925,1.8103665113449097,0.5961538461538461,0.7307692307692307,0.42857142857142855,0.6428571428571429,0.0004
499,1.876802921295166,1.7319588661193848,0.4230769230769231,0.75,0.5,0.7142857142857143,0.0004
500,1.592430591583252,1.550054907798767,0.4807692307692308,0.7692307692307693,0.35714285714285715,0.7857142857142857,0.0004
501,1.2855690121650696,1.508868932723999,0.5192307692307693,0.7884615384615384,0.5,0.7857142857142857,0.0004
502,1.2218263149261475,1.438957691192627,0.5,0.9038461538461539,0.42857142857142855,0.8571428571428571,0.0004
503,1.3903951048851013,1.5208004713058472,0.5192307692307693,0.9038461538461539,0.42857142857142855,0.8571428571428571,0.0004
504,1.25336092710495,1.316049337387085,0.4423076923076923,0.8461538461538461,0.5,0.8571428571428571,0.0004
505,1.2901920676231384,1.422926664352417,0.5192307692307693,0.8461538461538461,0.35714285714285715,0.8571428571428571,0.0004
506,1.3274853825569153,1.5761961936950684,0.4230769230769231,0.8461538461538461,0.14285714285714285,0.8571428571428571,0.0004
507,1.3106992840766907,1.658926248550415,0.4423076923076923,0.8653846153846154,0.35714285714285715,0.8571428571428571,0.0004
508,1.2183782458305359,1.6263264417648315,0.4807692307692308,0.8461538461538461,0.2857142857142857,0.8571428571428571,0.0004
509,1.1655957102775574,1.757672905921936,0.5961538461538461,0.8846153846153846,0.21428571428571427,0.8571428571428571,0.0004
510,1.2095825672149658,1.7136441469192505,0.46153846153846156,0.8653846153846154,0.21428571428571427,0.8571428571428571,0.0004
511,1.0710743069648743,1.613158106803894,0.6153846153846154,0.9423076923076923,0.5714285714285714,0.8571428571428571,0.0004
512,1.2970278859138489,1.2494335174560547,0.5192307692307693,0.9230769230769231,0.5,0.8571428571428571,0.0004
513,1.122428834438324,1.253220558166504,0.5,0.9423076923076923,0.5714285714285714,0.9285714285714286,0.0004
514,1.0279778242111206,1.1440328359603882,0.5192307692307693,1.0,0.5714285714285714,0.9285714285714286,0.0004
515,1.1147549152374268,1.4751118421554565,0.5,1.0,0.35714285714285715,0.8571428571428571,0.0004
516,1.2510916590690613,1.4744343757629395,0.5192307692307693,0.9423076923076923,0.35714285714285715,0.7857142857142857,0.0004
517,1.100983738899231,1.4495084285736084,0.5192307692307693,0.9423076923076923,0.2857142857142857,0.8571428571428571,0.0004
518,0.9499971866607666,1.5721848011016846,0.6346153846153846,0.9807692307692307,0.42857142857142855,0.7857142857142857,0.0004
519,1.0877071619033813,1.924108862876892,0.5,0.9807692307692307,0.21428571428571427,0.6428571428571429,0.0004
520,1.053789734840393,1.504411220550537,0.5769230769230769,0.9615384615384616,0.35714285714285715,0.8571428571428571,0.0004
521,1.1937736570835114,1.571649193763733,0.5384615384615384,0.9230769230769231,0.42857142857142855,0.8571428571428571,0.0004
522,1.0161890387535095,1.496457815170288,0.5,0.9423076923076923,0.42857142857142855,0.8571428571428571,0.0004
523,1.0655219554901123,1.561747431755066,0.5384615384615384,0.9423076923076923,0.5,0.8571428571428571,0.0004
524,1.1766716241836548,1.4475740194320679,0.38461538461538464,0.9423076923076923,0.42857142857142855,0.8571428571428571,0.0004
525,1.3645588755607605,2.064586639404297,0.46153846153846156,0.9230769230769231,0.2857142857142857,0.7857142857142857,0.0004
526,1.1743649244308472,1.6302465200424194,0.5769230769230769,0.9230769230769231,0.5,0.8571428571428571,0.0004
527,1.0793688893318176,1.6007421016693115,0.4807692307692308,0.9615384615384616,0.42857142857142855,0.7857142857142857,0.0004
528,1.1283676624298096,1.7419018745422363,0.5384615384615384,0.9423076923076923,0.2857142857142857,0.8571428571428571,0.0004
529,1.3063248991966248,1.7382892370224,0.46153846153846156,0.8846153846153846,0.2857142857142857,0.7142857142857143,0.0004
530,1.2624372839927673,1.5206867456436157,0.4807692307692308,0.9423076923076923,0.35714285714285715,0.8571428571428571,0.0004
531,1.2289463877677917,1.2917569875717163,0.5,0.9038461538461539,0.35714285714285715,0.9285714285714286,0.0004
532,1.1079516410827637,2.21631121635437,0.5,0.9230769230769231,0.2857142857142857,0.7142857142857143,0.0004
533,1.1853199005126953,1.3803601264953613,0.46153846153846156,0.9230769230769231,0.2857142857142857,0.7857142857142857,0.0004
534,1.2008594870567322,1.9255309104919434,0.4807692307692308,0.9230769230769231,0.21428571428571427,0.7142857142857143,0.0004
535,1.3750824332237244,1.4317424297332764,0.4807692307692308,0.8653846153846154,0.21428571428571427,0.9285714285714286,0.0004
536,1.0824772715568542,1.4073829650878906,0.4807692307692308,0.9807692307692307,0.14285714285714285,0.8571428571428571,0.0004
537,1.2001908421516418,1.5849668979644775,0.46153846153846156,0.9423076923076923,0.2857142857142857,0.8571428571428571,0.0004
538,1.240195780992508,2.0192980766296387,0.5576923076923077,0.9423076923076923,0.14285714285714285,0.7857142857142857,0.0004
539,1.0811848044395447,1.73008394241333,0.5384615384615384,0.9615384615384616,0.35714285714285715,0.7857142857142857,0.0004
540,1.014917641878128,1.7598576545715332,0.5576923076923077,1.0,0.21428571428571427,0.8571428571428571,0.0004
541,1.2523718476295471,1.9219000339508057,0.5384615384615384,0.9038461538461539,0.2857142857142857,0.8571428571428571,0.0004
542,1.1839346885681152,1.800546407699585,0.5,0.9615384615384616,0.42857142857142855,0.8571428571428571,0.0004
543,1.1797740459442139,1.7626426219940186,0.5576923076923077,0.9615384615384616,0.21428571428571427,0.7857142857142857,0.0004
544,1.2121607661247253,1.8643039464950562,0.5769230769230769,0.9230769230769231,0.2857142857142857,0.8571428571428571,0.0004
545,1.0101398229599,1.3884516954421997,0.5192307692307693,0.9615384615384616,0.42857142857142855,0.8571428571428571,0.0004
546,1.1054243445396423,1.3719723224639893,0.6538461538461539,0.9423076923076923,0.5,0.9285714285714286,0.0004
547,1.152237892150879,1.5601303577423096,0.5384615384615384,0.8846153846153846,0.35714285714285715,0.8571428571428571,0.0004
548,1.1809205412864685,1.6742767095565796,0.5,0.9423076923076923,0.21428571428571427,0.7857142857142857,0.0004
549,1.1881465315818787,1.3333078622817993,0.5192307692307693,0.9423076923076923,0.42857142857142855,0.9285714285714286,0.0004
550,1.32392418384552,1.3415888547897339,0.5,0.8653846153846154,0.35714285714285715,0.9285714285714286,0.0004
551,1.244362473487854,1.503137230873108,0.5192307692307693,0.8846153846153846,0.35714285714285715,0.8571428571428571,0.0004
552,1.1636462807655334,1.2693349123001099,0.5384615384615384,0.9615384615384616,0.42857142857142855,0.9285714285714286,0.0004
553,1.1986833810806274,1.5348832607269287,0.4807692307692308,0.9423076923076923,0.21428571428571427,0.8571428571428571,0.0004
554,1.1118907928466797,1.9582712650299072,0.5192307692307693,0.9615384615384616,0.21428571428571427,0.7142857142857143,0.0004
555,1.0369127988815308,1.8190984725952148,0.5576923076923077,0.9807692307692307,0.21428571428571427,0.8571428571428571,0.0004
556,1.0053144097328186,1.260992169380188,0.5192307692307693,0.9423076923076923,0.2857142857142857,0.9285714285714286,0.0004
557,1.1617794036865234,1.7071913480758667,0.46153846153846156,0.9423076923076923,0.2857142857142857,0.7857142857142857,0.0004
558,1.02865731716156,1.7541110515594482,0.5192307692307693,0.9615384615384616,0.21428571428571427,0.7857142857142857,0.0004
559,1.155182659626007,1.537386178970337,0.4807692307692308,0.9230769230769231,0.2857142857142857,0.8571428571428571,0.0004
560,1.0711966753005981,1.692057490348816,0.5192307692307693,0.9615384615384616,0.42857142857142855,0.7857142857142857,0.0004
561,1.0985844135284424,1.8007938861846924,0.5576923076923077,0.9423076923076923,0.21428571428571427,0.7857142857142857,0.0004
562,1.3619067072868347,1.5850263833999634,0.5769230769230769,0.8846153846153846,0.42857142857142855,0.8571428571428571,0.0004
563,1.1627970933914185,2.043569564819336,0.4807692307692308,0.9230769230769231,0.42857142857142855,0.7142857142857143,0.0004
564,1.1575204133987427,1.334228754043579,0.5769230769230769,0.9615384615384616,0.35714285714285715,0.9285714285714286,0.0004
565,1.1636963188648224,1.2658307552337646,0.5192307692307693,0.9615384615384616,0.35714285714285715,0.9285714285714286,0.0004
566,1.0994857549667358,1.2576518058776855,0.5384615384615384,0.9615384615384616,0.42857142857142855,0.9285714285714286,0.0004
567,1.3527604937553406,1.4133721590042114,0.5192307692307693,0.8846153846153846,0.2857142857142857,0.8571428571428571,0.0004
568,1.0623859763145447,1.4705440998077393,0.5576923076923077,0.9230769230769231,0.2857142857142857,0.8571428571428571,0.0004
569,1.218621015548706,1.7032763957977295,0.5,0.9230769230769231,0.14285714285714285,0.8571428571428571,0.0004
570,1.1396976113319397,1.4212443828582764,0.46153846153846156,0.9423076923076923,0.2857142857142857,0.8571428571428571,0.0004
571,1.2172186970710754,1.544811487197876,0.5384615384615384,0.8653846153846154,0.2857142857142857,0.7857142857142857,0.0004
572,1.1419823169708252,1.365484595298767,0.5,0.9230769230769231,0.42857142857142855,0.8571428571428571,0.0004
573,1.1791217923164368,1.3105815649032593,0.4423076923076923,0.9230769230769231,0.5,0.8571428571428571,0.0004
574,1.171507477760315,1.6824157238006592,0.5,0.9038461538461539,0.42857142857142855,0.7857142857142857,0.0004
575,1.2587175965309143,1.3362170457839966,0.4807692307692308,0.9230769230769231,0.35714285714285715,0.9285714285714286,0.0004
576,1.1985243558883667,1.4129266738891602,0.5,0.9615384615384616,0.5,0.7857142857142857,0.0004
577,1.1528368592262268,1.2546541690826416,0.5,0.9423076923076923,0.35714285714285715,0.9285714285714286,0.0004
578,1.064245343208313,1.5267053842544556,0.6153846153846154,0.9807692307692307,0.42857142857142855,0.8571428571428571,0.0004
579,1.083417534828186,1.720677137374878,0.6346153846153846,0.9423076923076923,0.35714285714285715,0.7857142857142857,0.0004
580,1.1492582559585571,1.282721996307373,0.5,0.9230769230769231,0.42857142857142855,0.8571428571428571,0.0004
581,1.068362832069397,1.209385633468628,0.5769230769230769,0.9423076923076923,0.5,0.9285714285714286,0.0004
582,1.217777132987976,2.0699849128723145,0.5576923076923077,0.8846153846153846,0.2857142857142857,0.7142857142857143,0.0004
583,1.0873902440071106,1.5466303825378418,0.5192307692307693,0.9615384615384616,0.2857142857142857,0.7857142857142857,0.0004
584,1.1048208475112915,1.5400645732879639,0.5384615384615384,0.9423076923076923,0.42857142857142855,0.8571428571428571,0.0004
585,0.9601137042045593,1.6527066230773926,0.5,0.9807692307692307,0.35714285714285715,0.8571428571428571,0.0004
586,1.084915578365326,1.5500237941741943,0.5769230769230769,0.9615384615384616,0.35714285714285715,0.8571428571428571,0.0004
587,1.0355531871318817,1.9905714988708496,0.5384615384615384,0.9423076923076923,0.42857142857142855,0.7857142857142857,0.0004
588,1.1075032949447632,1.5843666791915894,0.5,0.9230769230769231,0.2857142857142857,0.8571428571428571,0.0004
589,1.0872347950935364,1.4904428720474243,0.4807692307692308,0.9615384615384616,0.42857142857142855,0.8571428571428571,0.0004
590,1.119763731956482,1.728451132774353,0.5192307692307693,0.9038461538461539,0.2857142857142857,0.8571428571428571,0.0004
591,1.1095793843269348,2.042691946029663,0.5,0.9615384615384616,0.21428571428571427,0.7857142857142857,0.0004
592,1.2586317658424377,1.4659836292266846,0.46153846153846156,0.9423076923076923,0.2857142857142857,0.8571428571428571,0.0004
593,1.1352673768997192,1.2668240070343018,0.5192307692307693,0.9423076923076923,0.2857142857142857,0.9285714285714286,0.0004
594,1.1535300612449646,1.3043358325958252,0.5,0.9615384615384616,0.35714285714285715,0.9285714285714286,0.0004
595,1.2748128771781921,1.8948822021484375,0.5,0.9230769230769231,0.2857142857142857,0.7857142857142857,0.0004
596,0.9789534509181976,1.4434254169464111,0.5,0.9807692307692307,0.5714285714285714,0.8571428571428571,0.0004
597,0.9319637417793274,1.5202915668487549,0.5576923076923077,0.9615384615384616,0.42857142857142855,0.7857142857142857,0.0004
598,1.1326910853385925,1.1896190643310547,0.4807692307692308,0.9615384615384616,0.21428571428571427,0.9285714285714286,0.0004
599,1.1009511947631836,1.2964556217193604,0.5192307692307693,0.9615384615384616,0.35714285714285715,0.8571428571428571,0.0004
600,1.290909856557846,1.1677556037902832,0.46153846153846156,0.9230769230769231,0.42857142857142855,0.9285714285714286,0.0004
601,1.5594622492790222,1.0530375242233276,0.4423076923076923,0.8653846153846154,0.42857142857142855,0.9285714285714286,0.0004
602,1.432657778263092,2.303159713745117,0.4230769230769231,0.8846153846153846,0.42857142857142855,0.6428571428571429,0.0004
603,1.8698344230651855,1.1509523391723633,0.5,0.75,0.5,0.9285714285714286,0.0004
604,1.7673318982124329,1.3721528053283691,0.5,0.75,0.6428571428571429,0.7857142857142857,0.0004
605,1.5428877472877502,2.2138524055480957,0.5576923076923077,0.7307692307692307,0.42857142857142855,0.5,0.0004
606,1.7410178184509277,1.0981056690216064,0.5384615384615384,0.6538461538461539,0.5,0.9285714285714286,0.0004
607,1.5006044507026672,1.626433253288269,0.46153846153846156,0.7307692307692307,0.5,0.7857142857142857,0.0004
608,1.3412509560585022,1.6592276096343994,0.46153846153846156,0.9423076923076923,0.42857142857142855,0.8571428571428571,0.0004
609,1.1747955083847046,1.1963119506835938,0.6153846153846154,0.8269230769230769,0.6428571428571429,0.8571428571428571,0.0004
610,1.1985321640968323,1.3482117652893066,0.5961538461538461,0.8269230769230769,0.42857142857142855,0.8571428571428571,0.0004
611,1.1548779606819153,1.4670019149780273,0.6538461538461539,0.8269230769230769,0.42857142857142855,0.8571428571428571,0.0004
612,1.293701410293579,1.7525922060012817,0.6153846153846154,0.8269230769230769,0.35714285714285715,0.8571428571428571,0.0004
613,1.4063968658447266,1.6062642335891724,0.5961538461538461,0.8269230769230769,0.35714285714285715,0.8571428571428571,0.0004
614,1.2657643556594849,1.8046574592590332,0.6346153846153846,0.8269230769230769,0.21428571428571427,0.8571428571428571,0.0004
615,1.3203339576721191,1.3918800354003906,0.6153846153846154,0.8269230769230769,0.6428571428571429,0.8571428571428571,0.0004
616,1.3023908138275146,1.3228936195373535,0.5576923076923077,0.8269230769230769,0.42857142857142855,0.8571428571428571,0.0004
617,1.2651333808898926,1.6968110799789429,0.46153846153846156,0.8269230769230769,0.2857142857142857,0.8571428571428571,0.0004
618,1.2307584285736084,1.329845905303955,0.6346153846153846,0.8269230769230769,0.42857142857142855,0.8571428571428571,0.0004
619,1.2168514132499695,1.421931505203247,0.5384615384615384,0.8269230769230769,0.35714285714285715,0.8571428571428571,0.0004
620,1.2705246806144714,1.4308719635009766,0.5384615384615384,0.8269230769230769,0.35714285714285715,0.8571428571428571,0.0004
621,1.1909434795379639,1.3200846910476685,0.5384615384615384,0.9423076923076923,0.5,0.8571428571428571,0.0004
622,1.1939337849617004,1.2815051078796387,0.46153846153846156,0.9230769230769231,0.6428571428571429,0.9285714285714286,0.0004
623,1.1952710151672363,1.334632396697998,0.5961538461538461,0.8846153846153846,0.5714285714285714,0.7857142857142857,0.0004
624,1.1241158246994019,1.4249674081802368,0.5961538461538461,0.9038461538461539,0.35714285714285715,0.9285714285714286,0.0004
625,1.1353487968444824,1.2865077257156372,0.5961538461538461,0.9230769230769231,0.5,0.7857142857142857,0.0004
626,1.331466555595398,1.4920525550842285,0.5,0.8653846153846154,0.5,0.7857142857142857,0.0004
627,1.2300679683685303,1.1556541919708252,0.46153846153846156,0.9230769230769231,0.6428571428571429,0.9285714285714286,0.0004
628,1.2157716751098633,1.4583745002746582,0.6346153846153846,0.8846153846153846,0.5,0.7857142857142857,0.0004
629,1.0658630728721619,1.760453224182129,0.5576923076923077,0.9807692307692307,0.5714285714285714,0.7857142857142857,0.0004
630,1.0848695039749146,1.1810537576675415,0.5769230769230769,0.9230769230769231,0.5714285714285714,0.9285714285714286,0.0004
631,1.4185737371444702,1.5769588947296143,0.4230769230769231,0.9038461538461539,0.2857142857142857,0.8571428571428571,0.0004
632,1.0403366684913635,1.345094919204712,0.6730769230769231,1.0,0.6428571428571429,0.8571428571428571,0.0004
633,1.1279434561729431,1.442326307296753,0.5576923076923077,0.9423076923076923,0.42857142857142855,0.8571428571428571,0.0004
634,1.1286256909370422,1.4659620523452759,0.6153846153846154,0.8846153846153846,0.42857142857142855,0.8571428571428571,0.0004
635,1.1449015736579895,1.35357666015625,0.5769230769230769,0.9038461538461539,0.5,0.8571428571428571,0.0004
636,1.1198157668113708,1.4356328248977661,0.5961538461538461,0.9423076923076923,0.5714285714285714,0.8571428571428571,0.0004
637,1.161653459072113,1.4220678806304932,0.5192307692307693,0.9038461538461539,0.35714285714285715,0.8571428571428571,0.0004
638,1.1672219634056091,1.3742542266845703,0.6153846153846154,0.8846153846153846,0.5,0.8571428571428571,0.0004
639,1.1567888855934143,1.330519437789917,0.6538461538461539,0.9423076923076923,0.42857142857142855,0.9285714285714286,0.0004
640,1.1508815288543701,1.2861368656158447,0.5576923076923077,0.9615384615384616,0.5714285714285714,0.7857142857142857,0.0004
641,1.0943565964698792,1.5973894596099854,0.5769230769230769,0.9230769230769231,0.42857142857142855,0.8571428571428571,0.0004
642,1.1315730214118958,1.374035358428955,0.4807692307692308,0.9423076923076923,0.42857142857142855,0.9285714285714286,0.0004
643,1.0475122928619385,1.3061192035675049,0.6153846153846154,0.9615384615384616,0.5,0.8571428571428571,0.0004
644,1.248178482055664,1.7755380868911743,0.5192307692307693,0.9038461538461539,0.42857142857142855,0.7857142857142857,0.0004
645,1.0707151591777802,1.2433717250823975,0.5192307692307693,0.9615384615384616,0.6428571428571429,0.7857142857142857,0.0004
646,1.0590440034866333,1.255986213684082,0.5384615384615384,0.9615384615384616,0.5,0.9285714285714286,0.0004
647,1.0634416937828064,1.798462152481079,0.6538461538461539,0.9230769230769231,0.35714285714285715,0.7857142857142857,0.0004
648,1.0686759650707245,2.157761335372925,0.6346153846153846,0.9615384615384616,0.2857142857142857,0.7857142857142857,0.0004
649,1.2570594549179077,1.6345804929733276,0.4807692307692308,0.8846153846153846,0.42857142857142855,0.8571428571428571,0.0004
650,1.1649493873119354,1.616373896598816,0.5384615384615384,0.9038461538461539,0.42857142857142855,0.8571428571428571,0.0004
651,1.0471059679985046,1.3730616569519043,0.5576923076923077,0.9615384615384616,0.21428571428571427,0.9285714285714286,0.0004
652,1.0350187420845032,1.6327898502349854,0.5384615384615384,0.9807692307692307,0.5,0.8571428571428571,0.0004
653,1.0577217936515808,1.571618676185608,0.5,0.9615384615384616,0.2857142857142857,0.8571428571428571,0.0004
654,1.278415560722351,1.687199354171753,0.5,0.9230769230769231,0.2857142857142857,0.8571428571428571,0.0004
655,1.2098491191864014,1.718156337738037,0.5769230769230769,0.9038461538461539,0.5,0.8571428571428571,0.0004
656,1.0964228510856628,1.8735381364822388,0.5961538461538461,0.9423076923076923,0.2857142857142857,0.8571428571428571,0.0004
657,1.1512150764465332,1.812516689300537,0.6153846153846154,0.9230769230769231,0.35714285714285715,0.8571428571428571,0.0004
658,1.2027231454849243,1.7277565002441406,0.5576923076923077,0.9230769230769231,0.42857142857142855,0.8571428571428571,0.0004
659,1.0943096280097961,1.503326416015625,0.5769230769230769,0.9423076923076923,0.5,0.8571428571428571,0.0004
660,1.257481038570404,1.3642442226409912,0.4807692307692308,0.9423076923076923,0.35714285714285715,0.8571428571428571,0.0004
661,1.1874562501907349,1.5996747016906738,0.5192307692307693,0.9423076923076923,0.35714285714285715,0.7857142857142857,0.0004
662,0.9855934679508209,1.559823751449585,0.5576923076923077,1.0,0.35714285714285715,0.7857142857142857,0.0004
663,1.205346167087555,1.4504848718643188,0.5,0.9038461538461539,0.42857142857142855,0.7857142857142857,0.0004
664,1.0443896353244781,1.221595287322998,0.6346153846153846,0.9615384615384616,0.5714285714285714,0.9285714285714286,0.0004
665,1.0729041695594788,1.3882821798324585,0.5961538461538461,0.9423076923076923,0.2857142857142857,0.9285714285714286,0.0004
666,1.257971167564392,1.3827497959136963,0.4423076923076923,0.9423076923076923,0.5,0.9285714285714286,0.0004
667,1.1811164617538452,1.2835147380828857,0.46153846153846156,0.9230769230769231,0.42857142857142855,0.9285714285714286,0.0004
668,1.1659038662910461,1.2944695949554443,0.5192307692307693,0.9423076923076923,0.7142857142857143,0.8571428571428571,0.0004
669,1.1149908304214478,1.564983606338501,0.5769230769230769,0.9230769230769231,0.35714285714285715,0.8571428571428571,0.0004
670,1.017956256866455,1.659189224243164,0.5961538461538461,0.9615384615384616,0.6428571428571429,0.8571428571428571,0.0004
671,1.0439491868019104,1.231981635093689,0.5192307692307693,0.9615384615384616,0.42857142857142855,0.9285714285714286,0.0004
672,1.0863417387008667,1.3754518032073975,0.5192307692307693,0.9615384615384616,0.5,0.8571428571428571,0.0004
673,0.9315924048423767,1.3683714866638184,0.6346153846153846,0.9807692307692307,0.35714285714285715,0.9285714285714286,0.0004
674,1.0620573163032532,1.2503244876861572,0.4423076923076923,0.9615384615384616,0.5,0.8571428571428571,0.0004
675,1.1427708268165588,1.4504729509353638,0.46153846153846156,0.9423076923076923,0.2857142857142857,0.8571428571428571,0.0004
676,1.13527911901474,1.2851505279541016,0.6153846153846154,0.9038461538461539,0.6428571428571429,0.8571428571428571,0.0004
677,1.040449619293213,1.6275970935821533,0.5192307692307693,0.9615384615384616,0.42857142857142855,0.7857142857142857,0.0004
678,1.0532338917255402,1.5222678184509277,0.5192307692307693,0.9423076923076923,0.42857142857142855,0.7857142857142857,0.0004
679,1.029688835144043,1.51825749874115,0.6153846153846154,0.9615384615384616,0.14285714285714285,0.8571428571428571,0.0004
680,1.1851776838302612,1.2169079780578613,0.5769230769230769,0.9423076923076923,0.42857142857142855,0.9285714285714286,0.0004
681,1.0990671217441559,1.3711254596710205,0.46153846153846156,0.9615384615384616,0.35714285714285715,0.9285714285714286,0.0004
682,0.9538451135158539,1.377065896987915,0.4807692307692308,0.9807692307692307,0.35714285714285715,0.8571428571428571,0.0004
683,0.9487254619598389,1.461925745010376,0.6153846153846154,0.9807692307692307,0.35714285714285715,0.8571428571428571,0.0004
684,0.8600245416164398,1.5739731788635254,0.6923076923076923,0.9807692307692307,0.35714285714285715,0.8571428571428571,0.0004
685,1.2278978824615479,1.5541750192642212,0.5576923076923077,0.9230769230769231,0.5,0.8571428571428571,0.0004
686,1.0812274515628815,1.6895723342895508,0.5384615384615384,0.9615384615384616,0.42857142857142855,0.8571428571428571,0.0004
687,1.22756427526474,1.5867266654968262,0.5,0.9230769230769231,0.42857142857142855,0.8571428571428571,0.0004
688,1.191182404756546,1.433807134628296,0.6153846153846154,0.9423076923076923,0.42857142857142855,0.8571428571428571,0.0004
689,1.3382547497749329,1.191847562789917,0.40384615384615385,0.9038461538461539,0.5,0.9285714285714286,0.0004
690,1.0859650373458862,1.3138400316238403,0.5576923076923077,0.9423076923076923,0.5,0.9285714285714286,0.0004
691,1.1563090682029724,1.2473392486572266,0.5,0.9230769230769231,0.42857142857142855,0.8571428571428571,0.0004
692,1.2189680635929108,1.854602575302124,0.4807692307692308,0.9038461538461539,0.35714285714285715,0.7857142857142857,0.0004
693,1.066897451877594,1.4002456665039062,0.5384615384615384,0.9615384615384616,0.2857142857142857,0.9285714285714286,0.0004
694,1.0430122017860413,1.6027870178222656,0.5769230769230769,0.9615384615384616,0.35714285714285715,0.8571428571428571,0.0004
695,1.0887362957000732,1.922652244567871,0.6346153846153846,0.9423076923076923,0.14285714285714285,0.7857142857142857,0.0004
696,1.2589210867881775,1.072601556777954,0.5,0.9038461538461539,0.5714285714285714,0.9285714285714286,0.0004
697,0.9656288623809814,1.4621131420135498,0.5,0.9615384615384616,0.42857142857142855,0.8571428571428571,0.0004
698,1.0103865563869476,1.4285047054290771,0.5769230769230769,0.9423076923076923,0.21428571428571427,0.9285714285714286,0.0004
699,0.9677190780639648,1.503804326057434,0.6730769230769231,0.9615384615384616,0.35714285714285715,0.8571428571428571,0.0004
700,0.9187587797641754,1.593050241470337,0.5192307692307693,0.9807692307692307,0.5,0.8571428571428571,0.0004
701,0.9804973900318146,1.7642080783843994,0.6346153846153846,0.9807692307692307,0.42857142857142855,0.7857142857142857,0.0004
702,1.0638979077339172,1.3358163833618164,0.5192307692307693,0.9423076923076923,0.35714285714285715,0.9285714285714286,0.0004
703,1.0974814891815186,1.529098391532898,0.5576923076923077,0.9423076923076923,0.35714285714285715,0.8571428571428571,0.0004
704,1.0395241975784302,1.1915936470031738,0.5769230769230769,0.9615384615384616,0.6428571428571429,0.9285714285714286,0.0004
705,1.0845928192138672,1.7061244249343872,0.6153846153846154,0.9423076923076923,0.2857142857142857,0.8571428571428571,0.0004
706,1.150543451309204,1.2119497060775757,0.5576923076923077,0.9423076923076923,0.42857142857142855,0.9285714285714286,0.0004
707,0.9273443520069122,1.5344350337982178,0.5769230769230769,0.9807692307692307,0.35714285714285715,0.8571428571428571,0.0004
708,0.8013277053833008,1.7450981140136719,0.6153846153846154,1.0,0.42857142857142855,0.7857142857142857,0.0004
709,1.1174883842468262,1.4315526485443115,0.5576923076923077,0.9423076923076923,0.5,0.8571428571428571,0.0004
710,0.9499917030334473,1.3065388202667236,0.5384615384615384,0.9807692307692307,0.14285714285714285,0.9285714285714286,0.0004
711,1.0252614319324493,1.3504760265350342,0.5192307692307693,0.9615384615384616,0.5,0.8571428571428571,0.0004
712,1.262511432170868,1.428157091140747,0.4807692307692308,0.9230769230769231,0.35714285714285715,0.8571428571428571,0.0004
713,1.1275442838668823,1.1480538845062256,0.46153846153846156,0.9230769230769231,0.6428571428571429,0.8571428571428571,0.0004
714,0.9363971054553986,1.436296820640564,0.5961538461538461,0.9807692307692307,0.42857142857142855,0.8571428571428571,0.0004
715,1.051496684551239,1.9847567081451416,0.5769230769230769,0.9230769230769231,0.21428571428571427,0.7857142857142857,0.0004
716,1.0185824632644653,1.5023036003112793,0.5576923076923077,0.9423076923076923,0.5,0.8571428571428571,0.0004
717,1.0087916553020477,1.3619011640548706,0.5,0.9615384615384616,0.35714285714285715,0.8571428571428571,0.0004
718,1.0629544258117676,1.4695861339569092,0.5961538461538461,0.9615384615384616,0.42857142857142855,0.8571428571428571,0.0004
719,0.9864331781864166,1.7568986415863037,0.5961538461538461,0.9423076923076923,0.42857142857142855,0.7857142857142857,0.0004
720,1.10434690117836,1.8027610778808594,0.5384615384615384,0.9615384615384616,0.35714285714285715,0.8571428571428571,0.0004
721,1.0777812600135803,1.7762020826339722,0.5961538461538461,0.9423076923076923,0.2857142857142857,0.8571428571428571,0.0004
722,1.0660979747772217,1.4412341117858887,0.5192307692307693,0.9807692307692307,0.5,0.8571428571428571,0.0004
723,1.1632938981056213,2.0421223640441895,0.5576923076923077,0.9423076923076923,0.2857142857142857,0.7142857142857143,0.0004
724,0.9819066524505615,1.8077373504638672,0.6153846153846154,0.9615384615384616,0.2857142857142857,0.7857142857142857,0.0004
725,1.15317302942276,1.5852490663528442,0.5961538461538461,0.9038461538461539,0.35714285714285715,0.7857142857142857,0.0004
726,1.085938274860382,1.9234102964401245,0.5,0.9615384615384616,0.35714285714285715,0.7857142857142857,0.0004
727,1.1734509468078613,1.7138967514038086,0.5,0.9038461538461539,0.42857142857142855,0.7142857142857143,0.0004
728,0.9957227110862732,1.6833374500274658,0.5384615384615384,0.9807692307692307,0.2857142857142857,0.7857142857142857,0.0004
729,0.9419007897377014,1.2453899383544922,0.5961538461538461,0.9615384615384616,0.42857142857142855,0.9285714285714286,0.0004
730,1.0178303718566895,1.6745725870132446,0.6346153846153846,0.9423076923076923,0.5,0.8571428571428571,0.0004
731,1.0903961062431335,1.654517650604248,0.6538461538461539,0.9230769230769231,0.35714285714285715,0.8571428571428571,0.0004
732,1.0601521730422974,1.3187339305877686,0.5384615384615384,0.9230769230769231,0.42857142857142855,0.8571428571428571,0.0004
733,0.9217633605003357,1.8280906677246094,0.5769230769230769,0.9615384615384616,0.5,0.7857142857142857,0.0004
734,1.065876543521881,1.982612133026123,0.6153846153846154,0.9230769230769231,0.2857142857142857,0.7857142857142857,0.0004
735,0.9845471680164337,1.4154491424560547,0.5961538461538461,0.9423076923076923,0.42857142857142855,0.8571428571428571,0.0004
736,1.0811328291893005,1.9443116188049316,0.5961538461538461,0.9038461538461539,0.42857142857142855,0.7142857142857143,0.0004
737,0.9477282166481018,1.1518898010253906,0.6153846153846154,0.9615384615384616,0.5,0.8571428571428571,0.0004
738,1.026721477508545,1.6234865188598633,0.5769230769230769,0.8846153846153846,0.5,0.8571428571428571,0.0004
739,1.1731924414634705,1.139986515045166,0.5769230769230769,0.8846153846153846,0.6428571428571429,0.8571428571428571,0.0004
740,1.0822510123252869,1.4809775352478027,0.5384615384615384,0.9038461538461539,0.5714285714285714,0.8571428571428571,0.0004
741,1.1039409041404724,1.4641284942626953,0.6153846153846154,0.9423076923076923,0.5,0.8571428571428571,0.0004
742,1.0313345789909363,1.3209940195083618,0.6153846153846154,0.9230769230769231,0.5,0.8571428571428571,0.0004
743,1.0745291709899902,1.8623261451721191,0.6153846153846154,0.9230769230769231,0.2857142857142857,0.7857142857142857,0.0004
744,1.2424628138542175,1.0181398391723633,0.5576923076923077,0.9038461538461539,0.5714285714285714,0.9285714285714286,0.0004
745,0.9932257533073425,1.6898963451385498,0.5961538461538461,0.9230769230769231,0.2857142857142857,0.8571428571428571,0.0004
746,1.4333927631378174,1.0247949361801147,0.5192307692307693,0.8653846153846154,0.7142857142857143,0.7857142857142857,0.0004
747,1.34697687625885,1.629293441772461,0.4230769230769231,0.9230769230769231,0.35714285714285715,0.8571428571428571,0.0004
748,1.3911160826683044,1.5832202434539795,0.5769230769230769,0.8269230769230769,0.42857142857142855,0.7857142857142857,0.0004
749,1.1420565843582153,1.4932928085327148,0.4230769230769231,0.9423076923076923,0.35714285714285715,0.8571428571428571,0.0004
750,1.1214855909347534,1.6850682497024536,0.5384615384615384,0.9615384615384616,0.35714285714285715,0.8571428571428571,0.0004
751,1.0328763723373413,1.3969913721084595,0.5576923076923077,0.9615384615384616,0.42857142857142855,0.8571428571428571,0.0004
752,1.0054312944412231,1.5329722166061401,0.5384615384615384,0.9615384615384616,0.5,0.8571428571428571,0.0004
753,1.0086930394172668,1.796083927154541,0.5576923076923077,0.9615384615384616,0.42857142857142855,0.7857142857142857,0.0004
754,1.043198823928833,1.9768385887145996,0.5576923076923077,0.9423076923076923,0.2857142857142857,0.7142857142857143,0.0004
755,0.8875406384468079,1.2676444053649902,0.5769230769230769,1.0,0.5,0.9285714285714286,0.0004
756,0.94072625041008,1.3382282257080078,0.6153846153846154,0.9807692307692307,0.2857142857142857,0.9285714285714286,0.0004
757,1.0602301359176636,1.6660561561584473,0.5576923076923077,0.9423076923076923,0.35714285714285715,0.8571428571428571,0.0004
758,1.0183236002922058,1.6277790069580078,0.5384615384615384,0.9615384615384616,0.5,0.8571428571428571,0.0004
759,1.336702823638916,1.5695536136627197,0.4807692307692308,0.8846153846153846,0.42857142857142855,0.7857142857142857,0.0004
760,1.2706486582756042,1.2849597930908203,0.5576923076923077,0.9038461538461539,0.5,0.9285714285714286,0.0004
761,0.8204364776611328,1.76139497756958,0.6538461538461539,0.9807692307692307,0.2857142857142857,0.8571428571428571,0.0004
762,0.9317436814308167,1.4594745635986328,0.6346153846153846,0.9615384615384616,0.42857142857142855,0.8571428571428571,0.0004
763,0.9340733587741852,1.7473490238189697,0.5576923076923077,0.9423076923076923,0.35714285714285715,0.8571428571428571,0.0004
764,1.1816126108169556,1.6206687688827515,0.5576923076923077,0.9038461538461539,0.35714285714285715,0.7857142857142857,0.0004
765,1.3335865139961243,1.278024673461914,0.5384615384615384,0.8846153846153846,0.5714285714285714,0.8571428571428571,0.0004
766,1.1706807017326355,1.7046303749084473,0.5769230769230769,0.9038461538461539,0.35714285714285715,0.8571428571428571,0.0004
767,1.09488844871521,1.3349589109420776,0.6538461538461539,0.8461538461538461,0.5,0.8571428571428571,0.0004
768,1.100632131099701,1.3097059726715088,0.6730769230769231,0.8653846153846154,0.5,0.8571428571428571,0.0004
769,1.048916608095169,1.6367061138153076,0.5576923076923077,0.9230769230769231,0.35714285714285715,0.8571428571428571,0.0004
770,1.169965773820877,1.2417243719100952,0.46153846153846156,0.9230769230769231,0.7142857142857143,0.8571428571428571,0.0004
771,0.9644019901752472,1.4347560405731201,0.6923076923076923,0.9230769230769231,0.6428571428571429,0.8571428571428571,0.0004
772,1.1869856119155884,1.3345308303833008,0.5384615384615384,0.9230769230769231,0.5714285714285714,0.7857142857142857,0.0004
773,0.9047705233097076,1.3947893381118774,0.6538461538461539,0.9615384615384616,0.42857142857142855,0.8571428571428571,0.0004
774,1.038650095462799,1.6180411577224731,0.5384615384615384,0.9423076923076923,0.35714285714285715,0.8571428571428571,0.0004
775,0.9562457203865051,1.5369625091552734,0.6923076923076923,0.9230769230769231,0.5714285714285714,0.8571428571428571,0.0004
776,1.1781437397003174,1.4044839143753052,0.5961538461538461,0.9038461538461539,0.35714285714285715,0.8571428571428571,0.0004
777,1.0257647037506104,1.8153502941131592,0.5769230769230769,0.9615384615384616,0.42857142857142855,0.7857142857142857,0.0004
778,1.0331420302391052,1.1709851026535034,0.5961538461538461,0.9230769230769231,0.5714285714285714,0.9285714285714286,0.0004
779,0.9931794106960297,1.4054408073425293,0.6346153846153846,0.9230769230769231,0.42857142857142855,0.8571428571428571,0.0004
780,1.1193212270736694,1.9230372905731201,0.6153846153846154,0.9230769230769231,0.42857142857142855,0.7142857142857143,0.0004
781,0.9447503983974457,1.2583472728729248,0.6346153846153846,0.9423076923076923,0.5,0.9285714285714286,0.0004
782,1.1353830695152283,1.2180345058441162,0.5961538461538461,0.9038461538461539,0.5714285714285714,0.9285714285714286,0.0004
783,1.1000475585460663,1.7279213666915894,0.6538461538461539,0.8653846153846154,0.35714285714285715,0.8571428571428571,0.0004
784,1.063395380973816,1.1538174152374268,0.5961538461538461,0.9230769230769231,0.42857142857142855,0.9285714285714286,0.0004
785,0.9567015171051025,1.5643329620361328,0.6346153846153846,0.9615384615384616,0.35714285714285715,0.7857142857142857,0.0004
786,1.0274003148078918,1.4596220254898071,0.5961538461538461,0.9615384615384616,0.42857142857142855,0.8571428571428571,0.0004
787,1.017160028219223,1.487140417098999,0.5576923076923077,0.9423076923076923,0.35714285714285715,0.8571428571428571,0.0004
788,1.0076235830783844,2.065641403198242,0.5769230769230769,0.9615384615384616,0.2857142857142857,0.7142857142857143,0.0004
789,0.9783596396446228,1.5360881090164185,0.6346153846153846,0.9423076923076923,0.2857142857142857,0.8571428571428571,0.0004
790,1.1848483681678772,1.5918924808502197,0.5576923076923077,0.9230769230769231,0.35714285714285715,0.8571428571428571,0.0004
791,0.9552693963050842,1.3545515537261963,0.5961538461538461,0.9807692307692307,0.6428571428571429,0.8571428571428571,0.0004
792,0.9080708622932434,1.5645592212677002,0.6346153846153846,0.9807692307692307,0.42857142857142855,0.7857142857142857,0.0004
793,1.021376609802246,1.5932072401046753,0.5769230769230769,0.9423076923076923,0.35714285714285715,0.7857142857142857,0.0004
794,0.9180491268634796,1.802625060081482,0.5576923076923077,0.9807692307692307,0.35714285714285715,0.7857142857142857,0.0004
795,1.0367256999015808,1.491041898727417,0.5,0.9423076923076923,0.42857142857142855,0.8571428571428571,0.0004
796,1.1540048718452454,1.6592381000518799,0.5192307692307693,0.9423076923076923,0.35714285714285715,0.8571428571428571,0.0004
797,1.0188750624656677,1.3289602994918823,0.5,0.9038461538461539,0.5,0.8571428571428571,0.0004
798,1.0100475549697876,2.0078585147857666,0.5961538461538461,0.9615384615384616,0.35714285714285715,0.7142857142857143,0.0004
799,1.1653804779052734,1.4948843717575073,0.5192307692307693,0.9230769230769231,0.42857142857142855,0.8571428571428571,0.0004
800,0.9469800889492035,1.683861494064331,0.5961538461538461,0.9615384615384616,0.42857142857142855,0.7857142857142857,0.0004
801,1.011578530073166,1.418290376663208,0.5961538461538461,0.9230769230769231,0.5714285714285714,0.8571428571428571,0.0004
802,1.0509397983551025,1.8535332679748535,0.6153846153846154,0.9423076923076923,0.2857142857142857,0.7857142857142857,0.0004
803,0.9277483820915222,1.617586374282837,0.6730769230769231,0.9615384615384616,0.2857142857142857,0.8571428571428571,0.0004
804,1.0183758735656738,1.4511290788650513,0.5384615384615384,0.9423076923076923,0.42857142857142855,0.7857142857142857,0.0004
805,0.9312794208526611,1.5036113262176514,0.5961538461538461,0.9807692307692307,0.5,0.8571428571428571,0.0004
806,1.0183756351470947,1.6155402660369873,0.5192307692307693,0.9807692307692307,0.21428571428571427,0.8571428571428571,0.0004
807,0.9315551221370697,1.677255630493164,0.6346153846153846,0.9807692307692307,0.2857142857142857,0.8571428571428571,0.0004
808,1.0403955578804016,1.5680766105651855,0.5961538461538461,0.9423076923076923,0.2857142857142857,0.8571428571428571,0.0004
809,0.9595914781093597,1.224029302597046,0.5961538461538461,0.9423076923076923,0.35714285714285715,0.9285714285714286,0.0004
810,0.864443451166153,1.4154514074325562,0.6346153846153846,1.0,0.5,0.8571428571428571,0.0004
811,0.8556472063064575,1.4182277917861938,0.6153846153846154,0.9807692307692307,0.42857142857142855,0.7857142857142857,0.0004
812,1.07729110121727,1.4757046699523926,0.6538461538461539,0.9615384615384616,0.5,0.7857142857142857,0.0004
813,0.9773025512695312,1.4933466911315918,0.6346153846153846,0.9615384615384616,0.5,0.8571428571428571,0.0004
814,1.0345655679702759,1.8007429838180542,0.6346153846153846,0.9615384615384616,0.5,0.7857142857142857,0.0004
815,1.1117066740989685,1.296032428741455,0.6346153846153846,0.9423076923076923,0.5,0.8571428571428571,0.0004
816,1.197884976863861,1.659423589706421,0.5961538461538461,0.9038461538461539,0.42857142857142855,0.7857142857142857,0.0004
817,1.0811490416526794,1.6829686164855957,0.7115384615384616,0.8846153846153846,0.35714285714285715,0.8571428571428571,0.0004
818,1.0272319316864014,1.5190753936767578,0.5576923076923077,0.9807692307692307,0.42857142857142855,0.8571428571428571,0.0004
819,0.940829336643219,1.379751205444336,0.5192307692307693,0.9615384615384616,0.42857142857142855,0.8571428571428571,0.0004
820,1.1239394545555115,1.3858580589294434,0.5,0.9423076923076923,0.35714285714285715,0.9285714285714286,0.0004
821,0.89903923869133,1.3593173027038574,0.5576923076923077,0.9615384615384616,0.35714285714285715,0.8571428571428571,0.0004
822,0.9562747180461884,1.4838002920150757,0.5961538461538461,0.9615384615384616,0.35714285714285715,0.8571428571428571,0.0004
823,0.9205659925937653,1.3750971555709839,0.6346153846153846,0.9615384615384616,0.2857142857142857,0.9285714285714286,0.0004
824,0.9843383133411407,1.697069764137268,0.5769230769230769,0.9615384615384616,0.21428571428571427,0.8571428571428571,0.0004
825,1.0786625146865845,1.6593133211135864,0.5769230769230769,0.9615384615384616,0.35714285714285715,0.8571428571428571,0.0004
826,0.9117459058761597,1.6627823114395142,0.5384615384615384,1.0,0.35714285714285715,0.8571428571428571,0.0004
827,1.2091255187988281,2.0776119232177734,0.5192307692307693,0.9038461538461539,0.2857142857142857,0.7857142857142857,0.0004
828,1.3596558570861816,1.0814900398254395,0.5192307692307693,0.8653846153846154,0.5714285714285714,0.9285714285714286,0.0004
829,1.1267233788967133,1.5672065019607544,0.5769230769230769,0.9423076923076923,0.35714285714285715,0.8571428571428571,0.0004
830,1.0668180584907532,1.0717450380325317,0.5192307692307693,0.9038461538461539,0.6428571428571429,0.9285714285714286,0.0004
831,1.0929605960845947,1.4095816612243652,0.5,0.9423076923076923,0.5714285714285714,0.8571428571428571,0.0004
832,1.0773470401763916,1.2566925287246704,0.6346153846153846,0.9230769230769231,0.7142857142857143,0.8571428571428571,0.0004
833,1.0450840890407562,1.2543736696243286,0.5192307692307693,0.9423076923076923,0.5714285714285714,0.8571428571428571,0.0004
834,0.9094587564468384,1.2270548343658447,0.5192307692307693,0.9807692307692307,0.35714285714285715,0.9285714285714286,0.0004
835,1.0606118440628052,1.522533893585205,0.6346153846153846,0.9230769230769231,0.42857142857142855,0.8571428571428571,0.0004
836,1.0442049503326416,1.431963562965393,0.5384615384615384,0.9423076923076923,0.35714285714285715,0.7857142857142857,0.0004
837,1.0771624445915222,1.3418688774108887,0.5192307692307693,0.9423076923076923,0.42857142857142855,0.8571428571428571,0.0004
838,1.1042176485061646,1.3787915706634521,0.5,0.9615384615384616,0.42857142857142855,0.9285714285714286,0.0004
839,1.0071057975292206,1.5709023475646973,0.5384615384615384,0.9423076923076923,0.42857142857142855,0.8571428571428571,0.0004
840,1.0641374588012695,2.0520153045654297,0.5192307692307693,0.9038461538461539,0.35714285714285715,0.7857142857142857,0.0004
841,1.082942247390747,2.092784881591797,0.5192307692307693,0.9423076923076923,0.21428571428571427,0.7857142857142857,0.0004
842,1.085244059562683,1.9888768196105957,0.5769230769230769,0.9615384615384616,0.2857142857142857,0.7857142857142857,0.0004
843,1.0523047149181366,1.7139238119125366,0.4807692307692308,0.9423076923076923,0.21428571428571427,0.8571428571428571,0.0004
844,0.881251335144043,1.4973524808883667,0.5384615384615384,0.9807692307692307,0.35714285714285715,0.7857142857142857,0.0004
845,0.9953826367855072,1.3558212518692017,0.5576923076923077,0.9423076923076923,0.42857142857142855,0.9285714285714286,0.0004
846,0.9720600545406342,2.233713150024414,0.5769230769230769,0.9615384615384616,0.2857142857142857,0.7857142857142857,0.0004
847,0.9585109949111938,1.6005076169967651,0.4807692307692308,0.9807692307692307,0.2857142857142857,0.8571428571428571,0.0004
848,0.9601494669914246,1.8092625141143799,0.4423076923076923,0.9615384615384616,0.14285714285714285,0.8571428571428571,0.0004
849,1.1463114023208618,1.3306008577346802,0.46153846153846156,0.9423076923076923,0.42857142857142855,0.8571428571428571,0.0004
850,1.024264633655548,1.677255630493164,0.5,0.9807692307692307,0.5,0.7857142857142857,0.0004
851,0.9840636551380157,1.8156508207321167,0.5384615384615384,0.9423076923076923,0.35714285714285715,0.8571428571428571,0.0004
852,1.1252524256706238,1.3540035486221313,0.5192307692307693,0.9615384615384616,0.2857142857142857,0.9285714285714286,0.0004
853,0.9125804603099823,1.4149068593978882,0.6538461538461539,0.9615384615384616,0.35714285714285715,0.9285714285714286,0.0004
854,1.2508085668087006,1.9762988090515137,0.5192307692307693,0.9230769230769231,0.14285714285714285,0.7857142857142857,0.0004
855,0.9807368814945221,1.301253318786621,0.6153846153846154,0.9423076923076923,0.42857142857142855,0.9285714285714286,0.0004
856,1.0883580446243286,1.5665020942687988,0.6153846153846154,0.9230769230769231,0.35714285714285715,0.8571428571428571,0.0004
857,0.8651869595050812,2.4577383995056152,0.5769230769230769,0.9807692307692307,0.21428571428571427,0.6428571428571429,0.0004
858,0.9228406250476837,1.934776782989502,0.5961538461538461,0.9807692307692307,0.2857142857142857,0.7857142857142857,0.0004
859,1.1012687385082245,1.6573047637939453,0.5384615384615384,0.9038461538461539,0.21428571428571427,0.8571428571428571,0.0004
860,1.073687732219696,1.3235981464385986,0.5769230769230769,0.9615384615384616,0.6428571428571429,0.8571428571428571,0.0004
861,1.158130168914795,1.6825095415115356,0.5192307692307693,0.9230769230769231,0.5,0.7857142857142857,0.0004
862,1.0970727801322937,1.5864624977111816,0.5,0.9230769230769231,0.6428571428571429,0.8571428571428571,0.0004
863,0.8036501407623291,1.2256824970245361,0.6923076923076923,0.9807692307692307,0.5,0.9285714285714286,0.0004
864,1.1172757744789124,1.4418379068374634,0.5192307692307693,0.9230769230769231,0.5714285714285714,0.8571428571428571,0.0004
865,1.0744580626487732,1.5023918151855469,0.6538461538461539,0.9423076923076923,0.5,0.8571428571428571,0.0004
866,0.9366788566112518,1.5889790058135986,0.5769230769230769,0.9807692307692307,0.5,0.8571428571428571,0.0004
867,0.9562692642211914,1.2973661422729492,0.5769230769230769,0.9615384615384616,0.5714285714285714,0.8571428571428571,0.0004
868,1.0543469786643982,1.700251579284668,0.5576923076923077,0.9615384615384616,0.2857142857142857,0.7857142857142857,0.0004
869,0.9294690489768982,1.4343714714050293,0.5961538461538461,0.9615384615384616,0.42857142857142855,0.8571428571428571,0.0004
870,1.0359489023685455,1.428515911102295,0.5192307692307693,0.9423076923076923,0.5714285714285714,0.8571428571428571,0.0004
871,0.9366257190704346,1.3781824111938477,0.5961538461538461,0.9615384615384616,0.42857142857142855,0.8571428571428571,0.0004
872,1.071089506149292,1.3701646327972412,0.5961538461538461,0.9038461538461539,0.2857142857142857,0.8571428571428571,0.0004
873,1.0206148326396942,1.2654191255569458,0.6538461538461539,0.9230769230769231,0.6428571428571429,0.8571428571428571,0.0004
874,1.1234709024429321,1.4082289934158325,0.5576923076923077,0.9038461538461539,0.5,0.8571428571428571,0.0004
875,1.1321889162063599,1.6009516716003418,0.5961538461538461,0.9230769230769231,0.42857142857142855,0.8571428571428571,0.0004
876,1.0029656887054443,2.069748640060425,0.5,0.9423076923076923,0.2857142857142857,0.7857142857142857,0.0004
877,1.055308997631073,1.1928515434265137,0.5384615384615384,0.9423076923076923,0.7857142857142857,0.8571428571428571,0.0004
878,1.001005083322525,1.128479242324829,0.5961538461538461,0.9230769230769231,0.6428571428571429,0.8571428571428571,0.0004
879,1.0013823211193085,1.3333642482757568,0.46153846153846156,0.9615384615384616,0.35714285714285715,0.9285714285714286,0.0004
880,1.1176934838294983,1.388113021850586,0.5192307692307693,0.9615384615384616,0.6428571428571429,0.8571428571428571,0.0004
881,0.9790008366107941,1.6073017120361328,0.5769230769230769,0.9423076923076923,0.35714285714285715,0.8571428571428571,0.0004
882,1.03395614027977,1.2233130931854248,0.5961538461538461,0.9615384615384616,0.35714285714285715,0.8571428571428571,0.0004
883,0.9473957717418671,1.6419708728790283,0.5961538461538461,0.9807692307692307,0.42857142857142855,0.7857142857142857,0.0004
884,1.174346148967743,1.4239240884780884,0.5961538461538461,0.9230769230769231,0.42857142857142855,0.8571428571428571,0.0004
885,0.9997351765632629,1.415791630744934,0.6346153846153846,0.9615384615384616,0.35714285714285715,0.8571428571428571,0.0004
886,0.9414841830730438,1.6367653608322144,0.6346153846153846,0.9615384615384616,0.2857142857142857,0.8571428571428571,0.0004
887,0.989244669675827,1.8668973445892334,0.5769230769230769,0.9615384615384616,0.5,0.7857142857142857,0.0004
888,1.2683674097061157,1.199205994606018,0.46153846153846156,0.9038461538461539,0.5,0.9285714285714286,0.0004
889,1.0789780020713806,1.1997147798538208,0.5961538461538461,0.9615384615384616,0.42857142857142855,0.9285714285714286,0.0004
890,0.9087476134300232,1.7435928583145142,0.6153846153846154,0.9615384615384616,0.5,0.7857142857142857,0.0004
891,0.8249148726463318,1.9399019479751587,0.6538461538461539,0.9807692307692307,0.21428571428571427,0.7857142857142857,0.0004
892,1.0416006445884705,1.4947062730789185,0.5961538461538461,0.9230769230769231,0.5,0.8571428571428571,0.0004
893,1.022416114807129,1.6225345134735107,0.5384615384615384,0.9615384615384616,0.35714285714285715,0.8571428571428571,0.0004
894,0.9490501582622528,1.552067518234253,0.6538461538461539,0.9423076923076923,0.42857142857142855,0.8571428571428571,0.0004
895,0.9208542108535767,1.4111326932907104,0.5384615384615384,0.9423076923076923,0.5,0.8571428571428571,0.0004
896,0.9914289712905884,1.479347825050354,0.5769230769230769,0.9615384615384616,0.35714285714285715,0.8571428571428571,0.0004
897,1.0508351027965546,1.22163724899292,0.5192307692307693,0.9615384615384616,0.42857142857142855,0.9285714285714286,0.0004
898,1.0452950596809387,1.309186577796936,0.5384615384615384,0.9230769230769231,0.5,0.8571428571428571,0.0004
899,1.1848440766334534,1.725419282913208,0.5961538461538461,0.9038461538461539,0.21428571428571427,0.8571428571428571,0.0004
900,0.9634129703044891,1.8138628005981445,0.6538461538461539,0.9230769230769231,0.21428571428571427,0.7857142857142857,0.0004
901,1.0476475358009338,1.1917353868484497,0.5,0.9615384615384616,0.5,0.9285714285714286,0.0004
902,1.001384675502777,1.1068154573440552,0.5384615384615384,0.9615384615384616,0.7142857142857143,0.8571428571428571,0.0004
903,0.8552816212177277,2.3299427032470703,0.5192307692307693,0.9807692307692307,0.2857142857142857,0.7142857142857143,0.0004
904,0.8927944898605347,1.4508631229400635,0.5769230769230769,0.9807692307692307,0.42857142857142855,0.8571428571428571,0.0004
905,1.098778247833252,1.379621982574463,0.5,0.9230769230769231,0.5,0.8571428571428571,0.0004
906,0.8709265291690826,1.7064192295074463,0.5384615384615384,0.9807692307692307,0.2857142857142857,0.7857142857142857,0.0004
907,1.009930580854416,1.321965217590332,0.5769230769230769,0.9423076923076923,0.42857142857142855,0.8571428571428571,0.0004
908,0.8895833790302277,1.6859822273254395,0.5769230769230769,0.9807692307692307,0.35714285714285715,0.8571428571428571,0.0004
909,1.0009652972221375,1.1335126161575317,0.5769230769230769,0.9423076923076923,0.5714285714285714,0.9285714285714286,0.0004
910,1.0067299008369446,1.6378381252288818,0.5961538461538461,0.9423076923076923,0.21428571428571427,0.7857142857142857,0.0004
911,1.1107026934623718,1.2809104919433594,0.4807692307692308,0.9038461538461539,0.35714285714285715,0.9285714285714286,0.0004
912,0.9233382344245911,1.6098427772521973,0.6346153846153846,0.9423076923076923,0.35714285714285715,0.8571428571428571,0.0004
913,0.9544723331928253,1.200068712234497,0.5769230769230769,0.9423076923076923,0.42857142857142855,0.9285714285714286,0.0004
914,0.9600643217563629,1.1288918256759644,0.5576923076923077,0.9615384615384616,0.5714285714285714,0.9285714285714286,0.0004
915,1.0488883554935455,1.4491466283798218,0.5576923076923077,0.9230769230769231,0.2857142857142857,0.9285714285714286,0.0004
916,1.2857948243618011,1.85329008102417,0.5384615384615384,0.9038461538461539,0.2857142857142857,0.8571428571428571,0.0004
917,1.5100748538970947,1.641615867614746,0.4230769230769231,0.8461538461538461,0.35714285714285715,0.8571428571428571,0.0004
918,1.6219234466552734,1.4039793014526367,0.36538461538461536,0.8269230769230769,0.5,0.8571428571428571,0.0004
919,1.6321940422058105,1.7211593389511108,0.46153846153846156,0.8269230769230769,0.14285714285714285,0.8571428571428571,0.0004
920,1.495181918144226,1.4653915166854858,0.36538461538461536,0.8269230769230769,0.35714285714285715,0.8571428571428571,0.0004
921,1.4742581844329834,1.4652700424194336,0.5961538461538461,0.8269230769230769,0.5714285714285714,0.8571428571428571,0.0004
922,1.3524760603904724,1.4729080200195312,0.6153846153846154,0.8269230769230769,0.5714285714285714,0.8571428571428571,0.0004
923,1.4550294876098633,1.3329942226409912,0.5192307692307693,0.8269230769230769,0.7142857142857143,0.8571428571428571,0.0004
924,1.4168360829353333,1.4163908958435059,0.5576923076923077,0.8269230769230769,0.42857142857142855,0.8571428571428571,0.0004
925,1.4086778163909912,1.3748570680618286,0.5576923076923077,0.8269230769230769,0.5,0.8571428571428571,0.0004
926,1.276975154876709,1.5506665706634521,0.6153846153846154,0.8269230769230769,0.35714285714285715,0.8571428571428571,0.0004
927,1.3335950374603271,1.2600786685943604,0.5961538461538461,0.8269230769230769,0.5714285714285714,0.8571428571428571,0.0004
928,1.2527016401290894,1.4460866451263428,0.6153846153846154,0.8269230769230769,0.42857142857142855,0.8571428571428571,0.0004
929,1.26814466714859,1.4905617237091064,0.5576923076923077,0.8269230769230769,0.42857142857142855,0.8571428571428571,0.0004
930,1.2532443404197693,1.2981250286102295,0.6153846153846154,0.8269230769230769,0.5,0.8571428571428571,0.0004
931,1.3846564888954163,1.2498750686645508,0.5,0.8269230769230769,0.7142857142857143,0.8571428571428571,0.0004
932,1.3178077936172485,1.2773034572601318,0.5961538461538461,0.8653846153846154,0.6428571428571429,0.8571428571428571,0.0004
933,1.3414506912231445,1.3072961568832397,0.5,0.8269230769230769,0.5714285714285714,0.8571428571428571,0.0004
934,1.247386395931244,1.3752162456512451,0.5961538461538461,0.8269230769230769,0.6428571428571429,0.8571428571428571,0.0004
935,1.2857752442359924,1.4970191717147827,0.5192307692307693,0.8269230769230769,0.35714285714285715,0.8571428571428571,0.0004
936,1.2208349704742432,1.4613502025604248,0.6538461538461539,0.8269230769230769,0.35714285714285715,0.8571428571428571,0.0004
937,1.2669062614440918,1.2012465000152588,0.5192307692307693,0.8269230769230769,0.5,0.8571428571428571,0.0004
938,1.305247724056244,1.4477306604385376,0.4807692307692308,0.8269230769230769,0.35714285714285715,0.8571428571428571,0.0004
939,1.4185627698898315,1.3437007665634155,0.40384615384615385,0.8269230769230769,0.5714285714285714,0.8571428571428571,0.0004
940,1.2563791871070862,1.2773425579071045,0.5576923076923077,0.8269230769230769,0.6428571428571429,0.8571428571428571,0.0004
941,1.3537089824676514,1.188062071800232,0.4230769230769231,0.8269230769230769,0.7142857142857143,0.8571428571428571,0.0004
942,1.316360354423523,1.3677423000335693,0.40384615384615385,0.8269230769230769,0.6428571428571429,0.8571428571428571,0.0004
943,1.3404192924499512,1.1791372299194336,0.5192307692307693,0.8269230769230769,0.6428571428571429,0.8571428571428571,0.0004
944,1.2798365354537964,1.3432921171188354,0.6538461538461539,0.8269230769230769,0.5,0.8571428571428571,0.0004
945,1.2856702208518982,1.218332290649414,0.6153846153846154,0.8269230769230769,0.5714285714285714,0.8571428571428571,0.0004
946,1.2831042408943176,1.4964064359664917,0.6153846153846154,0.8269230769230769,0.35714285714285715,0.8571428571428571,0.0004
947,1.2863995432853699,1.2242677211761475,0.5384615384615384,0.8269230769230769,0.5714285714285714,0.8571428571428571,0.0004
948,1.1686919927597046,1.3497724533081055,0.6153846153846154,0.8269230769230769,0.5714285714285714,0.8571428571428571,0.0004
949,1.2425463199615479,1.3921363353729248,0.5769230769230769,0.8269230769230769,0.5,0.8571428571428571,0.0004
950,1.3044319152832031,1.3095974922180176,0.5961538461538461,0.8269230769230769,0.42857142857142855,0.8571428571428571,0.0004
951,1.225469946861267,1.4051239490509033,0.6153846153846154,0.8269230769230769,0.2857142857142857,0.8571428571428571,0.0004
952,1.2215800285339355,1.1918829679489136,0.6346153846153846,0.8269230769230769,0.6428571428571429,0.8571428571428571,0.0004
953,1.2952250242233276,1.1719403266906738,0.5,0.8269230769230769,0.5,0.8571428571428571,0.0004
954,1.2600946426391602,1.2617831230163574,0.5384615384615384,0.9230769230769231,0.5,0.9285714285714286,0.0004
955,1.1363398432731628,1.390928864479065,0.6346153846153846,0.9423076923076923,0.35714285714285715,0.9285714285714286,0.0004
956,1.2239449620246887,1.2929370403289795,0.5,0.9038461538461539,0.6428571428571429,0.8571428571428571,0.0004
957,1.228177547454834,1.3138571977615356,0.5,0.9038461538461539,0.6428571428571429,0.9285714285714286,0.0004
958,1.206250786781311,1.6090929508209229,0.5,0.9423076923076923,0.5,0.9285714285714286,0.0004
959,1.2253262400627136,1.1328210830688477,0.46153846153846156,0.9615384615384616,0.5714285714285714,1.0,0.0004
960,1.169008731842041,1.4579888582229614,0.4807692307692308,0.9423076923076923,0.5,0.8571428571428571,0.0004
961,1.2757030129432678,1.3786513805389404,0.5384615384615384,0.8846153846153846,0.6428571428571429,0.8571428571428571,0.0004
962,1.1355904340744019,1.340238094329834,0.5576923076923077,0.9423076923076923,0.5714285714285714,0.8571428571428571,0.0004
963,1.2007554173469543,1.4005889892578125,0.5192307692307693,0.9230769230769231,0.5,0.8571428571428571,0.0004
964,1.1362352967262268,1.412121295928955,0.5576923076923077,0.9423076923076923,0.42857142857142855,0.8571428571428571,0.0004
965,1.2114531993865967,1.0765084028244019,0.6730769230769231,0.8269230769230769,0.5714285714285714,0.8571428571428571,0.0004
966,1.0676602721214294,1.272491216659546,0.6346153846153846,0.9230769230769231,0.6428571428571429,0.8571428571428571,0.0004
967,1.1206219792366028,1.3235794305801392,0.6153846153846154,0.8846153846153846,0.42857142857142855,0.8571428571428571,0.0004
968,1.1671443581581116,1.470983862876892,0.5769230769230769,0.9038461538461539,0.42857142857142855,0.9285714285714286,0.0004
969,1.2233176231384277,1.671388864517212,0.46153846153846156,0.9230769230769231,0.2857142857142857,0.8571428571428571,0.0004
970,1.1854441165924072,1.5262166261672974,0.6923076923076923,0.9230769230769231,0.5,0.8571428571428571,0.0004
971,1.2821112871170044,1.4165012836456299,0.5769230769230769,0.8653846153846154,0.2857142857142857,0.8571428571428571,0.0004
972,1.3095135688781738,1.3437840938568115,0.5192307692307693,0.8461538461538461,0.42857142857142855,0.9285714285714286,0.0004
973,1.079498529434204,1.4209973812103271,0.6346153846153846,0.8461538461538461,0.42857142857142855,0.7857142857142857,0.0004
974,1.274669110774994,1.5858467817306519,0.4807692307692308,0.8846153846153846,0.35714285714285715,0.7857142857142857,0.0004
975,1.2089866399765015,1.4235646724700928,0.5961538461538461,0.9230769230769231,0.5714285714285714,0.8571428571428571,0.0004
976,1.1974727511405945,1.261868953704834,0.5961538461538461,0.8461538461538461,0.5714285714285714,0.8571428571428571,0.0004
977,1.1751997470855713,1.3962767124176025,0.6538461538461539,0.8846153846153846,0.35714285714285715,0.8571428571428571,0.0004
978,1.2288979887962341,1.3481415510177612,0.46153846153846156,0.8461538461538461,0.35714285714285715,0.8571428571428571,0.0004
979,1.039852499961853,1.353257417678833,0.5961538461538461,0.9807692307692307,0.2857142857142857,0.9285714285714286,0.0004
980,1.1935359835624695,1.1559854745864868,0.5,0.9230769230769231,0.5714285714285714,0.9285714285714286,0.0004
981,1.1470587253570557,1.3385974168777466,0.5384615384615384,0.9423076923076923,0.35714285714285715,0.8571428571428571,0.0004
982,1.165069043636322,1.1945199966430664,0.5192307692307693,0.9230769230769231,0.42857142857142855,0.9285714285714286,0.0004
