epoch,train_loss,val_loss,train_acc_action,train_acc_status,val_acc_action,val_acc_status,learning_rate
1,1.7748161554336548,1.7788152694702148,0.36538461538461536,0.8269230769230769,0.21428571428571427,0.8571428571428571,0.0004
2,1.7618334293365479,1.762823462486267,0.36538461538461536,0.8269230769230769,0.21428571428571427,0.8571428571428571,0.0004
3,1.747746467590332,1.7456884384155273,0.36538461538461536,0.8269230769230769,0.21428571428571427,0.8571428571428571,0.0004
4,1.7231906056404114,1.7289495468139648,0.36538461538461536,0.8269230769230769,0.21428571428571427,0.8571428571428571,0.0004
5,1.705269455909729,1.7039034366607666,0.36538461538461536,0.8269230769230769,0.21428571428571427,0.8571428571428571,0.0004
6,1.6843637228012085,1.6812974214553833,0.36538461538461536,0.8269230769230769,0.21428571428571427,0.8571428571428571,0.0004
7,1.6445214748382568,1.6567440032958984,0.36538461538461536,0.8269230769230769,0.21428571428571427,0.8571428571428571,0.0004
8,1.6222924590110779,1.6064362525939941,0.36538461538461536,0.8269230769230769,0.21428571428571427,0.8571428571428571,0.0004
9,1.5777243375778198,1.5708597898483276,0.36538461538461536,0.8269230769230769,0.21428571428571427,0.8571428571428571,0.0004
10,1.5318682789802551,1.5619747638702393,0.36538461538461536,0.8269230769230769,0.21428571428571427,0.8571428571428571,0.0004
11,1.5689695477485657,1.5643589496612549,0.36538461538461536,0.8269230769230769,0.21428571428571427,0.8571428571428571,0.0004
12,1.5546578764915466,1.5126047134399414,0.36538461538461536,0.8269230769230769,0.21428571428571427,0.8571428571428571,0.0004
13,1.520486831665039,1.5087889432907104,0.36538461538461536,0.8269230769230769,0.21428571428571427,0.8571428571428571,0.0004
14,1.5451270937919617,1.4723589420318604,0.36538461538461536,0.8269230769230769,0.35714285714285715,0.8571428571428571,0.0004
15,1.4372349381446838,1.470920443534851,0.5192307692307693,0.8269230769230769,0.2857142857142857,0.8571428571428571,0.0004
16,1.4376707077026367,1.5135823488235474,0.5,0.8269230769230769,0.35714285714285715,0.8571428571428571,0.0004
17,1.4765976667404175,1.5376824140548706,0.5192307692307693,0.8269230769230769,0.2857142857142857,0.8571428571428571,0.0004
18,1.4669614434242249,1.450913906097412,0.5384615384615384,0.8269230769230769,0.6428571428571429,0.8571428571428571,0.0004
19,1.411438226699829,1.4130840301513672,0.6153846153846154,0.8269230769230769,0.7142857142857143,0.8571428571428571,0.0004
20,1.3125507235527039,1.444974660873413,0.7115384615384616,0.8269230769230769,0.5714285714285714,0.8571428571428571,0.0004
21,1.3580202460289001,1.5354514122009277,0.5961538461538461,0.8269230769230769,0.42857142857142855,0.8571428571428571,0.0004
22,1.4411619305610657,1.4106848239898682,0.5384615384615384,0.8269230769230769,0.5714285714285714,0.8571428571428571,0.0004
23,1.2894977927207947,1.3793894052505493,0.6923076923076923,0.8269230769230769,0.7142857142857143,0.8571428571428571,0.0004
24,1.2993260622024536,1.5193856954574585,0.6923076923076923,0.8269230769230769,0.6428571428571429,0.8571428571428571,0.0004
25,1.2871153950691223,1.632248044013977,0.6153846153846154,0.8269230769230769,0.5714285714285714,0.8571428571428571,0.0004
26,1.3325324058532715,1.2065010070800781,0.5769230769230769,0.8269230769230769,0.6428571428571429,0.8571428571428571,0.0004
27,1.2536066770553589,1.4588091373443604,0.5192307692307693,0.8269230769230769,0.7142857142857143,0.8571428571428571,0.0004
28,1.398419976234436,1.3094265460968018,0.5192307692307693,0.8269230769230769,0.6428571428571429,0.8571428571428571,0.0004
29,1.188544511795044,1.683056354522705,0.5576923076923077,0.8269230769230769,0.5714285714285714,0.8571428571428571,0.0004
30,1.314638912677765,1.2256193161010742,0.5576923076923077,0.8269230769230769,0.6428571428571429,0.8571428571428571,0.0004
31,1.2099133133888245,1.2747679948806763,0.5961538461538461,0.8269230769230769,0.5714285714285714,0.8571428571428571,0.0004
32,1.0785163044929504,1.3265306949615479,0.6346153846153846,0.8269230769230769,0.5714285714285714,0.8571428571428571,0.0004
33,1.1857524514198303,1.4196025133132935,0.5,0.8269230769230769,0.5,0.8571428571428571,0.0004
34,1.0973618030548096,1.1666655540466309,0.5769230769230769,0.8269230769230769,0.7857142857142857,0.8571428571428571,0.0004
35,1.2827291786670685,1.5962294340133667,0.6153846153846154,0.8269230769230769,0.5,0.8571428571428571,0.0004
36,1.193230926990509,1.351199984550476,0.6346153846153846,0.8269230769230769,0.6428571428571429,0.8571428571428571,0.0004
37,1.273943305015564,1.1568524837493896,0.7115384615384616,0.8269230769230769,0.6428571428571429,0.8571428571428571,0.0004
38,1.0920619368553162,1.1767137050628662,0.7307692307692307,0.8269230769230769,0.6428571428571429,0.8571428571428571,0.0004
39,1.2777812480926514,1.251053810119629,0.6538461538461539,0.8269230769230769,0.7142857142857143,0.8571428571428571,0.0004
40,1.209298551082611,1.7504994869232178,0.6538461538461539,0.8269230769230769,0.7142857142857143,0.8571428571428571,0.0004
41,1.322259247303009,1.079577088356018,0.5961538461538461,0.8269230769230769,0.7857142857142857,0.8571428571428571,0.0004
42,1.2966285347938538,1.472252607345581,0.5192307692307693,0.8269230769230769,0.6428571428571429,0.8571428571428571,0.0004
43,1.1449097394943237,1.4475539922714233,0.6153846153846154,0.8269230769230769,0.6428571428571429,0.8571428571428571,0.0004
44,1.1621382236480713,1.421938180923462,0.7307692307692307,0.8269230769230769,0.6428571428571429,0.8571428571428571,0.0004
45,1.1675336956977844,1.0946283340454102,0.6346153846153846,0.8269230769230769,0.8571428571428571,0.8571428571428571,0.0004
46,1.0833606719970703,1.0253510475158691,0.7115384615384616,0.8269230769230769,0.7857142857142857,0.8571428571428571,0.0004
47,1.0992980003356934,1.2141401767730713,0.75,0.8269230769230769,0.7142857142857143,0.8571428571428571,0.0004
48,1.0389164984226227,1.6944265365600586,0.7307692307692307,0.8269230769230769,0.5,0.8571428571428571,0.0004
49,1.1584622859954834,1.3781297206878662,0.6153846153846154,0.8269230769230769,0.5,0.8571428571428571,0.0004
50,1.2370548844337463,1.2906283140182495,0.6153846153846154,0.8269230769230769,0.6428571428571429,0.8571428571428571,0.0004
51,1.117089331150055,1.228781819343567,0.6730769230769231,0.8269230769230769,0.6428571428571429,0.8571428571428571,0.0004
52,1.1200287342071533,0.9673678874969482,0.6346153846153846,0.8269230769230769,0.7857142857142857,0.8571428571428571,0.0004
53,0.9378705024719238,1.3026931285858154,0.7884615384615384,0.8269230769230769,0.7142857142857143,0.8571428571428571,0.0004
54,1.1289081573486328,0.8983064889907837,0.6346153846153846,0.8269230769230769,0.7857142857142857,0.8571428571428571,0.0004
55,1.1511120796203613,1.0995328426361084,0.6538461538461539,0.8269230769230769,0.6428571428571429,0.8571428571428571,0.0004
56,1.15988028049469,1.40048086643219,0.6538461538461539,0.8269230769230769,0.7857142857142857,0.8571428571428571,0.0004
57,1.3059348464012146,0.871605396270752,0.5961538461538461,0.8269230769230769,0.7857142857142857,0.8571428571428571,0.0004
58,1.0961217284202576,1.2247905731201172,0.7307692307692307,0.8269230769230769,0.7857142857142857,0.8571428571428571,0.0004
59,1.1181371808052063,1.383899450302124,0.6730769230769231,0.8269230769230769,0.6428571428571429,0.8571428571428571,0.0004
60,1.053854525089264,1.3331669569015503,0.7692307692307693,0.8269230769230769,0.42857142857142855,0.8571428571428571,0.0004
61,1.1611156463623047,0.9231728911399841,0.6346153846153846,0.8269230769230769,0.8571428571428571,0.8571428571428571,0.0004
62,1.0315699577331543,1.3657617568969727,0.75,0.8269230769230769,0.5,0.8571428571428571,0.0004
63,1.194295883178711,1.2007161378860474,0.5769230769230769,0.8269230769230769,0.6428571428571429,0.8571428571428571,0.0004
64,0.9442840814590454,1.371057152748108,0.75,0.8269230769230769,0.5714285714285714,0.8571428571428571,0.0004
65,1.0101242363452911,1.2727327346801758,0.6923076923076923,0.8269230769230769,0.6428571428571429,0.8571428571428571,0.0004
66,1.132281482219696,1.0828204154968262,0.5576923076923077,0.8269230769230769,0.7142857142857143,0.8571428571428571,0.0004
67,1.0520764589309692,1.253780722618103,0.7115384615384616,0.8269230769230769,0.7142857142857143,0.8571428571428571,0.0004
68,0.8953929543495178,0.7744647264480591,0.7884615384615384,0.8269230769230769,0.9285714285714286,0.8571428571428571,0.0004
69,1.0871967673301697,0.7165094614028931,0.6730769230769231,0.8269230769230769,0.9285714285714286,0.8571428571428571,0.0004
70,1.1048503518104553,1.3796648979187012,0.6538461538461539,0.8269230769230769,0.6428571428571429,0.8571428571428571,0.0004
71,1.0575400292873383,1.1682758331298828,0.6923076923076923,0.8269230769230769,0.7857142857142857,0.8571428571428571,0.0004
72,0.9023368060588837,1.3724021911621094,0.75,0.8269230769230769,0.5714285714285714,0.8571428571428571,0.0004
73,1.0732393860816956,1.1308789253234863,0.6153846153846154,0.8269230769230769,0.7142857142857143,0.8571428571428571,0.0004
74,0.9702422022819519,1.1162092685699463,0.6923076923076923,0.8269230769230769,0.6428571428571429,0.8571428571428571,0.0004
75,1.0143000185489655,1.0858538150787354,0.6730769230769231,0.8269230769230769,0.8571428571428571,0.8571428571428571,0.0004
76,0.9181075096130371,1.094215750694275,0.7115384615384616,0.8269230769230769,0.7857142857142857,0.8571428571428571,0.0004
77,1.0487450063228607,1.0603950023651123,0.6923076923076923,0.8269230769230769,0.7142857142857143,0.8571428571428571,0.0004
78,1.2582628726959229,1.3342491388320923,0.6153846153846154,0.8461538461538461,0.7142857142857143,0.8571428571428571,0.0004
79,1.1364814639091492,1.2746670246124268,0.6923076923076923,0.8846153846153846,0.7857142857142857,0.8571428571428571,0.0004
80,0.9426517486572266,1.403318166732788,0.75,0.8653846153846154,0.6428571428571429,0.9285714285714286,0.0004
81,0.9788697063922882,0.9370455741882324,0.6923076923076923,0.9038461538461539,0.7857142857142857,0.7857142857142857,0.0004
82,1.0273994207382202,0.8985700011253357,0.7307692307692307,0.9038461538461539,0.8571428571428571,0.8571428571428571,0.0004
83,0.9974526762962341,1.5639991760253906,0.7115384615384616,0.8461538461538461,0.5,0.8571428571428571,0.0004
84,1.0068386495113373,1.4409294128417969,0.7307692307692307,0.8846153846153846,0.6428571428571429,0.8571428571428571,0.0004
85,1.0043396949768066,1.2218722105026245,0.6923076923076923,0.8461538461538461,0.6428571428571429,0.8571428571428571,0.0004
86,1.1648836433887482,1.6255394220352173,0.6730769230769231,0.8461538461538461,0.2857142857142857,0.8571428571428571,0.0004
87,0.8982845842838287,1.2004685401916504,0.7692307692307693,0.8269230769230769,0.6428571428571429,0.8571428571428571,0.0004
88,0.9907267689704895,1.5134780406951904,0.6923076923076923,0.8269230769230769,0.42857142857142855,0.8571428571428571,0.0004
89,0.9005553424358368,1.1356465816497803,0.7307692307692307,0.8461538461538461,0.7142857142857143,0.8571428571428571,0.0004
90,0.9756637811660767,1.286481261253357,0.7307692307692307,0.8269230769230769,0.6428571428571429,0.8571428571428571,0.0004
91,0.9054182469844818,0.862302303314209,0.75,0.9038461538461539,0.8571428571428571,0.9285714285714286,0.0004
92,1.089021235704422,0.9879169464111328,0.6923076923076923,0.8076923076923077,0.7857142857142857,0.9285714285714286,0.0004
93,0.9951008558273315,1.1174665689468384,0.7115384615384616,0.8653846153846154,0.7142857142857143,0.8571428571428571,0.0004
94,0.9250892996788025,0.9052397608757019,0.6730769230769231,0.8846153846153846,0.7857142857142857,0.9285714285714286,0.0004
95,1.0908181071281433,1.104511022567749,0.6538461538461539,0.7692307692307693,0.6428571428571429,0.9285714285714286,0.0004
96,0.7573513090610504,1.6945607662200928,0.7692307692307693,0.9423076923076923,0.7142857142857143,0.7857142857142857,0.0004
97,1.056717038154602,1.2902085781097412,0.75,0.9038461538461539,0.7142857142857143,0.7142857142857143,0.0004
98,0.9661113619804382,0.6854625940322876,0.6153846153846154,0.9423076923076923,0.8571428571428571,0.8571428571428571,0.0004
99,1.0880900621414185,1.7276793718338013,0.6346153846153846,0.9230769230769231,0.5,0.7857142857142857,0.0004
100,1.1153010129928589,1.3285036087036133,0.6346153846153846,0.9423076923076923,0.5,0.7857142857142857,0.0004
101,0.917794942855835,1.5297538042068481,0.75,0.9038461538461539,0.42857142857142855,0.8571428571428571,0.0004
102,1.0528651773929596,1.0827665328979492,0.6730769230769231,0.9038461538461539,0.7142857142857143,0.8571428571428571,0.0004
103,1.1111454963684082,1.0585821866989136,0.6538461538461539,0.8461538461538461,0.7142857142857143,0.8571428571428571,0.0004
104,0.9214382767677307,1.311130166053772,0.7307692307692307,0.9038461538461539,0.5,0.8571428571428571,0.0004
105,0.9329396784305573,0.976218044757843,0.7307692307692307,0.9230769230769231,0.7857142857142857,0.9285714285714286,0.0004
106,0.9801607429981232,0.9273267388343811,0.6923076923076923,0.9038461538461539,0.7142857142857143,0.9285714285714286,0.0004
107,1.0215908885002136,1.0182163715362549,0.6538461538461539,0.9230769230769231,0.7142857142857143,0.7857142857142857,0.0004
108,1.0211294889450073,0.9278247356414795,0.7115384615384616,0.9230769230769231,0.7142857142857143,0.9285714285714286,0.0004
109,0.8356271982192993,1.4024279117584229,0.7884615384615384,0.9038461538461539,0.6428571428571429,0.7857142857142857,0.0004
110,0.8822445273399353,0.8600252866744995,0.6923076923076923,0.9807692307692307,0.7857142857142857,0.9285714285714286,0.0004
111,0.969126433134079,1.5746846199035645,0.6538461538461539,0.9230769230769231,0.5714285714285714,0.8571428571428571,0.0004
112,1.0439801216125488,1.636138677597046,0.6153846153846154,0.9038461538461539,0.42857142857142855,0.7857142857142857,0.0004
113,1.1080158948898315,1.4559381008148193,0.6346153846153846,0.9038461538461539,0.5714285714285714,0.8571428571428571,0.0004
114,0.7896980345249176,1.628806233406067,0.75,0.9038461538461539,0.5714285714285714,0.8571428571428571,0.0004
115,0.8382979929447174,0.8327529430389404,0.7884615384615384,0.9423076923076923,0.7857142857142857,0.8571428571428571,0.0004
116,0.832074373960495,1.139986276626587,0.7115384615384616,0.9423076923076923,0.5714285714285714,0.8571428571428571,0.0004
117,1.0656836330890656,1.3939175605773926,0.6346153846153846,0.9230769230769231,0.5714285714285714,0.9285714285714286,0.0004
118,0.8613840937614441,1.5142757892608643,0.6730769230769231,0.9615384615384616,0.6428571428571429,0.7857142857142857,0.0004
119,0.8623010814189911,1.4190424680709839,0.75,0.9230769230769231,0.6428571428571429,0.7857142857142857,0.0004
120,1.0608089864253998,1.1618002653121948,0.7115384615384616,0.9230769230769231,0.5714285714285714,0.7142857142857143,0.0004
121,0.8337021470069885,1.0339646339416504,0.6730769230769231,0.9615384615384616,0.7857142857142857,0.8571428571428571,0.0004
122,1.0207491219043732,1.2143175601959229,0.6923076923076923,0.9423076923076923,0.7857142857142857,0.7857142857142857,0.0004
123,0.8293817341327667,1.3405210971832275,0.6923076923076923,0.9230769230769231,0.6428571428571429,0.8571428571428571,0.0004
124,0.9440235793590546,1.526778221130371,0.6346153846153846,0.9230769230769231,0.5714285714285714,0.8571428571428571,0.0004
125,0.7649786472320557,1.8205668926239014,0.6730769230769231,0.9615384615384616,0.5,0.8571428571428571,0.0004
126,0.9455642104148865,1.2050297260284424,0.5961538461538461,0.9423076923076923,0.6428571428571429,0.8571428571428571,0.0004
127,0.895768940448761,1.2312235832214355,0.6538461538461539,0.9423076923076923,0.7142857142857143,0.9285714285714286,0.0004
128,1.0787304937839508,1.3506972789764404,0.6923076923076923,0.8653846153846154,0.7142857142857143,0.7857142857142857,0.0004
129,1.130547821521759,1.192848563194275,0.5769230769230769,0.9423076923076923,0.5714285714285714,0.7857142857142857,0.0004
130,0.9012336134910583,1.3297590017318726,0.6730769230769231,0.9038461538461539,0.5714285714285714,0.8571428571428571,0.0004
131,0.8623864352703094,1.1205847263336182,0.7307692307692307,0.9230769230769231,0.6428571428571429,0.8571428571428571,0.0004
132,1.040319412946701,1.2781085968017578,0.6923076923076923,0.9230769230769231,0.5714285714285714,0.7857142857142857,0.0004
133,0.7915799617767334,1.0866817235946655,0.6730769230769231,0.9807692307692307,0.7857142857142857,0.8571428571428571,0.0004
134,0.7931053042411804,1.2244460582733154,0.7115384615384616,0.9423076923076923,0.7142857142857143,0.8571428571428571,0.0004
135,0.8731135129928589,0.7311660647392273,0.7692307692307693,0.9038461538461539,0.8571428571428571,0.9285714285714286,0.0004
136,0.7460603713989258,1.4502153396606445,0.75,0.9615384615384616,0.5714285714285714,0.7857142857142857,0.0004
137,0.9003788232803345,1.8428127765655518,0.7307692307692307,0.9615384615384616,0.5714285714285714,0.7142857142857143,0.0004
138,0.944535881280899,1.0290127992630005,0.7115384615384616,0.9423076923076923,0.7857142857142857,0.8571428571428571,0.0004
139,0.8122203946113586,1.4186069965362549,0.7115384615384616,0.9423076923076923,0.6428571428571429,0.7857142857142857,0.0004
140,0.8797768950462341,1.5425901412963867,0.7115384615384616,0.9230769230769231,0.5,0.7857142857142857,0.0004
141,0.859926164150238,1.12152898311615,0.7115384615384616,0.9423076923076923,0.5714285714285714,0.9285714285714286,0.0004
142,1.0869479179382324,1.258453607559204,0.6923076923076923,0.8846153846153846,0.6428571428571429,0.8571428571428571,0.0004
143,0.7842100262641907,1.302106499671936,0.7307692307692307,0.9615384615384616,0.5714285714285714,0.8571428571428571,0.0004
144,0.9049311578273773,1.5514750480651855,0.6923076923076923,0.9038461538461539,0.5,0.7857142857142857,0.0004
145,0.8830500543117523,1.0587775707244873,0.7692307692307693,0.8461538461538461,0.7142857142857143,0.8571428571428571,0.0004
146,0.944502979516983,1.0717015266418457,0.6730769230769231,0.9615384615384616,0.8571428571428571,0.8571428571428571,0.0004
147,0.9378030300140381,0.9684553146362305,0.6538461538461539,0.9423076923076923,0.8571428571428571,0.9285714285714286,0.0004
148,1.0314960777759552,1.8816254138946533,0.6346153846153846,0.9038461538461539,0.5714285714285714,0.7142857142857143,0.0004
149,0.6424760818481445,1.7215632200241089,0.75,1.0,0.35714285714285715,0.7857142857142857,0.0004
150,1.0774499475955963,1.3389135599136353,0.6346153846153846,0.8846153846153846,0.5,0.8571428571428571,0.0004
151,0.7682496309280396,1.1101086139678955,0.7307692307692307,0.9615384615384616,0.7142857142857143,0.8571428571428571,0.0004
152,0.6189015954732895,0.650874674320221,0.8076923076923077,0.9230769230769231,0.7857142857142857,0.9285714285714286,0.0004
153,0.97372967004776,0.8114340901374817,0.6153846153846154,0.8846153846153846,0.7142857142857143,0.9285714285714286,0.0004
154,0.7792260050773621,1.2211534976959229,0.75,0.9230769230769231,0.7857142857142857,0.7142857142857143,0.0004
155,0.7788756191730499,0.9009389281272888,0.6923076923076923,0.9807692307692307,0.7857142857142857,0.8571428571428571,0.0004
156,0.7481020390987396,1.7076400518417358,0.7307692307692307,0.9807692307692307,0.6428571428571429,0.7857142857142857,0.0004
157,0.9370813071727753,1.4437240362167358,0.6923076923076923,0.9423076923076923,0.5714285714285714,0.7142857142857143,0.0004
158,0.845914214849472,1.2948787212371826,0.7115384615384616,0.9230769230769231,0.5714285714285714,0.9285714285714286,0.0004
159,0.6282280683517456,1.2581729888916016,0.8269230769230769,0.9423076923076923,0.5714285714285714,0.8571428571428571,0.0004
160,1.1424002945423126,1.6206475496292114,0.6153846153846154,0.8846153846153846,0.5714285714285714,0.8571428571428571,0.0004
161,0.969622790813446,1.1088823080062866,0.7307692307692307,0.9038461538461539,0.7142857142857143,0.9285714285714286,0.0004
162,0.980766236782074,1.1647841930389404,0.7115384615384616,0.9423076923076923,0.8571428571428571,0.7857142857142857,0.0004
163,0.9112724363803864,1.853522539138794,0.6923076923076923,0.9423076923076923,0.5714285714285714,0.7857142857142857,0.0004
164,0.8435875177383423,1.0879077911376953,0.7884615384615384,0.9038461538461539,0.8571428571428571,0.9285714285714286,0.0004
165,0.9998079836368561,1.539556622505188,0.6153846153846154,0.9615384615384616,0.5714285714285714,0.7857142857142857,0.0004
166,0.8608241975307465,1.1229463815689087,0.75,0.9038461538461539,0.7142857142857143,0.8571428571428571,0.0004
167,1.1291714906692505,1.5037319660186768,0.6730769230769231,0.9230769230769231,0.5714285714285714,0.8571428571428571,0.0004
168,0.8691775798797607,1.2666569948196411,0.6923076923076923,0.9230769230769231,0.7857142857142857,0.8571428571428571,0.0004
169,0.8411242663860321,1.208942174911499,0.7692307692307693,0.9807692307692307,0.5714285714285714,0.8571428571428571,0.0004
170,0.9445644319057465,1.2403640747070312,0.6538461538461539,0.8653846153846154,0.7142857142857143,0.8571428571428571,0.0004
171,0.9570966362953186,1.4142823219299316,0.7307692307692307,0.8846153846153846,0.6428571428571429,0.9285714285714286,0.0004
172,0.9210030138492584,1.1068755388259888,0.6730769230769231,0.9423076923076923,0.7142857142857143,0.9285714285714286,0.0004
173,0.9226872026920319,1.0394498109817505,0.6923076923076923,0.9230769230769231,0.6428571428571429,0.7857142857142857,0.0004
174,0.7768709659576416,1.4105823040008545,0.7115384615384616,0.9615384615384616,0.5714285714285714,0.9285714285714286,0.0004
175,1.017041027545929,1.0824750661849976,0.6538461538461539,0.9423076923076923,0.8571428571428571,0.8571428571428571,0.0004
176,0.7774011492729187,1.327094316482544,0.7692307692307693,0.9423076923076923,0.5714285714285714,0.8571428571428571,0.0004
177,0.8718922734260559,1.0934480428695679,0.7115384615384616,0.9038461538461539,0.7857142857142857,0.8571428571428571,0.0004
178,0.821908563375473,0.9150771498680115,0.7115384615384616,0.9423076923076923,0.7857142857142857,0.9285714285714286,0.0004
179,0.788200855255127,1.0658107995986938,0.7115384615384616,0.9423076923076923,0.7142857142857143,0.7857142857142857,0.0004
180,0.9102616310119629,0.9595744609832764,0.7692307692307693,0.9038461538461539,0.8571428571428571,0.8571428571428571,0.0004
181,0.9837944209575653,1.2944523096084595,0.6153846153846154,0.9230769230769231,0.5714285714285714,0.7857142857142857,0.0004
182,0.8093426823616028,0.9619190692901611,0.8269230769230769,0.9615384615384616,0.7142857142857143,0.9285714285714286,0.0004
183,0.6491449177265167,1.0823156833648682,0.8076923076923077,0.9807692307692307,0.7142857142857143,0.8571428571428571,0.0004
184,0.9345038831233978,1.3514244556427002,0.6730769230769231,0.9423076923076923,0.7142857142857143,0.7142857142857143,0.0004
185,0.8487675786018372,1.1979951858520508,0.8076923076923077,0.8846153846153846,0.6428571428571429,0.8571428571428571,0.0004
186,0.9234432578086853,0.6937143802642822,0.7115384615384616,0.8846153846153846,0.8571428571428571,0.9285714285714286,0.0004
187,0.6492583453655243,1.2193036079406738,0.75,0.9038461538461539,0.5,0.7857142857142857,0.0004
188,0.730825811624527,1.1193435192108154,0.7884615384615384,0.9615384615384616,0.5714285714285714,0.8571428571428571,0.0004
189,1.0426990389823914,1.1039535999298096,0.7115384615384616,0.8846153846153846,0.5714285714285714,0.9285714285714286,0.0004
190,0.8828555941581726,1.307749629020691,0.6730769230769231,0.9230769230769231,0.5,0.7857142857142857,0.0004
191,0.7810530960559845,1.272467017173767,0.7884615384615384,0.9423076923076923,0.6428571428571429,0.8571428571428571,0.0004
192,0.7617499828338623,1.035463571548462,0.7307692307692307,0.9615384615384616,0.7142857142857143,0.8571428571428571,0.0004
193,0.6342252492904663,1.2112784385681152,0.7692307692307693,0.9615384615384616,0.5714285714285714,0.8571428571428571,0.0004
194,0.7462189793586731,1.2724817991256714,0.7692307692307693,0.9807692307692307,0.5,0.9285714285714286,0.0004
195,0.8877331018447876,1.5485129356384277,0.7115384615384616,0.9423076923076923,0.35714285714285715,0.8571428571428571,0.0004
196,1.1383742094039917,1.120969295501709,0.6538461538461539,0.9423076923076923,0.5714285714285714,0.9285714285714286,0.0004
197,1.08675879240036,1.2345653772354126,0.6923076923076923,0.9423076923076923,0.5714285714285714,0.7857142857142857,0.0004
198,0.5823486596345901,0.5056727528572083,0.8461538461538461,0.9807692307692307,0.9285714285714286,0.9285714285714286,0.0004
199,1.2321685552597046,0.6997950673103333,0.7307692307692307,0.8846153846153846,0.7857142857142857,0.8571428571428571,0.0004
200,1.0431837439537048,1.745713710784912,0.6538461538461539,0.8846153846153846,0.5,0.7857142857142857,0.0004
201,0.7644251585006714,0.8090430498123169,0.7115384615384616,1.0,0.7857142857142857,0.8571428571428571,0.0004
202,0.8422363996505737,1.5264618396759033,0.7307692307692307,0.9423076923076923,0.5714285714285714,0.7142857142857143,0.0004
203,0.7740204632282257,1.6432349681854248,0.6730769230769231,0.9615384615384616,0.6428571428571429,0.7857142857142857,0.0004
204,0.8142151534557343,1.0942401885986328,0.7115384615384616,0.9230769230769231,0.6428571428571429,0.8571428571428571,0.0004
205,0.8174125850200653,0.8745081424713135,0.75,0.9038461538461539,0.7142857142857143,0.8571428571428571,0.0004
206,0.9256861507892609,1.2228102684020996,0.6730769230769231,0.9230769230769231,0.7857142857142857,0.8571428571428571,0.0004
207,1.0353175401687622,1.512216567993164,0.5576923076923077,0.9423076923076923,0.5,0.8571428571428571,0.0004
208,0.6872747540473938,1.2590467929840088,0.75,0.9807692307692307,0.5,0.8571428571428571,0.0004
209,0.7352823615074158,1.3746979236602783,0.7307692307692307,0.8846153846153846,0.5714285714285714,0.7857142857142857,0.0004
210,0.7808207273483276,0.905750036239624,0.7884615384615384,0.9230769230769231,0.7142857142857143,0.8571428571428571,0.0004
211,0.8942482173442841,1.1846489906311035,0.6923076923076923,0.9423076923076923,0.6428571428571429,0.8571428571428571,0.0004
212,0.8521259725093842,0.932367742061615,0.7115384615384616,0.9038461538461539,0.6428571428571429,0.9285714285714286,0.0004
213,0.8192746937274933,1.116227149963379,0.6538461538461539,0.9807692307692307,0.7857142857142857,0.9285714285714286,0.0004
214,0.7935970425605774,1.4006991386413574,0.6923076923076923,0.9807692307692307,0.5714285714285714,0.9285714285714286,0.0004
215,0.6248172521591187,1.5055551528930664,0.8076923076923077,0.9807692307692307,0.5714285714285714,0.8571428571428571,0.0004
216,1.025680124759674,1.0413661003112793,0.6730769230769231,0.9423076923076923,0.7142857142857143,0.9285714285714286,0.0004
217,0.9172929525375366,1.440931797027588,0.6923076923076923,0.9615384615384616,0.5714285714285714,0.8571428571428571,0.0004
218,0.7407250702381134,1.4308695793151855,0.7692307692307693,0.9615384615384616,0.42857142857142855,0.8571428571428571,0.0004
219,0.8835523724555969,1.0828936100006104,0.75,0.9423076923076923,0.7142857142857143,0.8571428571428571,0.0004
220,0.9644208550453186,1.2828060388565063,0.6346153846153846,0.9038461538461539,0.5714285714285714,0.9285714285714286,0.0004
221,0.7717572450637817,1.2930852174758911,0.7307692307692307,0.9423076923076923,0.5714285714285714,0.7857142857142857,0.0004
222,0.785881757736206,1.1501641273498535,0.6923076923076923,0.9423076923076923,0.7142857142857143,0.7857142857142857,0.0004
223,0.62657630443573,0.7946569919586182,0.8461538461538461,0.9230769230769231,0.7142857142857143,0.9285714285714286,0.0004
224,0.5907045602798462,1.2385039329528809,0.8269230769230769,0.9807692307692307,0.6428571428571429,0.9285714285714286,0.0004
225,0.7149842381477356,2.0898585319519043,0.7307692307692307,0.9615384615384616,0.5,0.6428571428571429,0.0004
226,0.8665235042572021,1.3721857070922852,0.7307692307692307,0.9230769230769231,0.5714285714285714,0.7857142857142857,0.0004
227,0.6322629451751709,1.0192285776138306,0.8076923076923077,0.9615384615384616,0.7142857142857143,0.8571428571428571,0.0004
228,0.6573362648487091,1.0349657535552979,0.7884615384615384,0.9807692307692307,0.7142857142857143,0.8571428571428571,0.0004
229,1.0307284593582153,1.0098419189453125,0.6538461538461539,0.9423076923076923,0.6428571428571429,0.9285714285714286,0.0004
230,0.756006270647049,1.2412986755371094,0.7692307692307693,0.9423076923076923,0.6428571428571429,0.7857142857142857,0.0004
231,0.926039844751358,1.050903558731079,0.7115384615384616,0.9230769230769231,0.6428571428571429,0.9285714285714286,0.0004
232,0.6252868175506592,1.2918555736541748,0.8076923076923077,0.9807692307692307,0.7142857142857143,0.7857142857142857,0.0004
233,0.5850657522678375,1.3470659255981445,0.8461538461538461,0.9615384615384616,0.5,0.8571428571428571,0.0004
234,0.8555058240890503,1.387129545211792,0.7115384615384616,0.9615384615384616,0.5714285714285714,0.7857142857142857,0.0004
235,0.9392318725585938,1.3235831260681152,0.7307692307692307,0.9230769230769231,0.6428571428571429,0.7857142857142857,0.0004
236,0.8855994343757629,0.9462325572967529,0.8076923076923077,0.9038461538461539,0.7142857142857143,0.9285714285714286,0.0004
237,0.9549804925918579,1.1984646320343018,0.6923076923076923,0.9615384615384616,0.7857142857142857,0.8571428571428571,0.0004
238,0.7736189365386963,1.8278179168701172,0.7115384615384616,0.9423076923076923,0.5714285714285714,0.8571428571428571,0.0004
239,0.8110640048980713,1.0589711666107178,0.7115384615384616,0.9423076923076923,0.7142857142857143,0.9285714285714286,0.0004
240,0.6650334894657135,1.275645136833191,0.8076923076923077,0.9807692307692307,0.5714285714285714,0.8571428571428571,0.0004
241,0.8217689096927643,1.0386532545089722,0.8076923076923077,0.9230769230769231,0.7142857142857143,0.9285714285714286,0.0004
242,1.0265434682369232,1.52791428565979,0.7307692307692307,0.8846153846153846,0.42857142857142855,0.7857142857142857,0.0004
243,0.8017842173576355,1.4004452228546143,0.6730769230769231,0.9615384615384616,0.5714285714285714,0.9285714285714286,0.0004
244,0.7670291066169739,1.1848223209381104,0.7307692307692307,0.9423076923076923,0.7857142857142857,0.8571428571428571,0.0004
245,0.8211711943149567,0.956020712852478,0.7115384615384616,0.9615384615384616,0.7857142857142857,0.9285714285714286,0.0004
246,1.0176559686660767,1.4267513751983643,0.6730769230769231,0.8846153846153846,0.5714285714285714,0.8571428571428571,0.0004
247,0.6800225079059601,0.8980813026428223,0.75,0.9615384615384616,0.7857142857142857,0.8571428571428571,0.0004
248,0.9079915881156921,1.2447903156280518,0.6346153846153846,0.9423076923076923,0.6428571428571429,0.9285714285714286,0.0004
249,0.8142549097537994,1.0750712156295776,0.6730769230769231,0.9423076923076923,0.7857142857142857,0.9285714285714286,0.0004
250,0.8396097123622894,0.8626857399940491,0.6730769230769231,0.9615384615384616,0.7857142857142857,0.8571428571428571,0.0004
251,0.9725671112537384,1.2538946866989136,0.6538461538461539,0.9423076923076923,0.5714285714285714,0.7857142857142857,0.0004
252,0.9248582422733307,1.0622167587280273,0.6730769230769231,0.9615384615384616,0.7142857142857143,0.8571428571428571,0.0004
253,0.9791639447212219,1.01214599609375,0.5961538461538461,0.9807692307692307,0.7142857142857143,0.9285714285714286,0.0004
254,0.8321932852268219,1.0799691677093506,0.6923076923076923,0.9230769230769231,0.5714285714285714,0.8571428571428571,0.0004
255,0.9695757031440735,1.1237835884094238,0.5961538461538461,0.9038461538461539,0.5714285714285714,0.8571428571428571,0.0004
256,1.0332233309745789,1.1792194843292236,0.6346153846153846,0.9038461538461539,0.7142857142857143,0.8571428571428571,0.0004
257,0.6354069411754608,1.8274304866790771,0.7307692307692307,0.9230769230769231,0.35714285714285715,0.7142857142857143,0.0004
258,0.8812150061130524,1.0236749649047852,0.6730769230769231,0.9230769230769231,0.6428571428571429,0.8571428571428571,0.0004
259,0.8713286519050598,1.6439552307128906,0.7307692307692307,0.9423076923076923,0.35714285714285715,0.7857142857142857,0.0004
260,0.705827385187149,1.057866096496582,0.75,0.9807692307692307,0.6428571428571429,0.9285714285714286,0.0004
261,0.8793310523033142,1.1625540256500244,0.6538461538461539,0.9230769230769231,0.7142857142857143,0.8571428571428571,0.0004
262,1.0311358571052551,1.5767207145690918,0.6153846153846154,0.9423076923076923,0.5714285714285714,0.8571428571428571,0.0004
263,0.9352132678031921,0.8836088180541992,0.7115384615384616,0.9230769230769231,0.6428571428571429,0.9285714285714286,0.0004
264,0.8083098828792572,1.5954089164733887,0.7692307692307693,0.9423076923076923,0.5714285714285714,0.7857142857142857,0.0004
265,1.066100835800171,1.292952537536621,0.6346153846153846,0.8846153846153846,0.6428571428571429,0.7857142857142857,0.0004
266,0.8562076985836029,1.0608012676239014,0.6923076923076923,0.9423076923076923,0.6428571428571429,0.8571428571428571,0.0004
267,0.7833677530288696,1.4447321891784668,0.7307692307692307,0.9423076923076923,0.7142857142857143,0.6428571428571429,0.0004
268,0.8656975328922272,1.3822076320648193,0.6730769230769231,0.9423076923076923,0.5714285714285714,0.9285714285714286,0.0004
269,0.8234924376010895,1.4178191423416138,0.7884615384615384,0.9230769230769231,0.6428571428571429,0.7857142857142857,0.0004
270,0.9396411776542664,1.6176915168762207,0.7115384615384616,0.8846153846153846,0.5714285714285714,0.7857142857142857,0.0004
271,0.7199022769927979,0.9773653149604797,0.75,0.9423076923076923,0.8571428571428571,0.8571428571428571,0.0004
272,0.803840309381485,1.3066585063934326,0.6730769230769231,0.9230769230769231,0.5714285714285714,0.8571428571428571,0.0004
273,0.8895019888877869,1.4935729503631592,0.6346153846153846,0.9423076923076923,0.5714285714285714,0.8571428571428571,0.0004
274,0.839405745267868,1.6936545372009277,0.6346153846153846,0.9615384615384616,0.6428571428571429,0.8571428571428571,0.0004
275,0.8643015325069427,1.251441240310669,0.75,0.9230769230769231,0.5,0.9285714285714286,0.0004
276,0.8397674262523651,2.138845443725586,0.6346153846153846,0.9230769230769231,0.5714285714285714,0.7857142857142857,0.0004
277,0.9904376864433289,1.4414498805999756,0.6538461538461539,0.9038461538461539,0.6428571428571429,0.8571428571428571,0.0004
278,0.8500226736068726,1.0251379013061523,0.75,0.9038461538461539,0.7142857142857143,0.9285714285714286,0.0004
279,0.7260004878044128,0.8194065690040588,0.7692307692307693,0.9807692307692307,0.7857142857142857,1.0,0.0004
280,0.8326634466648102,1.0108777284622192,0.7115384615384616,1.0,0.7142857142857143,0.9285714285714286,0.0004
281,0.7777200937271118,1.1123433113098145,0.7307692307692307,0.9615384615384616,0.7142857142857143,0.7857142857142857,0.0004
282,0.6176664531230927,1.1593791246414185,0.8076923076923077,1.0,0.7857142857142857,0.8571428571428571,0.0004
283,0.7987800240516663,1.4535094499588013,0.6923076923076923,0.9615384615384616,0.5714285714285714,0.8571428571428571,0.0004
284,0.9286704361438751,1.218435525894165,0.6923076923076923,0.9230769230769231,0.7142857142857143,0.8571428571428571,0.0004
285,0.5592181086540222,1.038512945175171,0.8076923076923077,0.9807692307692307,0.7142857142857143,0.9285714285714286,0.0004
286,1.0176998972892761,1.0770576000213623,0.6923076923076923,0.8461538461538461,0.7142857142857143,0.9285714285714286,0.0004
287,0.7488683462142944,1.9373626708984375,0.7692307692307693,0.9615384615384616,0.5,0.7142857142857143,0.0004
288,0.6679351031780243,1.00514554977417,0.8269230769230769,0.9423076923076923,0.7142857142857143,0.8571428571428571,0.0004
289,0.6341418623924255,0.8149585127830505,0.7692307692307693,0.9807692307692307,0.7857142857142857,0.8571428571428571,0.0004
290,0.8970440030097961,1.3974815607070923,0.6730769230769231,0.8846153846153846,0.7142857142857143,0.9285714285714286,0.0004
291,0.7434701919555664,1.3456625938415527,0.7692307692307693,0.9807692307692307,0.6428571428571429,0.8571428571428571,0.0004
292,0.8646830022335052,1.2154712677001953,0.6730769230769231,0.9423076923076923,0.6428571428571429,0.8571428571428571,0.0004
293,0.6084225475788116,1.0573426485061646,0.8076923076923077,0.9423076923076923,0.6428571428571429,0.7857142857142857,0.0004
294,0.8832739889621735,1.3046209812164307,0.6346153846153846,0.9615384615384616,0.6428571428571429,0.8571428571428571,0.0004
295,0.8975318670272827,1.2735590934753418,0.7115384615384616,0.9615384615384616,0.6428571428571429,0.9285714285714286,0.0004
296,1.0012063086032867,1.1078472137451172,0.5961538461538461,0.9423076923076923,0.6428571428571429,0.8571428571428571,0.0004
297,0.700060248374939,0.7652693390846252,0.7692307692307693,0.9230769230769231,0.7142857142857143,0.9285714285714286,0.0004
298,0.5435430109500885,0.9475566148757935,0.8269230769230769,0.9615384615384616,0.7857142857142857,0.8571428571428571,0.0004
299,0.6527862548828125,1.1212947368621826,0.7307692307692307,1.0,0.7142857142857143,0.9285714285714286,0.0004
300,0.8493576347827911,0.9282284379005432,0.7115384615384616,0.9615384615384616,0.7857142857142857,0.8571428571428571,0.0004
301,0.7100295126438141,0.9462124705314636,0.75,0.9230769230769231,0.7857142857142857,0.7857142857142857,0.0004
302,0.7718237340450287,1.1723997592926025,0.6923076923076923,0.9615384615384616,0.6428571428571429,0.8571428571428571,0.0004
303,0.9814634919166565,0.9606448411941528,0.6538461538461539,0.9423076923076923,0.7857142857142857,0.9285714285714286,0.0004
304,0.8193325698375702,0.5028589963912964,0.6923076923076923,0.9230769230769231,0.8571428571428571,0.9285714285714286,0.0004
305,0.5752799212932587,1.1449851989746094,0.7884615384615384,1.0,0.7142857142857143,0.9285714285714286,0.0004
306,0.8255895674228668,0.7178904414176941,0.7115384615384616,0.9615384615384616,0.8571428571428571,0.9285714285714286,0.0004
307,0.7625721395015717,1.2078371047973633,0.7692307692307693,0.9423076923076923,0.7142857142857143,0.8571428571428571,0.0004
308,0.8853216469287872,1.0061172246932983,0.7692307692307693,0.8846153846153846,0.7857142857142857,0.8571428571428571,0.0004
309,0.6997450292110443,2.04482102394104,0.8076923076923077,0.9807692307692307,0.5,0.7857142857142857,0.0004
310,0.6377996504306793,1.3982765674591064,0.7692307692307693,0.9807692307692307,0.6428571428571429,0.8571428571428571,0.0004
311,0.7921675741672516,1.211148977279663,0.7115384615384616,0.9615384615384616,0.5714285714285714,0.8571428571428571,0.0004
312,1.1273201704025269,0.9700263142585754,0.6346153846153846,0.9038461538461539,0.7857142857142857,0.9285714285714286,0.0004
313,1.0504323542118073,0.977088987827301,0.5769230769230769,0.9230769230769231,0.7857142857142857,0.8571428571428571,0.0004
314,0.48779435455799103,0.5813487768173218,0.8269230769230769,1.0,0.8571428571428571,0.8571428571428571,0.0004
315,0.8623447120189667,1.1436291933059692,0.6730769230769231,0.9423076923076923,0.7857142857142857,0.8571428571428571,0.0004
316,0.872127503156662,1.232279896736145,0.6923076923076923,0.9423076923076923,0.7142857142857143,0.7857142857142857,0.0004
317,0.817895233631134,0.8806535005569458,0.7307692307692307,0.9423076923076923,0.7857142857142857,0.9285714285714286,0.0004
318,0.794031023979187,1.0424373149871826,0.6923076923076923,0.9615384615384616,0.7142857142857143,0.8571428571428571,0.0004
319,0.7722679376602173,1.0840954780578613,0.6923076923076923,0.9615384615384616,0.8571428571428571,0.8571428571428571,0.0004
320,0.6024460792541504,0.7949806451797485,0.8269230769230769,0.9615384615384616,0.7142857142857143,0.9285714285714286,0.0004
321,0.6379063129425049,1.2104991674423218,0.7884615384615384,0.9615384615384616,0.6428571428571429,0.8571428571428571,0.0004
322,0.8625127673149109,1.216496229171753,0.75,0.9615384615384616,0.7142857142857143,0.8571428571428571,0.0004
323,0.7811903357505798,0.9760181903839111,0.75,0.9230769230769231,0.6428571428571429,0.8571428571428571,0.0004
324,0.5230569541454315,1.4986075162887573,0.8461538461538461,0.9807692307692307,0.6428571428571429,0.7857142857142857,0.0004
325,0.5308554917573929,0.9817550182342529,0.7884615384615384,0.9807692307692307,0.7142857142857143,0.9285714285714286,0.0004
326,0.7547904551029205,1.0665063858032227,0.6730769230769231,0.9615384615384616,0.7142857142857143,0.8571428571428571,0.0004
327,0.8587222993373871,1.490735411643982,0.7115384615384616,0.9423076923076923,0.6428571428571429,0.8571428571428571,0.0004
328,0.858583003282547,1.4644383192062378,0.6730769230769231,0.9423076923076923,0.6428571428571429,0.7857142857142857,0.0004
329,0.7996031939983368,1.1162796020507812,0.7115384615384616,0.9615384615384616,0.5714285714285714,0.8571428571428571,0.0004
330,0.794445127248764,1.6012483835220337,0.6923076923076923,0.9423076923076923,0.5,0.9285714285714286,0.0004
331,0.6437083780765533,1.1613277196884155,0.75,1.0,0.7857142857142857,0.7857142857142857,0.0004
332,1.101308912038803,1.0540771484375,0.6346153846153846,0.9230769230769231,0.7857142857142857,0.8571428571428571,0.0004
333,0.6186161637306213,0.9272202253341675,0.8076923076923077,0.9615384615384616,0.8571428571428571,0.8571428571428571,0.0004
334,0.6046453416347504,0.6603775024414062,0.7307692307692307,0.9807692307692307,1.0,0.9285714285714286,0.0004
335,0.6117463856935501,1.3568586111068726,0.8076923076923077,0.9615384615384616,0.5714285714285714,0.8571428571428571,0.0004
336,0.6445379555225372,0.7097442746162415,0.75,0.9807692307692307,0.9285714285714286,0.9285714285714286,0.0004
337,0.7804756462574005,1.6294869184494019,0.7307692307692307,0.9423076923076923,0.7857142857142857,0.7857142857142857,0.0004
338,0.7823410928249359,1.2688488960266113,0.75,0.9423076923076923,0.6428571428571429,0.7857142857142857,0.0004
339,0.7410182654857635,0.6530587673187256,0.75,0.9423076923076923,0.9285714285714286,0.9285714285714286,0.0004
340,0.6763397753238678,1.3261873722076416,0.7884615384615384,0.9423076923076923,0.5714285714285714,0.9285714285714286,0.0004
341,1.0548272132873535,0.7589892148971558,0.6923076923076923,0.9230769230769231,0.7142857142857143,0.8571428571428571,0.0004
342,0.8112516105175018,0.9937283992767334,0.7692307692307693,0.9423076923076923,0.7857142857142857,0.8571428571428571,0.0004
343,0.6806342303752899,0.8516799211502075,0.75,0.9230769230769231,0.8571428571428571,0.8571428571428571,0.0004
344,0.8238066732883453,1.4475243091583252,0.7115384615384616,0.8846153846153846,0.7142857142857143,0.8571428571428571,0.0004
345,0.7039862871170044,1.3971869945526123,0.7115384615384616,0.9423076923076923,0.5714285714285714,0.8571428571428571,0.0004
346,0.7895089387893677,1.1295071840286255,0.6923076923076923,0.9038461538461539,0.7142857142857143,0.8571428571428571,0.0004
347,0.8477716743946075,0.6016769409179688,0.7115384615384616,0.9423076923076923,0.8571428571428571,0.8571428571428571,0.0004
348,1.0161218047142029,0.6061934232711792,0.6923076923076923,0.9230769230769231,0.9285714285714286,0.9285714285714286,0.0004
349,0.9223034977912903,1.0392717123031616,0.7115384615384616,0.8653846153846154,0.7857142857142857,0.9285714285714286,0.0004
350,0.9157675802707672,1.2091948986053467,0.7307692307692307,0.9423076923076923,0.7857142857142857,0.8571428571428571,0.0004
351,0.7807760238647461,0.7935489416122437,0.7692307692307693,0.8846153846153846,0.8571428571428571,0.8571428571428571,0.0004
352,0.755469799041748,0.9887517690658569,0.7115384615384616,0.9615384615384616,0.6428571428571429,0.9285714285714286,0.0004
353,0.7070090472698212,1.0650618076324463,0.8076923076923077,0.9423076923076923,0.7142857142857143,0.8571428571428571,0.0004
354,0.7028711438179016,0.8589902520179749,0.75,0.9807692307692307,0.7857142857142857,0.7142857142857143,0.0004
355,0.8014093935489655,1.5221425294876099,0.8076923076923077,0.9615384615384616,0.5714285714285714,0.7857142857142857,0.0004
356,1.0099931359291077,0.5187563300132751,0.7115384615384616,0.8461538461538461,0.8571428571428571,1.0,0.0004
357,0.9173808097839355,1.0134551525115967,0.75,0.9230769230769231,0.6428571428571429,0.8571428571428571,0.0004
358,0.8212170004844666,1.1797124147415161,0.6923076923076923,0.9230769230769231,0.7142857142857143,0.9285714285714286,0.0004
359,0.7269324958324432,1.3325450420379639,0.7307692307692307,0.9230769230769231,0.7142857142857143,0.8571428571428571,0.0004
360,0.6923016309738159,0.9303237795829773,0.7115384615384616,0.9807692307692307,0.6428571428571429,0.8571428571428571,0.0004
361,0.5786227285861969,1.3594379425048828,0.8076923076923077,0.9807692307692307,0.5714285714285714,0.8571428571428571,0.0004
362,0.6846477389335632,0.9890341758728027,0.7115384615384616,0.9230769230769231,0.5714285714285714,0.9285714285714286,0.0004
363,0.9236501157283783,1.585524559020996,0.6346153846153846,0.9423076923076923,0.6428571428571429,0.7857142857142857,0.0004
364,0.6343375742435455,1.1655855178833008,0.8076923076923077,0.9615384615384616,0.6428571428571429,0.7857142857142857,0.0004
365,0.901842325925827,1.186631679534912,0.6923076923076923,0.9038461538461539,0.5714285714285714,0.9285714285714286,0.0004
366,0.7348017394542694,0.7902399301528931,0.7307692307692307,0.9423076923076923,0.9285714285714286,0.8571428571428571,0.0004
367,0.8112683594226837,0.9341171979904175,0.7692307692307693,0.9423076923076923,0.7857142857142857,0.8571428571428571,0.0004
368,0.8440381288528442,1.1817305088043213,0.6923076923076923,0.9230769230769231,0.7142857142857143,0.9285714285714286,0.0004
369,0.7138792276382446,1.1377785205841064,0.7307692307692307,0.9615384615384616,0.7857142857142857,0.8571428571428571,0.0004
370,0.784750372171402,0.9871500730514526,0.75,0.9423076923076923,0.7142857142857143,0.8571428571428571,0.0004
371,1.0967710614204407,1.0040764808654785,0.7307692307692307,0.9423076923076923,0.5714285714285714,0.8571428571428571,0.0004
372,0.7702851295471191,0.928358256816864,0.75,0.9615384615384616,0.7142857142857143,0.8571428571428571,0.0004
373,0.8633753061294556,1.3460744619369507,0.7115384615384616,0.9615384615384616,0.5714285714285714,0.8571428571428571,0.0004
374,0.5864964425563812,1.5241963863372803,0.7307692307692307,1.0,0.6428571428571429,0.9285714285714286,0.0004
375,0.6300520300865173,1.3350059986114502,0.8461538461538461,0.9807692307692307,0.6428571428571429,0.9285714285714286,0.0004
376,0.8731688857078552,1.2241473197937012,0.75,0.9230769230769231,0.5,0.9285714285714286,0.0004
377,0.6732512414455414,0.9440253973007202,0.7692307692307693,0.9807692307692307,0.6428571428571429,0.9285714285714286,0.0004
378,0.7367550432682037,0.7649617195129395,0.6538461538461539,1.0,0.7142857142857143,0.9285714285714286,0.0004
379,0.7480891048908234,1.4693033695220947,0.75,0.9230769230769231,0.6428571428571429,0.8571428571428571,0.0004
380,0.7677808403968811,1.2207481861114502,0.7307692307692307,0.9230769230769231,0.7857142857142857,0.9285714285714286,0.0004
381,0.6938589513301849,0.8161845207214355,0.75,0.9807692307692307,0.7857142857142857,0.9285714285714286,0.0004
382,0.8250449597835541,1.2066452503204346,0.7692307692307693,0.9230769230769231,0.6428571428571429,0.9285714285714286,0.0004
383,0.9620696902275085,1.3462259769439697,0.6730769230769231,0.9038461538461539,0.6428571428571429,0.8571428571428571,0.0004
384,0.8115741014480591,1.1739987134933472,0.7307692307692307,0.9423076923076923,0.7142857142857143,0.7857142857142857,0.0004
385,0.6487964987754822,1.5313971042633057,0.7884615384615384,0.9423076923076923,0.35714285714285715,0.9285714285714286,0.0004
386,0.6567303240299225,1.013985276222229,0.75,0.9423076923076923,0.7142857142857143,0.9285714285714286,0.0004
387,0.8264000415802002,1.0405817031860352,0.7307692307692307,0.9423076923076923,0.7142857142857143,0.9285714285714286,0.0004
388,0.6530936658382416,0.8744619488716125,0.7884615384615384,0.9230769230769231,0.8571428571428571,0.8571428571428571,0.0004
389,0.9352185726165771,1.2646723985671997,0.5961538461538461,0.9423076923076923,0.5714285714285714,0.7857142857142857,0.0004
390,0.8084068298339844,0.9774059057235718,0.6923076923076923,0.9230769230769231,0.8571428571428571,0.9285714285714286,0.0004
391,0.725325882434845,1.617976427078247,0.7307692307692307,0.9615384615384616,0.5714285714285714,0.7857142857142857,0.0004
392,0.878590315580368,0.9782500863075256,0.6730769230769231,0.9230769230769231,0.8571428571428571,0.8571428571428571,0.0004
393,0.746065765619278,0.7490725517272949,0.75,0.9038461538461539,0.6428571428571429,1.0,0.0004
394,0.64093416929245,0.9670857787132263,0.8076923076923077,0.9423076923076923,0.7142857142857143,0.9285714285714286,0.0004
395,0.6549278795719147,1.2806200981140137,0.7307692307692307,0.9807692307692307,0.7142857142857143,0.8571428571428571,0.0004
396,0.9619211256504059,1.2832533121109009,0.7115384615384616,0.9230769230769231,0.7142857142857143,0.8571428571428571,0.0004
397,0.8828606009483337,1.1208235025405884,0.7115384615384616,0.9807692307692307,0.7142857142857143,0.9285714285714286,0.0004
398,0.7339786291122437,1.4330294132232666,0.8076923076923077,0.9038461538461539,0.5714285714285714,0.8571428571428571,0.0004
399,0.8429475426673889,1.5232572555541992,0.6923076923076923,0.9038461538461539,0.6428571428571429,0.8571428571428571,0.0004
400,0.7940724790096283,0.9784477949142456,0.7115384615384616,0.9615384615384616,0.7142857142857143,0.9285714285714286,0.0004
401,0.7489804327487946,0.9863337278366089,0.7307692307692307,0.9615384615384616,0.9285714285714286,0.9285714285714286,0.0004
402,0.7661585807800293,0.8889415264129639,0.7884615384615384,0.9423076923076923,0.7142857142857143,0.9285714285714286,0.0004
403,0.6568067073822021,1.0791839361190796,0.7307692307692307,0.9615384615384616,0.7142857142857143,0.9285714285714286,0.0004
404,0.7943679094314575,0.731885552406311,0.7115384615384616,0.9423076923076923,1.0,0.9285714285714286,0.0004
405,0.8898537755012512,1.7853038311004639,0.7307692307692307,0.9423076923076923,0.42857142857142855,0.6428571428571429,0.0004
406,0.6374474167823792,1.009185552597046,0.8269230769230769,1.0,0.6428571428571429,0.9285714285714286,0.0004
407,0.6043451428413391,1.1560389995574951,0.8076923076923077,0.9807692307692307,0.6428571428571429,0.9285714285714286,0.0004
408,0.8552901446819305,0.6842382550239563,0.6538461538461539,0.9423076923076923,0.7857142857142857,0.8571428571428571,0.0004
409,0.557118684053421,0.6977278590202332,0.7692307692307693,1.0,0.7142857142857143,0.9285714285714286,0.0004
410,0.70909583568573,1.2764885425567627,0.8269230769230769,0.9615384615384616,0.7142857142857143,0.8571428571428571,0.0004
411,0.6899511218070984,1.0795061588287354,0.7692307692307693,0.9615384615384616,0.6428571428571429,0.8571428571428571,0.0004
412,0.8267876207828522,1.2879438400268555,0.7115384615384616,0.9423076923076923,0.6428571428571429,0.9285714285714286,0.0004
413,0.6539725065231323,1.3876709938049316,0.7692307692307693,0.9615384615384616,0.6428571428571429,0.8571428571428571,0.0004
414,0.6959795653820038,1.095073938369751,0.7115384615384616,0.9230769230769231,0.7142857142857143,0.8571428571428571,0.0004
415,0.7891269028186798,1.171006441116333,0.7115384615384616,0.9230769230769231,0.5714285714285714,0.9285714285714286,0.0004
416,0.9015393853187561,1.5929737091064453,0.6538461538461539,0.9230769230769231,0.5714285714285714,0.8571428571428571,0.0004
417,0.9179873168468475,1.7860429286956787,0.6730769230769231,0.9423076923076923,0.5714285714285714,0.7857142857142857,0.0004
418,0.7975177466869354,1.5367929935455322,0.7115384615384616,0.9423076923076923,0.7142857142857143,0.7857142857142857,0.0004
419,0.7303085029125214,1.3866667747497559,0.6346153846153846,0.9807692307692307,0.7142857142857143,0.8571428571428571,0.0004
420,0.530480682849884,1.5917173624038696,0.7692307692307693,1.0,0.6428571428571429,0.8571428571428571,0.0004
421,0.7608623653650284,2.068737030029297,0.6730769230769231,0.9615384615384616,0.42857142857142855,0.7142857142857143,0.0004
422,0.572825700044632,1.6772949695587158,0.75,1.0,0.6428571428571429,0.8571428571428571,0.0004
423,0.6357118785381317,1.7035048007965088,0.7884615384615384,0.9615384615384616,0.7142857142857143,0.7857142857142857,0.0004
424,0.9803322851657867,1.071143627166748,0.6346153846153846,0.9423076923076923,0.7857142857142857,0.8571428571428571,0.0004
425,0.6777525246143341,1.3366373777389526,0.75,0.9230769230769231,0.7142857142857143,0.8571428571428571,0.0004
426,0.8696450293064117,1.6631481647491455,0.7115384615384616,0.9423076923076923,0.5714285714285714,0.8571428571428571,0.0004
427,0.7454533576965332,1.061509370803833,0.75,0.9423076923076923,0.7857142857142857,0.9285714285714286,0.0004
428,1.0318761765956879,1.115206003189087,0.6538461538461539,0.8846153846153846,0.7142857142857143,0.8571428571428571,0.0004
429,0.6128133237361908,1.072205662727356,0.8269230769230769,0.9423076923076923,0.7142857142857143,0.9285714285714286,0.0004
430,0.7330863177776337,0.8772780895233154,0.75,0.9230769230769231,0.7142857142857143,0.8571428571428571,0.0004
431,0.9339712262153625,0.6683952212333679,0.6346153846153846,0.9615384615384616,0.7142857142857143,0.9285714285714286,0.0004
432,0.7966248691082001,1.04970121383667,0.7115384615384616,0.9615384615384616,0.6428571428571429,0.7857142857142857,0.0004
433,0.9168185293674469,1.0572041273117065,0.6730769230769231,0.9038461538461539,0.7142857142857143,0.8571428571428571,0.0004
434,0.8702030181884766,0.9138008952140808,0.6538461538461539,0.9038461538461539,0.8571428571428571,0.8571428571428571,0.0004
435,0.8056302070617676,1.256392478942871,0.7692307692307693,0.9038461538461539,0.7142857142857143,0.7857142857142857,0.0004
436,0.5684146583080292,1.0835957527160645,0.8461538461538461,1.0,0.5714285714285714,0.9285714285714286,0.0004
437,0.7410034835338593,1.4421417713165283,0.7115384615384616,0.9615384615384616,0.5,0.7857142857142857,0.0004
438,0.8335663974285126,1.2226582765579224,0.6730769230769231,0.9423076923076923,0.7857142857142857,0.9285714285714286,0.0004
439,0.6187752187252045,0.9645246267318726,0.7692307692307693,0.9807692307692307,0.7857142857142857,0.9285714285714286,0.0004
440,0.721710592508316,0.9599149227142334,0.7884615384615384,0.9615384615384616,0.7142857142857143,0.8571428571428571,0.0004
441,0.8975747227668762,0.9863024353981018,0.6346153846153846,0.8846153846153846,0.7857142857142857,0.8571428571428571,0.0004
442,0.6604706943035126,0.8191064596176147,0.8076923076923077,0.9615384615384616,0.7142857142857143,0.8571428571428571,0.0004
443,0.6794590651988983,2.332293748855591,0.7692307692307693,0.9807692307692307,0.42857142857142855,0.7857142857142857,0.0004
444,0.870456725358963,0.9346613883972168,0.75,0.9615384615384616,0.5714285714285714,0.9285714285714286,0.0004
445,0.6128012239933014,1.1218992471694946,0.7884615384615384,0.9807692307692307,0.7857142857142857,0.8571428571428571,0.0004
446,0.8091139197349548,0.9357850551605225,0.6923076923076923,0.9615384615384616,0.7857142857142857,0.9285714285714286,0.0004
447,1.0524014830589294,1.2257752418518066,0.7115384615384616,0.8846153846153846,0.7142857142857143,0.8571428571428571,0.0004
448,0.6914308816194534,1.236141562461853,0.7884615384615384,0.9230769230769231,0.7142857142857143,0.8571428571428571,0.0004
449,0.7274741232395172,1.0556578636169434,0.6923076923076923,0.9423076923076923,0.7142857142857143,0.8571428571428571,0.0004
450,0.6978698372840881,1.2640275955200195,0.7692307692307693,0.9615384615384616,0.6428571428571429,0.7857142857142857,0.0004
451,0.6864420771598816,1.1785521507263184,0.7692307692307693,0.9423076923076923,0.7857142857142857,0.7857142857142857,0.0004
452,0.6627571880817413,1.3306553363800049,0.75,0.9423076923076923,0.5714285714285714,0.8571428571428571,0.0004
453,0.7984819710254669,0.7278709411621094,0.75,0.9230769230769231,0.9285714285714286,0.8571428571428571,0.0004
454,0.683991551399231,0.8677030205726624,0.6730769230769231,0.9807692307692307,0.8571428571428571,0.8571428571428571,0.0004
455,0.8048903048038483,0.8937451839447021,0.6730769230769231,0.9615384615384616,0.7857142857142857,0.9285714285714286,0.0004
456,0.727392315864563,1.32346510887146,0.75,0.9423076923076923,0.5,0.9285714285714286,0.0004
457,0.7810289263725281,0.7814953923225403,0.7692307692307693,0.9807692307692307,0.7857142857142857,0.9285714285714286,0.0004
458,0.9165712893009186,1.1500275135040283,0.6923076923076923,0.9423076923076923,0.7142857142857143,0.8571428571428571,0.0004
459,0.6546754240989685,0.8399914503097534,0.7692307692307693,0.9423076923076923,0.7857142857142857,0.9285714285714286,0.0004
460,0.885884553194046,0.9028667211532593,0.7115384615384616,0.8846153846153846,0.9285714285714286,0.7857142857142857,0.0004
461,0.846911609172821,1.7131297588348389,0.6346153846153846,0.9230769230769231,0.6428571428571429,0.9285714285714286,0.0004
462,0.705450564622879,1.404254674911499,0.7692307692307693,0.9615384615384616,0.5714285714285714,0.7857142857142857,0.0004
463,1.0379222333431244,1.1988041400909424,0.7307692307692307,0.9038461538461539,0.7142857142857143,0.8571428571428571,0.0004
464,0.7781295478343964,1.3393785953521729,0.75,0.9615384615384616,0.6428571428571429,0.7142857142857143,0.0004
465,0.923952728509903,0.8334786295890808,0.6346153846153846,0.9615384615384616,0.9285714285714286,0.9285714285714286,0.0004
466,0.7458524107933044,1.4891021251678467,0.7307692307692307,0.9615384615384616,0.5714285714285714,0.7857142857142857,0.0004
467,0.5894378423690796,0.7784364223480225,0.8269230769230769,0.9807692307692307,0.8571428571428571,0.9285714285714286,0.0004
468,0.7365136742591858,1.322716236114502,0.75,0.9807692307692307,0.5714285714285714,0.8571428571428571,0.0004
469,0.699689581990242,0.9009237885475159,0.7692307692307693,0.9423076923076923,0.7857142857142857,0.9285714285714286,0.0004
470,0.7475888133049011,0.9639876484870911,0.75,0.9423076923076923,0.7857142857142857,0.8571428571428571,0.0004
471,0.7452369332313538,1.0307507514953613,0.7307692307692307,0.9230769230769231,0.7142857142857143,0.8571428571428571,0.0004
472,0.9471303820610046,0.8431997299194336,0.6538461538461539,0.9038461538461539,0.7142857142857143,0.9285714285714286,0.0004
473,0.7581112682819366,0.7308967113494873,0.7692307692307693,0.9230769230769231,0.8571428571428571,0.9285714285714286,0.0004
474,0.6858083605766296,1.1644340753555298,0.6923076923076923,0.9807692307692307,0.5714285714285714,0.7857142857142857,0.0004
475,0.7452871799468994,1.1455543041229248,0.75,0.9807692307692307,0.7142857142857143,0.9285714285714286,0.0004
476,0.765385091304779,0.9521485567092896,0.75,0.9423076923076923,0.7142857142857143,0.9285714285714286,0.0004
477,0.9084915518760681,1.6731083393096924,0.7692307692307693,0.9230769230769231,0.5714285714285714,0.8571428571428571,0.0004
478,0.6549012362957001,1.6489806175231934,0.7692307692307693,0.9807692307692307,0.5714285714285714,0.7857142857142857,0.0004
479,0.8936289846897125,0.8901418447494507,0.6346153846153846,0.9230769230769231,0.7142857142857143,0.9285714285714286,0.0004
480,0.9440019726753235,1.503066062927246,0.6923076923076923,0.9230769230769231,0.5714285714285714,0.7857142857142857,0.0004
481,0.730430006980896,1.1703031063079834,0.7884615384615384,0.9423076923076923,0.6428571428571429,0.9285714285714286,0.0004
482,0.7498819828033447,1.3471792936325073,0.7115384615384616,0.9423076923076923,0.7142857142857143,0.8571428571428571,0.0004
483,1.026921421289444,1.0458061695098877,0.6923076923076923,0.9230769230769231,0.6428571428571429,0.8571428571428571,0.0004
484,0.8453131318092346,1.2274508476257324,0.6730769230769231,0.9423076923076923,0.7857142857142857,0.7857142857142857,0.0004
485,0.7634224891662598,1.346306562423706,0.7692307692307693,0.8846153846153846,0.5714285714285714,0.7857142857142857,0.0004
486,0.645702987909317,1.032724142074585,0.7692307692307693,0.9807692307692307,0.7142857142857143,0.7857142857142857,0.0004
487,0.7093198299407959,0.8918941020965576,0.75,0.9807692307692307,0.7857142857142857,0.9285714285714286,0.0004
488,0.9964773952960968,1.1680742502212524,0.7115384615384616,0.9230769230769231,0.7142857142857143,0.8571428571428571,0.0004
489,1.0614598989486694,1.3920962810516357,0.7307692307692307,0.9230769230769231,0.5714285714285714,0.8571428571428571,0.0004
490,0.6365926116704941,1.1134740114212036,0.7884615384615384,1.0,0.7142857142857143,0.8571428571428571,0.0004
491,1.0516394972801208,0.8319784998893738,0.6923076923076923,0.9230769230769231,0.8571428571428571,0.8571428571428571,0.0004
492,0.8752461969852448,1.459220290184021,0.6153846153846154,0.9230769230769231,0.5714285714285714,0.8571428571428571,0.0004
493,0.9965107142925262,1.2816171646118164,0.7884615384615384,0.9423076923076923,0.6428571428571429,0.9285714285714286,0.0004
494,0.6848300993442535,1.1372604370117188,0.6923076923076923,0.9423076923076923,0.7142857142857143,0.8571428571428571,0.0004
495,0.836946427822113,1.0335379838943481,0.6346153846153846,0.9615384615384616,0.7142857142857143,0.9285714285714286,0.0004
496,0.82626011967659,1.0039176940917969,0.6923076923076923,0.9807692307692307,0.7142857142857143,0.9285714285714286,0.0004
497,0.705500990152359,0.6329562664031982,0.7115384615384616,0.9615384615384616,0.8571428571428571,0.9285714285714286,0.0004
498,0.8080685436725616,1.3622760772705078,0.75,0.9615384615384616,0.6428571428571429,0.7857142857142857,0.0004
499,0.6977637112140656,1.0217126607894897,0.8076923076923077,0.9423076923076923,0.7857142857142857,0.8571428571428571,0.0004
500,0.7848841547966003,1.1993464231491089,0.6730769230769231,0.9615384615384616,0.5714285714285714,0.8571428571428571,0.0004
501,0.596633642911911,0.8856391906738281,0.8076923076923077,0.9615384615384616,0.8571428571428571,0.9285714285714286,0.0004
502,0.6515048742294312,1.2896263599395752,0.8461538461538461,0.9423076923076923,0.7142857142857143,0.8571428571428571,0.0004
503,0.803795337677002,1.0382473468780518,0.6730769230769231,0.9423076923076923,0.7142857142857143,0.7857142857142857,0.0004
504,0.5545988380908966,1.2054667472839355,0.8076923076923077,0.9807692307692307,0.6428571428571429,0.8571428571428571,0.0004
505,0.7788134217262268,1.2231717109680176,0.7115384615384616,0.9615384615384616,0.7142857142857143,0.8571428571428571,0.0004
506,0.8410066068172455,0.9928900003433228,0.6923076923076923,0.9807692307692307,0.7857142857142857,0.9285714285714286,0.0004
507,0.899710476398468,1.02142333984375,0.6923076923076923,0.9615384615384616,0.6428571428571429,0.9285714285714286,0.0004
508,0.5203766077756882,1.2461374998092651,0.7884615384615384,0.9615384615384616,0.6428571428571429,0.7857142857142857,0.0004
509,0.6724327355623245,0.8791974782943726,0.75,0.9423076923076923,0.7142857142857143,0.9285714285714286,0.0004
510,0.640215128660202,1.2701659202575684,0.75,0.9615384615384616,0.5714285714285714,0.8571428571428571,0.0004
511,0.9481610059738159,0.7891266345977783,0.6730769230769231,0.9615384615384616,0.7142857142857143,0.9285714285714286,0.0004
512,1.0393959879875183,1.0467963218688965,0.6538461538461539,0.8846153846153846,0.7142857142857143,0.9285714285714286,0.0004
513,0.7000019252300262,1.320232629776001,0.75,0.9615384615384616,0.6428571428571429,0.8571428571428571,0.0004
514,0.8184303939342499,0.8407139182090759,0.7115384615384616,0.9423076923076923,0.7857142857142857,0.9285714285714286,0.0004
515,0.710713118314743,1.1967267990112305,0.7307692307692307,1.0,0.6428571428571429,0.8571428571428571,0.0004
516,0.5282009243965149,1.1019612550735474,0.8269230769230769,0.9807692307692307,0.7142857142857143,0.8571428571428571,0.0004
517,0.7638655006885529,1.4816765785217285,0.7692307692307693,0.9615384615384616,0.5,0.7857142857142857,0.0004
518,0.7661862671375275,1.359269380569458,0.7692307692307693,0.9423076923076923,0.6428571428571429,0.7857142857142857,0.0004
519,0.5736455023288727,1.3462997674942017,0.8076923076923077,0.9807692307692307,0.5714285714285714,0.7857142857142857,0.0004
520,0.4980261027812958,1.6992745399475098,0.8269230769230769,1.0,0.7142857142857143,0.7857142857142857,0.0004
521,0.7182641327381134,2.0077199935913086,0.7307692307692307,0.9807692307692307,0.6428571428571429,0.7857142857142857,0.0004
522,0.645594447851181,1.6992090940475464,0.7307692307692307,0.9807692307692307,0.5714285714285714,0.7142857142857143,0.0004
523,0.9859266579151154,0.6818082332611084,0.6730769230769231,0.9230769230769231,0.7142857142857143,1.0,0.0004
524,0.7776400148868561,1.61674165725708,0.7692307692307693,0.9615384615384616,0.5714285714285714,0.7857142857142857,0.0004
525,0.7148627042770386,0.6622368693351746,0.7884615384615384,0.9423076923076923,0.6428571428571429,0.9285714285714286,0.0004
526,0.6273338496685028,1.6371538639068604,0.8076923076923077,0.9615384615384616,0.6428571428571429,0.7142857142857143,0.0004
527,0.8209897577762604,1.8068559169769287,0.6153846153846154,0.9423076923076923,0.5,0.7142857142857143,0.0004
528,0.6511403024196625,1.3924732208251953,0.8076923076923077,0.9615384615384616,0.7142857142857143,0.7857142857142857,0.0004
529,0.7374727427959442,0.770082950592041,0.8269230769230769,0.9423076923076923,0.7857142857142857,0.9285714285714286,0.0004
530,0.4835118502378464,1.1556789875030518,0.9038461538461539,1.0,0.7857142857142857,0.8571428571428571,0.0004
531,0.6173243820667267,0.701637864112854,0.75,0.9615384615384616,0.9285714285714286,0.9285714285714286,0.0004
532,0.5543165802955627,1.4773313999176025,0.7884615384615384,0.9807692307692307,0.6428571428571429,0.8571428571428571,0.0004
533,0.7069599330425262,1.1158658266067505,0.7692307692307693,0.9807692307692307,0.7142857142857143,0.9285714285714286,0.0004
534,0.8180952966213226,1.2083078622817993,0.7884615384615384,0.9615384615384616,0.7857142857142857,0.8571428571428571,0.0004
535,0.6886032819747925,0.9296151399612427,0.7307692307692307,0.9807692307692307,0.7142857142857143,0.9285714285714286,0.0004
536,0.5836694836616516,0.9659768342971802,0.8653846153846154,0.9615384615384616,0.7142857142857143,0.7857142857142857,0.0004
537,0.9358788132667542,1.277755856513977,0.75,0.9423076923076923,0.5714285714285714,0.8571428571428571,0.0004
538,0.6465775370597839,1.1352691650390625,0.8653846153846154,0.9807692307692307,0.7142857142857143,0.7857142857142857,0.0004
539,0.8472478985786438,1.242665410041809,0.6346153846153846,0.9423076923076923,0.5714285714285714,0.8571428571428571,0.0004
540,0.6523144245147705,1.5336450338363647,0.75,1.0,0.5714285714285714,0.8571428571428571,0.0004
541,0.6763536036014557,1.259183645248413,0.7692307692307693,0.9615384615384616,0.6428571428571429,0.7857142857142857,0.0004
542,0.6109112948179245,1.9296979904174805,0.7692307692307693,0.9615384615384616,0.6428571428571429,0.7142857142857143,0.0004
543,1.1647700071334839,1.274019479751587,0.6538461538461539,0.8653846153846154,0.7142857142857143,0.8571428571428571,0.0004
544,0.595751017332077,1.1884808540344238,0.7307692307692307,1.0,0.6428571428571429,0.9285714285714286,0.0004
545,0.6649491190910339,1.345056414604187,0.7884615384615384,0.9807692307692307,0.7142857142857143,0.9285714285714286,0.0004
546,0.9463557600975037,2.143138885498047,0.6730769230769231,0.8846153846153846,0.5714285714285714,0.7857142857142857,0.0004
547,0.5221624225378036,0.9909416437149048,0.75,1.0,0.7857142857142857,0.8571428571428571,0.0004
548,0.5319280922412872,1.2501220703125,0.7884615384615384,0.9615384615384616,0.6428571428571429,0.7857142857142857,0.0004
549,1.0424631834030151,1.102365493774414,0.5961538461538461,0.8846153846153846,0.7142857142857143,0.9285714285714286,0.0004
550,0.48622070252895355,1.7703702449798584,0.8461538461538461,0.9615384615384616,0.5714285714285714,0.7142857142857143,0.0004
551,0.7842565476894379,1.5755836963653564,0.75,0.9615384615384616,0.6428571428571429,0.7857142857142857,0.0004
552,0.7723769247531891,1.7891021966934204,0.7307692307692307,0.9615384615384616,0.35714285714285715,0.7142857142857143,0.0004
553,0.6665496826171875,1.2305045127868652,0.6730769230769231,0.9807692307692307,0.7857142857142857,0.8571428571428571,0.0004
554,0.8086109459400177,1.4825711250305176,0.7692307692307693,0.9615384615384616,0.7142857142857143,0.8571428571428571,0.0004
555,0.7127514183521271,0.8736530542373657,0.75,0.9615384615384616,0.7857142857142857,0.9285714285714286,0.0004
556,0.6072619259357452,1.2896342277526855,0.7307692307692307,0.9807692307692307,0.7142857142857143,0.8571428571428571,0.0004
557,0.9998506903648376,0.7600354552268982,0.6346153846153846,0.9230769230769231,0.8571428571428571,0.9285714285714286,0.0004
558,0.770224004983902,1.2714945077896118,0.7115384615384616,0.9230769230769231,0.7142857142857143,0.8571428571428571,0.0004
559,0.5846488177776337,0.7793717384338379,0.75,0.9615384615384616,0.8571428571428571,0.9285714285714286,0.0004
560,0.7991606593132019,0.5416305661201477,0.7115384615384616,0.9615384615384616,0.7857142857142857,0.9285714285714286,0.0004
561,0.8894637823104858,1.134597897529602,0.7115384615384616,0.9615384615384616,0.8571428571428571,0.9285714285714286,0.0004
562,0.8051339089870453,1.125880479812622,0.6923076923076923,0.9615384615384616,0.7857142857142857,0.8571428571428571,0.0004
563,0.6379127502441406,0.7733625769615173,0.7884615384615384,0.9615384615384616,0.7857142857142857,0.9285714285714286,0.0004
564,0.597865492105484,0.9823665618896484,0.75,1.0,0.8571428571428571,0.9285714285714286,0.0004
565,0.6556557416915894,1.2224583625793457,0.7692307692307693,0.9807692307692307,0.7142857142857143,0.9285714285714286,0.0004
566,0.6447704434394836,0.7442326545715332,0.7692307692307693,0.9423076923076923,0.8571428571428571,0.9285714285714286,0.0004
567,0.7215377390384674,1.021105408668518,0.6923076923076923,0.9615384615384616,0.6428571428571429,0.8571428571428571,0.0004
568,0.6862365305423737,1.5816643238067627,0.8461538461538461,0.9807692307692307,0.42857142857142855,0.7142857142857143,0.0004
569,0.5836838185787201,1.1442079544067383,0.7884615384615384,0.9615384615384616,0.7142857142857143,0.8571428571428571,0.0004
570,0.7493942081928253,1.1103700399398804,0.7692307692307693,0.9615384615384616,0.7857142857142857,0.8571428571428571,0.0004
571,0.8390791714191437,1.6482361555099487,0.6153846153846154,0.9615384615384616,0.5714285714285714,0.7857142857142857,0.0004
572,0.7230372726917267,1.31532621383667,0.7307692307692307,0.9615384615384616,0.7142857142857143,0.7857142857142857,0.0004
573,0.7716739773750305,0.988793134689331,0.7692307692307693,0.9615384615384616,0.7142857142857143,0.9285714285714286,0.0004
574,0.6817038357257843,1.3597302436828613,0.7307692307692307,0.9807692307692307,0.7142857142857143,0.8571428571428571,0.0004
575,0.7130167782306671,1.090101957321167,0.7884615384615384,0.9807692307692307,0.7142857142857143,0.8571428571428571,0.0004
576,0.7616917490959167,1.5082907676696777,0.7884615384615384,0.9423076923076923,0.5714285714285714,0.7857142857142857,0.0004
577,0.7774963974952698,1.5548455715179443,0.6730769230769231,0.9807692307692307,0.5714285714285714,0.8571428571428571,0.0004
578,0.8077830076217651,1.1884769201278687,0.6538461538461539,0.9423076923076923,0.7857142857142857,0.8571428571428571,0.0004
579,0.7338069677352905,1.5151244401931763,0.7307692307692307,0.9615384615384616,0.42857142857142855,0.8571428571428571,0.0004
580,0.77799391746521,1.6640841960906982,0.7115384615384616,0.9423076923076923,0.6428571428571429,0.7857142857142857,0.0004
581,0.4272347241640091,1.0922263860702515,0.8653846153846154,1.0,0.7857142857142857,0.8571428571428571,0.0004
582,0.9326591491699219,1.42643141746521,0.6923076923076923,0.9423076923076923,0.6428571428571429,0.8571428571428571,0.0004
583,0.742987871170044,1.3919622898101807,0.6538461538461539,0.9423076923076923,0.7857142857142857,0.7857142857142857,0.0004
584,0.7010113894939423,1.432457447052002,0.7115384615384616,0.9230769230769231,0.5,0.8571428571428571,0.0004
585,0.800358772277832,1.4053095579147339,0.7692307692307693,0.9615384615384616,0.8571428571428571,0.8571428571428571,0.0004
586,0.6967900097370148,1.0242979526519775,0.7884615384615384,0.9615384615384616,0.6428571428571429,0.9285714285714286,0.0004
587,0.8013887703418732,1.3601242303848267,0.5769230769230769,0.9807692307692307,0.7142857142857143,0.7857142857142857,0.0004
588,0.6833398044109344,1.093731164932251,0.7115384615384616,0.9615384615384616,0.7142857142857143,0.7857142857142857,0.0004
589,0.883941039443016,0.7486203908920288,0.7884615384615384,0.9423076923076923,0.9285714285714286,0.9285714285714286,0.0004
590,0.3920881599187851,1.1129417419433594,0.8461538461538461,1.0,0.7142857142857143,0.8571428571428571,0.0004
591,0.5710377544164658,1.1525415182113647,0.6923076923076923,1.0,0.7857142857142857,0.9285714285714286,0.0004
592,0.8033552169799805,1.3569979667663574,0.75,0.9615384615384616,0.5,0.8571428571428571,0.0004
593,0.820163756608963,1.4991986751556396,0.7307692307692307,0.9230769230769231,0.7142857142857143,0.9285714285714286,0.0004
594,0.8107157349586487,1.0639245510101318,0.7307692307692307,0.9423076923076923,0.8571428571428571,0.8571428571428571,0.0004
595,0.8590226471424103,1.219635248184204,0.7115384615384616,0.8846153846153846,0.6428571428571429,0.9285714285714286,0.0004
596,0.7105916440486908,0.9999662637710571,0.7884615384615384,0.9423076923076923,0.7857142857142857,0.9285714285714286,0.0004
597,0.6520520895719528,0.7689206600189209,0.7692307692307693,0.9423076923076923,0.7857142857142857,0.8571428571428571,0.0004
598,0.8582563400268555,0.9422760605812073,0.7115384615384616,0.9423076923076923,0.7857142857142857,0.8571428571428571,0.0004
599,0.5498334765434265,0.7498217821121216,0.8461538461538461,0.9807692307692307,0.9285714285714286,0.9285714285714286,0.0004
600,0.5515961050987244,0.9816672801971436,0.7884615384615384,0.9423076923076923,0.6428571428571429,0.9285714285714286,0.0004
601,0.7869209349155426,0.9380840063095093,0.6923076923076923,0.9615384615384616,0.7142857142857143,0.8571428571428571,0.0004
602,0.7300074994564056,1.534698486328125,0.8076923076923077,0.9230769230769231,0.5714285714285714,0.7142857142857143,0.0004
603,0.5696389079093933,0.843517005443573,0.7884615384615384,0.9807692307692307,0.8571428571428571,0.8571428571428571,0.0004
604,0.7455921173095703,0.8510234355926514,0.7115384615384616,0.9423076923076923,0.8571428571428571,0.9285714285714286,0.0004
605,0.7452252805233002,0.9860198497772217,0.7307692307692307,0.9615384615384616,0.5714285714285714,0.9285714285714286,0.0004
606,1.0464932918548584,1.3491933345794678,0.6153846153846154,0.9038461538461539,0.7142857142857143,0.8571428571428571,0.0004
607,0.7713058888912201,1.5979470014572144,0.7692307692307693,0.9615384615384616,0.6428571428571429,0.7857142857142857,0.0004
608,0.6159135401248932,1.2037009000778198,0.7884615384615384,0.9807692307692307,0.7142857142857143,0.9285714285714286,0.0004
609,0.4977598637342453,0.8450381755828857,0.9038461538461539,0.9615384615384616,0.7142857142857143,0.9285714285714286,0.0004
610,0.5206378102302551,1.3580961227416992,0.8076923076923077,1.0,0.6428571428571429,0.9285714285714286,0.0004
611,0.5791777223348618,1.653078317642212,0.7692307692307693,1.0,0.5714285714285714,0.8571428571428571,0.0004
612,0.6489425599575043,1.1434897184371948,0.75,0.9615384615384616,0.5714285714285714,0.9285714285714286,0.0004
613,0.8031045198440552,1.1081067323684692,0.7307692307692307,0.9615384615384616,0.7142857142857143,0.8571428571428571,0.0004
614,0.6305093169212341,0.7688809037208557,0.75,0.9807692307692307,0.8571428571428571,0.9285714285714286,0.0004
615,0.7467055916786194,1.7393436431884766,0.8269230769230769,0.9230769230769231,0.6428571428571429,0.8571428571428571,0.0004
616,0.6369464844465256,1.1914812326431274,0.75,0.9615384615384616,0.6428571428571429,0.8571428571428571,0.0004
617,0.6931173503398895,1.5699654817581177,0.7307692307692307,0.9615384615384616,0.6428571428571429,0.7857142857142857,0.0004
618,0.6074864566326141,1.6249172687530518,0.75,1.0,0.5,0.8571428571428571,0.0004
619,0.823725014925003,1.1322236061096191,0.6730769230769231,0.9615384615384616,0.5714285714285714,0.8571428571428571,0.0004
620,0.7048054933547974,1.4595201015472412,0.75,0.9615384615384616,0.5714285714285714,0.8571428571428571,0.0004
621,0.5316391289234161,1.286423921585083,0.8076923076923077,1.0,0.5714285714285714,0.8571428571428571,0.0004
622,0.775772362947464,1.488377332687378,0.7884615384615384,0.9230769230769231,0.6428571428571429,0.8571428571428571,0.0004
623,0.6210119128227234,1.1738404035568237,0.7692307692307693,0.9807692307692307,0.5714285714285714,0.9285714285714286,0.0004
624,0.8721948266029358,1.1079084873199463,0.7307692307692307,0.9230769230769231,0.7857142857142857,0.9285714285714286,0.0004
625,0.6602042019367218,1.5838172435760498,0.8076923076923077,0.9807692307692307,0.5,0.7857142857142857,0.0004
626,0.5603040605783463,1.1016764640808105,0.7884615384615384,0.9615384615384616,0.8571428571428571,0.8571428571428571,0.0004
627,0.6988593935966492,0.7385337948799133,0.7884615384615384,0.9423076923076923,0.7142857142857143,0.9285714285714286,0.0004
628,0.7637499570846558,0.7061342000961304,0.7884615384615384,0.9423076923076923,0.8571428571428571,0.9285714285714286,0.0004
629,0.7288047075271606,0.9625977873802185,0.7692307692307693,0.9615384615384616,0.6428571428571429,0.9285714285714286,0.0004
630,0.5855368822813034,1.3455419540405273,0.7307692307692307,0.9615384615384616,0.6428571428571429,0.7857142857142857,0.0004
631,1.1066861152648926,0.9281634092330933,0.6538461538461539,0.9038461538461539,0.7142857142857143,0.9285714285714286,0.0004
632,0.5528813302516937,0.9301964640617371,0.7692307692307693,1.0,0.7142857142857143,0.8571428571428571,0.0004
633,0.5503343045711517,1.5229874849319458,0.7884615384615384,0.9615384615384616,0.5714285714285714,0.9285714285714286,0.0004
634,0.48822543025016785,0.980398416519165,0.7884615384615384,1.0,0.6428571428571429,0.8571428571428571,0.0004
635,0.7191821336746216,2.0288119316101074,0.7692307692307693,0.9807692307692307,0.5,0.7857142857142857,0.0004
636,0.492106556892395,0.8541430234909058,0.9038461538461539,0.9807692307692307,0.7857142857142857,0.8571428571428571,0.0004
637,0.8915858864784241,1.3603980541229248,0.75,0.9230769230769231,0.7857142857142857,0.7857142857142857,0.0004
638,0.522763803601265,1.3806345462799072,0.7884615384615384,1.0,0.6428571428571429,0.8571428571428571,0.0004
639,0.6936543583869934,0.9530864953994751,0.7307692307692307,1.0,0.7857142857142857,0.8571428571428571,0.0004
640,0.5306009948253632,1.9056053161621094,0.8076923076923077,0.9615384615384616,0.5714285714285714,0.8571428571428571,0.0004
641,0.4882871210575104,1.1740329265594482,0.8269230769230769,0.9807692307692307,0.6428571428571429,0.8571428571428571,0.0004
642,0.6978473961353302,0.853652834892273,0.7307692307692307,0.9807692307692307,0.7857142857142857,0.9285714285714286,0.0004
643,0.6986485123634338,1.104912519454956,0.7692307692307693,0.9615384615384616,0.7857142857142857,0.8571428571428571,0.0004
644,0.6402299106121063,1.130627989768982,0.7692307692307693,0.9807692307692307,0.7142857142857143,0.9285714285714286,0.0004
645,0.8408554196357727,1.6834219694137573,0.6923076923076923,0.9615384615384616,0.6428571428571429,0.7857142857142857,0.0004
646,0.9974346160888672,1.2985652685165405,0.6538461538461539,0.9615384615384616,0.7857142857142857,0.8571428571428571,0.0004
647,0.8293761610984802,1.245589017868042,0.6923076923076923,0.9615384615384616,0.6428571428571429,0.8571428571428571,0.0004
648,0.8892524242401123,1.51789391040802,0.6538461538461539,0.9230769230769231,0.6428571428571429,0.8571428571428571,0.0004
649,0.570676863193512,1.522992491722107,0.8269230769230769,0.9615384615384616,0.5714285714285714,0.8571428571428571,0.0004
650,0.7463000118732452,0.8166775107383728,0.7307692307692307,0.9423076923076923,0.8571428571428571,0.8571428571428571,0.0004
651,0.8466951847076416,1.046966552734375,0.7115384615384616,0.9423076923076923,0.7142857142857143,0.8571428571428571,0.0004
652,0.6849526166915894,0.8453985452651978,0.8076923076923077,0.9423076923076923,0.7142857142857143,0.9285714285714286,0.0004
653,0.7576464712619781,1.0004081726074219,0.7692307692307693,0.9423076923076923,0.7857142857142857,0.8571428571428571,0.0004
654,1.0622923374176025,0.889714241027832,0.6923076923076923,0.9230769230769231,0.8571428571428571,0.8571428571428571,0.0004
655,0.700293779373169,1.2967827320098877,0.8076923076923077,0.9615384615384616,0.6428571428571429,0.7857142857142857,0.0004
656,0.7986015379428864,0.9981379508972168,0.6923076923076923,0.9615384615384616,0.7142857142857143,0.8571428571428571,0.0004
657,0.39516888558864594,1.0556303262710571,0.8076923076923077,1.0,0.6428571428571429,0.9285714285714286,0.0004
658,0.6832903623580933,0.9883044958114624,0.8461538461538461,0.9423076923076923,0.7142857142857143,0.8571428571428571,0.0004
659,0.770823746919632,1.3151776790618896,0.7884615384615384,0.9615384615384616,0.6428571428571429,0.8571428571428571,0.0004
660,0.8521216213703156,1.2500808238983154,0.6153846153846154,0.9615384615384616,0.5714285714285714,0.8571428571428571,0.0004
661,0.7448767125606537,0.7803766131401062,0.75,0.9423076923076923,0.8571428571428571,0.9285714285714286,0.0004
662,0.6886275708675385,0.8773307800292969,0.6730769230769231,1.0,0.7142857142857143,0.9285714285714286,0.0004
663,0.6582058370113373,1.5818471908569336,0.75,0.9615384615384616,0.5,0.7857142857142857,0.0004
664,0.9984960854053497,1.1498485803604126,0.6538461538461539,0.9423076923076923,0.5714285714285714,0.9285714285714286,0.0004
665,0.8705812990665436,1.2324668169021606,0.7115384615384616,0.9423076923076923,0.6428571428571429,0.8571428571428571,0.0004
666,0.5992530286312103,1.1612404584884644,0.7884615384615384,0.9615384615384616,0.7142857142857143,0.8571428571428571,0.0004
667,0.6229196786880493,1.1464506387710571,0.8461538461538461,0.9615384615384616,0.7142857142857143,0.8571428571428571,0.0004
668,0.8294813930988312,1.4004411697387695,0.6923076923076923,0.9423076923076923,0.6428571428571429,0.8571428571428571,0.0004
669,0.7149331867694855,1.2663242816925049,0.7692307692307693,0.9615384615384616,0.6428571428571429,0.8571428571428571,0.0004
670,0.5902298986911774,1.2362205982208252,0.7307692307692307,1.0,0.7857142857142857,0.7857142857142857,0.0004
671,0.5794283747673035,1.29714035987854,0.8076923076923077,0.9615384615384616,0.7142857142857143,0.7857142857142857,0.0004
672,0.6568576395511627,1.2600913047790527,0.8269230769230769,0.9615384615384616,0.6428571428571429,0.7857142857142857,0.0004
673,0.6944780647754669,1.2454359531402588,0.6923076923076923,0.9615384615384616,0.7142857142857143,0.8571428571428571,0.0004
674,0.7067218720912933,1.0008065700531006,0.7692307692307693,0.9615384615384616,0.7857142857142857,0.8571428571428571,0.0004
675,0.6860303580760956,1.5262598991394043,0.7307692307692307,0.9423076923076923,0.5714285714285714,0.9285714285714286,0.0004
676,0.6795167624950409,0.6538903713226318,0.7115384615384616,0.9807692307692307,0.9285714285714286,0.9285714285714286,0.0004
677,0.7179851830005646,1.0431605577468872,0.75,0.9615384615384616,0.6428571428571429,0.9285714285714286,0.0004
678,0.6359900236129761,0.7763050198554993,0.7307692307692307,1.0,0.8571428571428571,0.8571428571428571,0.0004
679,0.6714096367359161,0.9789199829101562,0.7307692307692307,0.9615384615384616,0.7142857142857143,0.9285714285714286,0.0004
680,0.7206671237945557,1.1362885236740112,0.8076923076923077,0.9615384615384616,0.7142857142857143,0.8571428571428571,0.0004
681,0.7646756768226624,0.8155756592750549,0.6923076923076923,0.9423076923076923,0.8571428571428571,0.9285714285714286,0.0004
682,0.6682689189910889,1.18137526512146,0.7307692307692307,0.9615384615384616,0.7857142857142857,0.8571428571428571,0.0004
683,0.6273719370365143,0.9103552103042603,0.7884615384615384,0.9807692307692307,0.7142857142857143,0.9285714285714286,0.0004
684,0.8615707457065582,1.1075243949890137,0.6730769230769231,0.9423076923076923,0.5714285714285714,0.9285714285714286,0.0004
685,0.7118463814258575,0.9820220470428467,0.8076923076923077,0.9615384615384616,0.7142857142857143,0.9285714285714286,0.0004
686,0.772606760263443,1.1136990785598755,0.7307692307692307,0.9615384615384616,0.6428571428571429,0.8571428571428571,0.0004
687,0.5107267946004868,1.087575912475586,0.7884615384615384,0.9615384615384616,0.5714285714285714,0.9285714285714286,0.0004
688,0.7055383920669556,1.2687546014785767,0.8076923076923077,0.9615384615384616,0.7857142857142857,0.8571428571428571,0.0004
689,0.7573701441287994,1.4276041984558105,0.7115384615384616,0.9807692307692307,0.7142857142857143,0.8571428571428571,0.0004
690,0.8047780245542526,0.7036599516868591,0.7307692307692307,0.9423076923076923,0.7857142857142857,0.9285714285714286,0.0004
691,0.8542475998401642,0.6761246919631958,0.6923076923076923,0.9423076923076923,0.7857142857142857,0.9285714285714286,0.0004
692,0.8317217528820038,1.4158265590667725,0.7692307692307693,0.9230769230769231,0.6428571428571429,0.8571428571428571,0.0004
693,0.6554442942142487,1.3189377784729004,0.7115384615384616,1.0,0.6428571428571429,0.8571428571428571,0.0004
694,0.547426164150238,1.4637129306793213,0.8269230769230769,0.9615384615384616,0.6428571428571429,0.8571428571428571,0.0004
695,0.5757509469985962,1.4748601913452148,0.7884615384615384,0.9807692307692307,0.7857142857142857,0.7857142857142857,0.0004
696,0.5333196669816971,1.0624256134033203,0.8461538461538461,0.9615384615384616,0.7142857142857143,0.9285714285714286,0.0004
697,0.6979985535144806,0.9869779348373413,0.7692307692307693,0.9423076923076923,0.7142857142857143,0.7857142857142857,0.0004
698,0.5159483551979065,1.1710140705108643,0.8076923076923077,0.9615384615384616,0.7142857142857143,0.9285714285714286,0.0004
699,0.6528369188308716,0.9510573148727417,0.8076923076923077,0.9615384615384616,0.7857142857142857,0.9285714285714286,0.0004
700,0.6643092632293701,0.9285069704055786,0.7692307692307693,0.9615384615384616,0.8571428571428571,0.9285714285714286,0.0004
701,0.5804648399353027,0.9666839838027954,0.8653846153846154,0.9615384615384616,0.8571428571428571,0.8571428571428571,0.0004
702,0.7450495958328247,1.6617555618286133,0.75,0.9615384615384616,0.5,0.7857142857142857,0.0004
703,0.8080126941204071,1.252716064453125,0.75,0.9423076923076923,0.7857142857142857,0.8571428571428571,0.0004
704,0.7069503962993622,0.8180116415023804,0.7884615384615384,0.9230769230769231,0.8571428571428571,0.8571428571428571,0.0004
705,0.8380092680454254,1.6349549293518066,0.7692307692307693,0.9230769230769231,0.5714285714285714,0.7857142857142857,0.0004
706,0.6780794560909271,1.8639211654663086,0.7115384615384616,0.9615384615384616,0.5714285714285714,0.7857142857142857,0.0004
707,0.9887540936470032,0.7282789349555969,0.7115384615384616,0.9038461538461539,0.8571428571428571,0.9285714285714286,0.0004
708,0.5986909866333008,1.1942648887634277,0.8076923076923077,0.9615384615384616,0.7857142857142857,0.8571428571428571,0.0004
709,0.8062545955181122,1.0459702014923096,0.6923076923076923,0.9423076923076923,0.7857142857142857,0.7857142857142857,0.0004
710,0.6732479631900787,1.746819019317627,0.7692307692307693,0.9615384615384616,0.5714285714285714,0.7857142857142857,0.0004
711,0.8263092041015625,1.5504043102264404,0.7115384615384616,0.9423076923076923,0.7857142857142857,0.8571428571428571,0.0004
712,0.7951067090034485,1.7976778745651245,0.7307692307692307,0.9230769230769231,0.5714285714285714,0.8571428571428571,0.0004
713,0.6789871454238892,1.574253797531128,0.6923076923076923,0.9615384615384616,0.5,0.7857142857142857,0.0004
714,0.5512805283069611,0.7888751029968262,0.8653846153846154,0.9423076923076923,0.8571428571428571,0.9285714285714286,0.0004
715,0.881829023361206,1.2116868495941162,0.7115384615384616,0.9423076923076923,0.7857142857142857,0.8571428571428571,0.0004
716,0.7491672039031982,1.13057541847229,0.7884615384615384,0.9038461538461539,0.7857142857142857,0.8571428571428571,0.0004
717,0.6665640473365784,1.2793493270874023,0.7884615384615384,0.9615384615384616,0.7857142857142857,0.9285714285714286,0.0004
718,1.0492263436317444,1.3346059322357178,0.6730769230769231,0.8846153846153846,0.7142857142857143,0.8571428571428571,0.0004
719,0.6919232904911041,0.6395158171653748,0.75,0.9615384615384616,0.7857142857142857,0.9285714285714286,0.0004
720,0.5666589438915253,1.2655303478240967,0.8076923076923077,0.9615384615384616,0.6428571428571429,0.8571428571428571,0.0004
721,0.5762827545404434,1.1771284341812134,0.8269230769230769,0.9807692307692307,0.6428571428571429,0.8571428571428571,0.0004
722,0.5532347559928894,1.6235325336456299,0.8076923076923077,0.9807692307692307,0.5714285714285714,0.7857142857142857,0.0004
723,0.8694326281547546,1.6829127073287964,0.6923076923076923,0.9423076923076923,0.5,0.8571428571428571,0.0004
724,0.6913868486881256,1.212475061416626,0.8269230769230769,0.8846153846153846,0.7857142857142857,0.7857142857142857,0.0004
725,0.5159986317157745,0.5700047016143799,0.8076923076923077,0.9807692307692307,0.7857142857142857,1.0,0.0004
726,0.6269893050193787,1.1290481090545654,0.8076923076923077,0.9807692307692307,0.6428571428571429,0.8571428571428571,0.0004
727,0.5842922031879425,1.00965416431427,0.7307692307692307,1.0,0.7142857142857143,0.8571428571428571,0.0004
728,0.6668044924736023,0.923835039138794,0.7115384615384616,0.9807692307692307,0.7857142857142857,0.8571428571428571,0.0004
729,0.7541467547416687,1.031629204750061,0.75,0.9038461538461539,0.7142857142857143,0.9285714285714286,0.0004
730,0.5624475181102753,1.5594589710235596,0.8461538461538461,0.9807692307692307,0.7142857142857143,0.7857142857142857,0.0004
731,0.7295620143413544,1.0437649488449097,0.7307692307692307,0.9615384615384616,0.7857142857142857,0.8571428571428571,0.0004
732,0.3607291877269745,1.1393498182296753,0.8653846153846154,0.9807692307692307,0.7142857142857143,0.8571428571428571,0.0004
733,0.6690143048763275,1.2189373970031738,0.75,0.9230769230769231,0.6428571428571429,0.9285714285714286,0.0004
734,1.0296800136566162,1.5129698514938354,0.6538461538461539,0.9038461538461539,0.5714285714285714,0.8571428571428571,0.0004
735,0.8377480506896973,1.6282923221588135,0.7884615384615384,0.9230769230769231,0.5714285714285714,0.7857142857142857,0.0004
736,1.2377175688743591,1.5294722318649292,0.5961538461538461,0.8461538461538461,0.7857142857142857,0.7857142857142857,0.0004
737,0.5318584591150284,1.7075597047805786,0.8461538461538461,0.9423076923076923,0.6428571428571429,0.8571428571428571,0.0004
738,0.5680040121078491,1.384140968322754,0.8269230769230769,0.9423076923076923,0.7142857142857143,0.8571428571428571,0.0004
739,0.7268083095550537,1.181043028831482,0.7692307692307693,0.9423076923076923,0.6428571428571429,0.8571428571428571,0.0004
740,0.7786358296871185,1.445080041885376,0.7307692307692307,0.9230769230769231,0.7142857142857143,0.7857142857142857,0.0004
741,0.7922044098377228,0.9564037322998047,0.7307692307692307,0.9423076923076923,0.8571428571428571,0.8571428571428571,0.0004
742,0.7312422096729279,0.8948960304260254,0.7307692307692307,0.9615384615384616,0.7857142857142857,0.9285714285714286,0.0004
743,0.838678389787674,1.1827170848846436,0.7307692307692307,0.9615384615384616,0.5714285714285714,0.9285714285714286,0.0004
744,0.8148954510688782,0.6905317306518555,0.6923076923076923,0.9615384615384616,1.0,0.8571428571428571,0.0004
745,0.544534295797348,0.885724663734436,0.7692307692307693,0.9807692307692307,0.8571428571428571,0.7857142857142857,0.0004
746,0.7196341753005981,1.4016090631484985,0.6730769230769231,0.9615384615384616,0.7857142857142857,0.7857142857142857,0.0004
747,0.5856073498725891,0.8549933433532715,0.7884615384615384,0.9807692307692307,0.8571428571428571,0.9285714285714286,0.0004
748,0.6406396925449371,1.2638447284698486,0.7884615384615384,0.9807692307692307,0.7142857142857143,0.9285714285714286,0.0004
749,0.6673852205276489,0.977032482624054,0.75,0.9615384615384616,0.7857142857142857,0.9285714285714286,0.0004
750,0.7097665965557098,0.8750143051147461,0.75,0.9423076923076923,0.7857142857142857,0.8571428571428571,0.0004
751,0.609480232000351,0.9227631092071533,0.7884615384615384,0.9423076923076923,0.9285714285714286,0.9285714285714286,0.0004
752,0.7503779530525208,1.0538030862808228,0.6538461538461539,0.9615384615384616,0.6428571428571429,0.8571428571428571,0.0004
753,0.7555939853191376,1.1235735416412354,0.7884615384615384,0.9230769230769231,0.6428571428571429,0.8571428571428571,0.0004
754,0.6585134267807007,1.3282779455184937,0.75,0.9615384615384616,0.7142857142857143,0.8571428571428571,0.0004
755,0.7171046435832977,1.5154943466186523,0.8076923076923077,0.9615384615384616,0.6428571428571429,0.8571428571428571,0.0004
756,0.7594634294509888,1.3135738372802734,0.6923076923076923,1.0,0.5,0.8571428571428571,0.0004
757,0.7828225791454315,1.3658050298690796,0.7115384615384616,0.9615384615384616,0.7142857142857143,0.8571428571428571,0.0004
758,0.6447439789772034,1.0559806823730469,0.7307692307692307,0.9615384615384616,0.7142857142857143,0.8571428571428571,0.0004
759,0.43487200140953064,1.4270795583724976,0.8269230769230769,1.0,0.5714285714285714,0.8571428571428571,0.0004
760,0.8158104121685028,1.0365097522735596,0.6923076923076923,0.9807692307692307,0.7857142857142857,0.9285714285714286,0.0004
761,0.608938068151474,2.151784896850586,0.7884615384615384,0.9615384615384616,0.5,0.7142857142857143,0.0004
762,0.6567263305187225,1.2408738136291504,0.7884615384615384,0.9807692307692307,0.7142857142857143,0.8571428571428571,0.0004
763,0.638190895318985,0.5041917562484741,0.75,0.9615384615384616,1.0,0.9285714285714286,0.0004
764,0.6992189586162567,0.9743705987930298,0.7307692307692307,0.9807692307692307,0.7857142857142857,0.9285714285714286,0.0004
765,0.5862289518117905,1.4744377136230469,0.75,0.9615384615384616,0.7142857142857143,0.7857142857142857,0.0004
766,0.4608412981033325,1.072364330291748,0.8461538461538461,1.0,0.7142857142857143,0.7857142857142857,0.0004
767,0.9980831146240234,1.2763326168060303,0.6153846153846154,0.9230769230769231,0.8571428571428571,0.8571428571428571,0.0004
768,0.8983404338359833,1.3923026323318481,0.6538461538461539,0.9038461538461539,0.5714285714285714,0.9285714285714286,0.0004
769,0.43724021315574646,1.298309326171875,0.7884615384615384,1.0,0.5714285714285714,0.8571428571428571,0.0004
770,0.6628737449645996,0.4917919635772705,0.7884615384615384,0.9423076923076923,0.8571428571428571,0.9285714285714286,0.0004
771,0.6326311230659485,1.169036626815796,0.7692307692307693,0.9807692307692307,0.7142857142857143,0.8571428571428571,0.0004
772,0.8616597950458527,0.7151339054107666,0.7307692307692307,0.9423076923076923,0.9285714285714286,0.8571428571428571,0.0004
773,0.5260987728834152,1.6031638383865356,0.8076923076923077,0.9615384615384616,0.7142857142857143,0.8571428571428571,0.0004
774,0.5835810601711273,1.3018897771835327,0.8269230769230769,0.9230769230769231,0.7142857142857143,0.9285714285714286,0.0004
775,0.7913099527359009,0.911652147769928,0.7307692307692307,0.9230769230769231,0.9285714285714286,0.9285714285714286,0.0004
776,0.8957434296607971,2.075420379638672,0.7115384615384616,0.9807692307692307,0.42857142857142855,0.8571428571428571,0.0004
777,0.6207501590251923,0.8078242540359497,0.8076923076923077,0.9615384615384616,0.7857142857142857,0.9285714285714286,0.0004
778,0.5775499939918518,1.5497323274612427,0.7884615384615384,0.9807692307692307,0.6428571428571429,0.8571428571428571,0.0004
779,0.6053814738988876,0.9190754890441895,0.7884615384615384,0.9615384615384616,0.8571428571428571,0.7857142857142857,0.0004
780,0.5192787200212479,1.0061132907867432,0.8076923076923077,0.9807692307692307,0.7857142857142857,0.8571428571428571,0.0004
781,0.3847031742334366,1.0743521451950073,0.8653846153846154,1.0,0.7857142857142857,0.8571428571428571,0.0004
782,0.686922013759613,1.4525792598724365,0.8076923076923077,0.9423076923076923,0.6428571428571429,0.7857142857142857,0.0004
783,0.7208007574081421,1.2245062589645386,0.6923076923076923,0.9807692307692307,0.6428571428571429,0.9285714285714286,0.0004
784,0.802177220582962,1.387807846069336,0.7115384615384616,0.9615384615384616,0.7857142857142857,0.7857142857142857,0.0004
785,0.5978467762470245,0.9665067195892334,0.7884615384615384,0.9423076923076923,0.7142857142857143,0.9285714285714286,0.0004
786,0.6117095351219177,0.6591439843177795,0.8076923076923077,0.9615384615384616,0.8571428571428571,0.8571428571428571,0.0004
787,0.5087683498859406,1.360637903213501,0.8269230769230769,0.9615384615384616,0.7142857142857143,0.8571428571428571,0.0004
788,0.6810213029384613,1.418375015258789,0.7115384615384616,0.9615384615384616,0.5714285714285714,0.8571428571428571,0.0004
789,0.6907947361469269,0.4018815755844116,0.7115384615384616,0.9423076923076923,0.7857142857142857,1.0,0.0004
790,0.7823671996593475,1.340576410293579,0.6538461538461539,0.9807692307692307,0.5714285714285714,0.7857142857142857,0.0004
791,0.595075398683548,1.2124738693237305,0.7692307692307693,0.9423076923076923,0.6428571428571429,0.8571428571428571,0.0004
792,0.5850943922996521,1.1288485527038574,0.7307692307692307,0.9807692307692307,0.6428571428571429,0.9285714285714286,0.0004
793,0.6654093563556671,1.3876264095306396,0.8076923076923077,0.9423076923076923,0.5714285714285714,0.8571428571428571,0.0004
794,0.4414757043123245,1.445554256439209,0.9230769230769231,0.9807692307692307,0.6428571428571429,0.8571428571428571,0.0004
795,0.7113812267780304,1.0687761306762695,0.8076923076923077,0.9615384615384616,0.6428571428571429,0.8571428571428571,0.0004
796,0.7446961104869843,1.3178884983062744,0.7115384615384616,0.9423076923076923,0.6428571428571429,0.7857142857142857,0.0004
797,0.6286785900592804,0.6635540723800659,0.8076923076923077,0.9423076923076923,0.7857142857142857,0.9285714285714286,0.0004
798,0.6137702763080597,1.0711517333984375,0.7692307692307693,0.9807692307692307,0.8571428571428571,0.7857142857142857,0.0004
799,0.5465580821037292,1.2354087829589844,0.7884615384615384,0.9807692307692307,0.7857142857142857,0.8571428571428571,0.0004
800,0.676554262638092,1.450631856918335,0.8653846153846154,0.9423076923076923,0.5714285714285714,0.8571428571428571,0.0004
801,0.759139746427536,1.8624167442321777,0.75,0.9423076923076923,0.6428571428571429,0.8571428571428571,0.0004
802,0.6246752142906189,1.8337180614471436,0.75,0.9807692307692307,0.5,0.8571428571428571,0.0004
803,0.603472113609314,1.0057181119918823,0.7884615384615384,0.9807692307692307,0.7857142857142857,0.9285714285714286,0.0004
804,0.886203795671463,1.0641249418258667,0.6730769230769231,0.9038461538461539,0.7857142857142857,0.9285714285714286,0.0004
805,0.5903312265872955,1.3497211933135986,0.8076923076923077,0.9807692307692307,0.6428571428571429,0.8571428571428571,0.0004
806,0.6620876789093018,1.0297229290008545,0.8269230769230769,0.9615384615384616,0.7142857142857143,0.9285714285714286,0.0004
807,0.6174319386482239,1.0016611814498901,0.7884615384615384,0.9807692307692307,0.8571428571428571,0.9285714285714286,0.0004
808,0.5088395327329636,1.0299509763717651,0.9038461538461539,0.9615384615384616,0.7857142857142857,0.8571428571428571,0.0004
809,0.6914981007575989,1.6221312284469604,0.75,0.9807692307692307,0.5714285714285714,0.9285714285714286,0.0004
810,0.6408022344112396,1.2490625381469727,0.7884615384615384,0.9807692307692307,0.7857142857142857,0.8571428571428571,0.0004
811,0.6235594749450684,0.9039210081100464,0.75,0.9615384615384616,0.8571428571428571,0.8571428571428571,0.0004
812,0.6043059229850769,0.6500557661056519,0.7692307692307693,1.0,0.8571428571428571,0.9285714285714286,0.0004
813,0.6680376827716827,0.9375040531158447,0.7307692307692307,0.9615384615384616,0.7857142857142857,0.9285714285714286,0.0004
814,0.7291442155838013,1.6337928771972656,0.7307692307692307,0.9615384615384616,0.7142857142857143,0.8571428571428571,0.0004
815,0.6189583539962769,1.4956181049346924,0.7884615384615384,0.9615384615384616,0.7142857142857143,0.9285714285714286,0.0004
816,0.6535608470439911,1.8412703275680542,0.7307692307692307,0.9807692307692307,0.5714285714285714,0.8571428571428571,0.0004
817,0.791628360748291,1.0282896757125854,0.7884615384615384,0.9615384615384616,0.7857142857142857,0.9285714285714286,0.0004
818,0.9973427653312683,1.6790332794189453,0.6923076923076923,0.9423076923076923,0.7857142857142857,0.8571428571428571,0.0004
819,0.6535714268684387,1.4399778842926025,0.7692307692307693,0.9615384615384616,0.5714285714285714,0.8571428571428571,0.0004
820,0.7411166429519653,1.1740033626556396,0.7884615384615384,0.9615384615384616,0.7857142857142857,0.8571428571428571,0.0004
821,0.8947232514619827,0.8892683982849121,0.7307692307692307,0.9423076923076923,0.7142857142857143,0.9285714285714286,0.0004
822,0.7416808158159256,0.6734122633934021,0.8076923076923077,0.9230769230769231,0.7142857142857143,0.9285714285714286,0.0004
823,0.6716960668563843,0.9589942097663879,0.75,0.9807692307692307,0.7142857142857143,0.8571428571428571,0.0004
824,0.8363949060440063,1.3482675552368164,0.7692307692307693,0.9423076923076923,0.5714285714285714,0.8571428571428571,0.0004
825,1.0039555728435516,1.1865421533584595,0.7115384615384616,0.9038461538461539,0.6428571428571429,0.9285714285714286,0.0004
826,0.6470127999782562,1.5022850036621094,0.7307692307692307,0.9807692307692307,0.6428571428571429,0.7142857142857143,0.0004
827,0.6448317766189575,1.1241861581802368,0.7692307692307693,0.9807692307692307,0.7142857142857143,0.8571428571428571,0.0004
828,0.7413654327392578,0.902678370475769,0.75,0.9615384615384616,0.8571428571428571,0.8571428571428571,0.0004
829,0.768877387046814,1.5253419876098633,0.8076923076923077,0.9230769230769231,0.35714285714285715,0.7857142857142857,0.0004
830,0.6643666326999664,1.3062046766281128,0.75,0.9423076923076923,0.42857142857142855,0.8571428571428571,0.0004
831,0.6761718094348907,0.977251410484314,0.75,0.9615384615384616,0.7857142857142857,0.7857142857142857,0.0004
832,0.6550793647766113,1.2889962196350098,0.75,0.9615384615384616,0.6428571428571429,0.9285714285714286,0.0004
833,0.526889830827713,1.5349209308624268,0.75,0.9615384615384616,0.42857142857142855,0.7142857142857143,0.0004
834,0.8054314851760864,0.9344881772994995,0.6538461538461539,0.9615384615384616,0.7142857142857143,0.9285714285714286,0.0004
835,0.6402942389249802,1.1488897800445557,0.75,0.9807692307692307,0.6428571428571429,0.7857142857142857,0.0004
836,0.5993825346231461,1.2154113054275513,0.7692307692307693,0.9807692307692307,0.5714285714285714,0.8571428571428571,0.0004
837,0.7199861407279968,0.9163474440574646,0.7307692307692307,0.9807692307692307,0.6428571428571429,0.9285714285714286,0.0004
838,0.506177693605423,0.9758822917938232,0.8076923076923077,0.9807692307692307,0.7142857142857143,0.7857142857142857,0.0004
839,0.712687760591507,0.9442092180252075,0.75,0.9807692307692307,0.7857142857142857,0.8571428571428571,0.0004
840,0.7108353972434998,0.9495574831962585,0.6923076923076923,0.9615384615384616,0.8571428571428571,0.8571428571428571,0.0004
841,0.5226512253284454,1.3064857721328735,0.8076923076923077,0.9807692307692307,0.6428571428571429,0.8571428571428571,0.0004
842,0.8202410936355591,1.901167392730713,0.75,0.9423076923076923,0.5,0.8571428571428571,0.0004
843,0.5676776468753815,0.6619856357574463,0.7884615384615384,0.9615384615384616,0.7857142857142857,0.9285714285714286,0.0004
844,0.670960396528244,1.2973756790161133,0.7692307692307693,0.9807692307692307,0.7142857142857143,0.8571428571428571,0.0004
845,0.6577350199222565,1.287648320198059,0.7884615384615384,0.9423076923076923,0.7142857142857143,0.8571428571428571,0.0004
846,0.819049596786499,1.2874829769134521,0.7115384615384616,0.9230769230769231,0.7857142857142857,0.8571428571428571,0.0004
847,0.661469116806984,1.4211413860321045,0.8076923076923077,0.9807692307692307,0.6428571428571429,0.8571428571428571,0.0004
848,0.4686437398195267,1.5223422050476074,0.8269230769230769,1.0,0.5714285714285714,0.7857142857142857,0.0004
849,0.8279430866241455,1.323758602142334,0.7115384615384616,0.9423076923076923,0.6428571428571429,0.8571428571428571,0.0004
850,0.7416583895683289,0.8662421703338623,0.6923076923076923,0.9615384615384616,0.7142857142857143,0.8571428571428571,0.0004
851,0.7231637984514236,0.9469588398933411,0.75,0.9615384615384616,0.8571428571428571,0.8571428571428571,0.0004
852,0.8327378630638123,1.1807894706726074,0.7307692307692307,0.9423076923076923,0.7857142857142857,0.9285714285714286,0.0004
853,0.7345670759677887,0.39322009682655334,0.6923076923076923,0.9615384615384616,1.0,0.9285714285714286,0.0004
854,0.6998107731342316,0.8967490196228027,0.7115384615384616,0.9615384615384616,0.8571428571428571,0.8571428571428571,0.0004
855,0.9566178321838379,1.0969692468643188,0.6538461538461539,0.9423076923076923,0.7857142857142857,0.9285714285714286,0.0004
856,0.6421971023082733,1.2688430547714233,0.75,0.9807692307692307,0.5,0.7857142857142857,0.0004
857,0.7450911700725555,1.8844947814941406,0.75,0.9230769230769231,0.5,0.7857142857142857,0.0004
858,0.6347655355930328,1.3935470581054688,0.7307692307692307,0.9807692307692307,0.6428571428571429,0.7857142857142857,0.0004
859,0.6296531856060028,1.348549723625183,0.7115384615384616,0.9807692307692307,0.6428571428571429,0.8571428571428571,0.0004
860,0.6110570579767227,1.3071666955947876,0.75,0.9615384615384616,0.7142857142857143,0.8571428571428571,0.0004
861,0.5557198524475098,1.1408542394638062,0.8076923076923077,0.9807692307692307,0.5714285714285714,0.9285714285714286,0.0004
862,0.7893567383289337,0.8511384129524231,0.7115384615384616,0.9807692307692307,0.7142857142857143,0.9285714285714286,0.0004
863,0.6803802251815796,0.9210202693939209,0.7692307692307693,0.9423076923076923,0.7857142857142857,0.9285714285714286,0.0004
864,0.5472151041030884,1.1971585750579834,0.8461538461538461,0.9615384615384616,0.5714285714285714,0.8571428571428571,0.0004
865,0.6577972769737244,1.0430902242660522,0.75,0.9615384615384616,0.7857142857142857,0.8571428571428571,0.0004
866,0.6414617002010345,1.3928642272949219,0.8076923076923077,0.9807692307692307,0.7142857142857143,0.8571428571428571,0.0004
867,0.5202434062957764,1.362186312675476,0.8461538461538461,0.9615384615384616,0.6428571428571429,0.7857142857142857,0.0004
868,0.543813556432724,1.846846342086792,0.75,1.0,0.6428571428571429,0.7857142857142857,0.0004
869,0.7225513756275177,1.5939184427261353,0.8461538461538461,0.9423076923076923,0.6428571428571429,0.8571428571428571,0.0004
870,0.6410369575023651,1.5964784622192383,0.8076923076923077,0.9807692307692307,0.7857142857142857,0.8571428571428571,0.0004
871,0.6374535858631134,0.7183573246002197,0.75,0.9615384615384616,0.9285714285714286,0.9285714285714286,0.0004
872,0.6497687548398972,1.061227798461914,0.7692307692307693,0.9807692307692307,0.7142857142857143,0.8571428571428571,0.0004
873,0.7101268172264099,1.197326898574829,0.7307692307692307,0.9423076923076923,0.7142857142857143,0.7857142857142857,0.0004
874,0.5934099555015564,0.8297266364097595,0.8076923076923077,1.0,0.8571428571428571,0.9285714285714286,0.0004
875,0.6373684108257294,1.0786552429199219,0.7307692307692307,1.0,0.7142857142857143,0.8571428571428571,0.0004
876,0.8355667889118195,0.7115590572357178,0.7307692307692307,0.9423076923076923,0.9285714285714286,0.9285714285714286,0.0004
877,0.82107213139534,0.7506682872772217,0.75,0.9230769230769231,0.7857142857142857,0.9285714285714286,0.0004
878,0.6208186596632004,1.4830715656280518,0.75,0.9615384615384616,0.6428571428571429,0.8571428571428571,0.0004
879,0.5718578994274139,1.344132661819458,0.75,0.9615384615384616,0.6428571428571429,0.9285714285714286,0.0004
880,0.5174712985754013,1.0738283395767212,0.8269230769230769,0.9807692307692307,0.6428571428571429,0.9285714285714286,0.0004
881,0.6089171469211578,1.1899912357330322,0.7692307692307693,1.0,0.5714285714285714,0.8571428571428571,0.0004
882,0.61100934445858,1.3597404956817627,0.7884615384615384,0.9615384615384616,0.6428571428571429,0.8571428571428571,0.0004
883,0.6258178949356079,1.608396053314209,0.75,0.9615384615384616,0.5,0.7857142857142857,0.0004
884,0.6630838513374329,1.3504079580307007,0.6923076923076923,0.9807692307692307,0.5,0.8571428571428571,0.0004
885,0.5691317468881607,1.4101701974868774,0.7884615384615384,0.9615384615384616,0.6428571428571429,0.8571428571428571,0.0004
886,0.7474945187568665,1.0048636198043823,0.7307692307692307,0.9423076923076923,0.6428571428571429,0.9285714285714286,0.0004
887,0.9220243096351624,0.836469829082489,0.7115384615384616,0.9038461538461539,0.7142857142857143,0.9285714285714286,0.0004
888,0.5773361325263977,0.7925911545753479,0.7307692307692307,0.9615384615384616,0.7142857142857143,0.9285714285714286,0.0004
889,0.6497504413127899,1.5341708660125732,0.75,0.9807692307692307,0.6428571428571429,0.7857142857142857,0.0004
890,0.5657893121242523,1.3263413906097412,0.8076923076923077,0.9807692307692307,0.7142857142857143,0.8571428571428571,0.0004
891,0.5485597401857376,1.2296459674835205,0.7884615384615384,0.9807692307692307,0.6428571428571429,0.8571428571428571,0.0004
892,0.4413907527923584,0.8811283707618713,0.8653846153846154,1.0,0.7142857142857143,0.8571428571428571,0.0004
893,0.7313486933708191,1.4555416107177734,0.6923076923076923,0.9807692307692307,0.6428571428571429,0.8571428571428571,0.0004
894,0.5567216575145721,1.055807113647461,0.8653846153846154,0.9615384615384616,0.6428571428571429,0.9285714285714286,0.0004
895,0.5348120033740997,0.8169794678688049,0.8076923076923077,0.9807692307692307,0.7857142857142857,0.9285714285714286,0.0004
896,0.5798666030168533,0.5645149946212769,0.8269230769230769,0.9807692307692307,0.8571428571428571,0.9285714285714286,0.0004
897,0.4331119656562805,1.004014015197754,0.8269230769230769,1.0,0.6428571428571429,0.9285714285714286,0.0004
898,0.6772692501544952,0.9854841828346252,0.8269230769230769,0.9423076923076923,0.6428571428571429,0.8571428571428571,0.0004
899,0.5335246026515961,1.1632893085479736,0.8653846153846154,0.9807692307692307,0.7142857142857143,0.9285714285714286,0.0004
900,0.5286034941673279,0.9249588251113892,0.8076923076923077,0.9615384615384616,0.7857142857142857,0.9285714285714286,0.0004
901,0.9784769415855408,1.3398232460021973,0.7115384615384616,0.9423076923076923,0.7142857142857143,0.8571428571428571,0.0004
902,0.5317594558000565,0.9902832508087158,0.8653846153846154,0.9807692307692307,0.7142857142857143,0.9285714285714286,0.0004
903,0.48344530165195465,1.036424994468689,0.8461538461538461,0.9807692307692307,0.7857142857142857,0.9285714285714286,0.0004
904,0.5550048649311066,1.3283179998397827,0.8076923076923077,0.9423076923076923,0.7857142857142857,0.9285714285714286,0.0004
905,0.4681956321001053,1.0530004501342773,0.7884615384615384,0.9807692307692307,0.6428571428571429,0.9285714285714286,0.0004
906,0.6246738731861115,1.2934608459472656,0.7692307692307693,0.9807692307692307,0.5714285714285714,0.9285714285714286,0.0004
907,0.5936252474784851,0.8686401844024658,0.7307692307692307,0.9807692307692307,0.7857142857142857,0.9285714285714286,0.0004
908,0.56923046708107,1.2353496551513672,0.7692307692307693,1.0,0.7142857142857143,0.8571428571428571,0.0004
909,0.527958333492279,0.8438909649848938,0.7692307692307693,1.0,0.8571428571428571,0.9285714285714286,0.0004
910,0.7991384863853455,0.8344755172729492,0.7115384615384616,0.9230769230769231,0.6428571428571429,0.9285714285714286,0.0004
911,1.0132985413074493,0.8481882214546204,0.6346153846153846,0.9423076923076923,0.7142857142857143,0.8571428571428571,0.0004
912,0.6736494898796082,0.6681985855102539,0.7115384615384616,0.9423076923076923,0.9285714285714286,0.7857142857142857,0.0004
913,0.609033852815628,1.7445979118347168,0.7307692307692307,0.9615384615384616,0.5714285714285714,0.8571428571428571,0.0004
914,0.6972351968288422,1.1140403747558594,0.7307692307692307,1.0,0.7142857142857143,0.9285714285714286,0.0004
915,0.5212927907705307,1.5131800174713135,0.7884615384615384,0.9807692307692307,0.6428571428571429,0.8571428571428571,0.0004
916,0.5578942894935608,0.5216783881187439,0.8076923076923077,0.9807692307692307,0.9285714285714286,0.9285714285714286,0.0004
917,0.5580182820558548,1.270960807800293,0.7692307692307693,0.9807692307692307,0.8571428571428571,0.8571428571428571,0.0004
918,0.5653536021709442,0.9803531169891357,0.8076923076923077,1.0,0.7142857142857143,0.8571428571428571,0.0004
919,0.7228597700595856,1.136374592781067,0.7115384615384616,0.9615384615384616,0.7142857142857143,0.8571428571428571,0.0004
920,0.5796671211719513,1.9568207263946533,0.75,0.9807692307692307,0.6428571428571429,0.8571428571428571,0.0004
921,0.5356645286083221,1.1741244792938232,0.7884615384615384,0.9615384615384616,0.6428571428571429,0.9285714285714286,0.0004
922,0.5268355309963226,1.0788387060165405,0.8653846153846154,0.9615384615384616,0.6428571428571429,0.9285714285714286,0.0004
923,0.6680947244167328,1.4871177673339844,0.7884615384615384,0.9615384615384616,0.5714285714285714,0.8571428571428571,0.0004
924,0.5780611038208008,1.0884721279144287,0.7307692307692307,1.0,0.7142857142857143,0.9285714285714286,0.0004
925,0.5780491232872009,1.922713279724121,0.8653846153846154,0.9423076923076923,0.5,0.8571428571428571,0.0004
926,0.7421389520168304,1.7294632196426392,0.7307692307692307,0.9615384615384616,0.5,0.7857142857142857,0.0004
927,0.7125768959522247,1.5022342205047607,0.7692307692307693,0.9423076923076923,0.7142857142857143,0.8571428571428571,0.0004
928,0.6678198575973511,0.878000020980835,0.7692307692307693,0.9230769230769231,0.8571428571428571,0.9285714285714286,0.0004
929,0.6614605486392975,1.3152412176132202,0.8076923076923077,0.9807692307692307,0.7857142857142857,0.8571428571428571,0.0004
930,0.5770832151174545,1.0848701000213623,0.8076923076923077,0.9230769230769231,0.9285714285714286,0.9285714285714286,0.0004
931,0.47818534076213837,0.8739069700241089,0.8076923076923077,0.9807692307692307,0.9285714285714286,0.9285714285714286,0.0004
932,0.8071207106113434,0.35583558678627014,0.7115384615384616,0.9423076923076923,0.9285714285714286,1.0,0.0004
933,0.5312972366809845,1.0844504833221436,0.7884615384615384,0.9615384615384616,0.7142857142857143,0.8571428571428571,0.0004
934,0.7439835071563721,1.4124279022216797,0.75,0.9615384615384616,0.7142857142857143,0.8571428571428571,0.0004
935,0.6534771025180817,1.2096649408340454,0.7115384615384616,0.9807692307692307,0.7857142857142857,0.8571428571428571,0.0004
936,0.47105497121810913,0.7633988261222839,0.7884615384615384,1.0,0.9285714285714286,0.8571428571428571,0.0004
937,0.5188189297914505,1.063825249671936,0.8076923076923077,0.9807692307692307,0.8571428571428571,0.8571428571428571,0.0004
938,0.5844497978687286,0.4960949420928955,0.7884615384615384,0.9615384615384616,0.8571428571428571,1.0,0.0004
939,0.7080715596675873,0.9161650538444519,0.8461538461538461,0.9807692307692307,0.7857142857142857,0.9285714285714286,0.0004
940,0.6147118806838989,1.0563606023788452,0.8076923076923077,0.9807692307692307,0.7857142857142857,0.8571428571428571,0.0004
941,0.5881028473377228,1.610917091369629,0.8076923076923077,0.9807692307692307,0.5,0.8571428571428571,0.0004
942,0.6096943318843842,0.9985054731369019,0.75,0.9807692307692307,0.7142857142857143,0.9285714285714286,0.0004
943,0.5563862919807434,0.9410935640335083,0.8269230769230769,0.9615384615384616,0.7142857142857143,0.9285714285714286,0.0004
944,0.6292871832847595,1.350064754486084,0.8461538461538461,0.9615384615384616,0.7857142857142857,0.8571428571428571,0.0004
945,0.5967274308204651,2.051866292953491,0.7884615384615384,0.9807692307692307,0.5,0.7857142857142857,0.0004
946,0.5607872903347015,1.3578897714614868,0.7884615384615384,0.9615384615384616,0.7142857142857143,0.8571428571428571,0.0004
947,0.42724400758743286,2.2313084602355957,0.8846153846153846,0.9807692307692307,0.6428571428571429,0.7857142857142857,0.0004
948,0.41042332351207733,0.9121685028076172,0.8269230769230769,1.0,0.8571428571428571,0.9285714285714286,0.0004
949,0.6200252175331116,1.5511516332626343,0.7884615384615384,0.9807692307692307,0.6428571428571429,0.9285714285714286,0.0004
950,0.5780268013477325,2.4176836013793945,0.7884615384615384,0.9615384615384616,0.5,0.7142857142857143,0.0004
951,0.7630340158939362,1.4608999490737915,0.8076923076923077,0.9423076923076923,0.7142857142857143,0.7857142857142857,0.0004
952,0.5238040685653687,1.1001369953155518,0.7692307692307693,0.9807692307692307,0.7142857142857143,0.9285714285714286,0.0004
953,0.6317378580570221,0.9909768104553223,0.7692307692307693,0.9230769230769231,0.7857142857142857,0.8571428571428571,0.0004
954,0.643993616104126,1.7396531105041504,0.7307692307692307,0.9807692307692307,0.5714285714285714,0.7857142857142857,0.0004
955,0.7844834923744202,2.0458133220672607,0.75,0.9423076923076923,0.5714285714285714,0.7857142857142857,0.0004
956,0.5969983786344528,1.042057991027832,0.8461538461538461,0.9615384615384616,0.7857142857142857,0.8571428571428571,0.0004
957,0.8119039237499237,1.1318650245666504,0.75,0.9423076923076923,0.5714285714285714,0.8571428571428571,0.0004
958,0.5629089325666428,2.015221118927002,0.8461538461538461,0.9615384615384616,0.5,0.7857142857142857,0.0004
959,0.6076300144195557,1.4857192039489746,0.8076923076923077,0.9807692307692307,0.6428571428571429,0.7857142857142857,0.0004
960,0.7365538775920868,1.2716338634490967,0.8269230769230769,0.9423076923076923,0.5,0.8571428571428571,0.0004
961,0.6609745919704437,1.6572751998901367,0.6923076923076923,0.9807692307692307,0.5714285714285714,0.7857142857142857,0.0004
962,0.845061182975769,0.3744896650314331,0.7307692307692307,0.9615384615384616,1.0,0.9285714285714286,0.0004
963,0.761190801858902,0.8104329109191895,0.8269230769230769,0.9615384615384616,0.7142857142857143,0.9285714285714286,0.0004
964,0.5554778724908829,1.4583711624145508,0.7884615384615384,0.9615384615384616,0.6428571428571429,0.7142857142857143,0.0004
965,0.6738473176956177,0.44093212485313416,0.75,0.9807692307692307,0.7857142857142857,0.9285714285714286,0.0004
966,0.9261344075202942,1.659705638885498,0.75,0.9230769230769231,0.5,0.7857142857142857,0.0004
967,0.775269091129303,0.95670086145401,0.7307692307692307,0.9230769230769231,0.7857142857142857,0.8571428571428571,0.0004
968,0.6350364685058594,0.8460487127304077,0.8269230769230769,0.9807692307692307,0.7857142857142857,0.9285714285714286,0.0004
969,0.8654531538486481,0.7556335926055908,0.7692307692307693,0.9230769230769231,0.7857142857142857,0.8571428571428571,0.0004
970,0.7704497426748276,1.157168984413147,0.75,0.9423076923076923,0.5714285714285714,0.8571428571428571,0.0004
971,0.6104452908039093,1.0186184644699097,0.7692307692307693,0.9807692307692307,0.6428571428571429,0.8571428571428571,0.0004
972,0.5229424387216568,1.054932713508606,0.75,0.9615384615384616,0.7142857142857143,0.9285714285714286,0.0004
973,0.5867312103509903,1.227400302886963,0.7692307692307693,0.9807692307692307,0.6428571428571429,0.7857142857142857,0.0004
974,0.8626875579357147,1.131924033164978,0.6538461538461539,0.9230769230769231,0.7142857142857143,0.8571428571428571,0.0004
975,0.5932281911373138,1.1205601692199707,0.8461538461538461,0.9615384615384616,0.5714285714285714,0.7857142857142857,0.0004
976,0.6930548548698425,0.7082427740097046,0.7115384615384616,0.9615384615384616,0.9285714285714286,0.9285714285714286,0.0004
977,0.7551131844520569,1.2020342350006104,0.7884615384615384,0.9038461538461539,0.7142857142857143,0.8571428571428571,0.0004
978,0.6502312421798706,1.4389123916625977,0.75,1.0,0.7142857142857143,0.9285714285714286,0.0004
979,0.5898904055356979,1.022741675376892,0.8269230769230769,0.9807692307692307,0.7857142857142857,0.8571428571428571,0.0004
980,0.6625210642814636,0.5934369564056396,0.8269230769230769,0.9807692307692307,0.7857142857142857,0.9285714285714286,0.0004
981,0.66183140873909,1.265421748161316,0.7692307692307693,0.9807692307692307,0.7142857142857143,0.9285714285714286,0.0004
982,0.5466970354318619,1.3363827466964722,0.8076923076923077,0.9807692307692307,0.6428571428571429,0.8571428571428571,0.0004
983,0.5978914797306061,0.7433615922927856,0.8269230769230769,0.9615384615384616,0.7857142857142857,0.8571428571428571,0.0004
984,0.8421362042427063,1.1081351041793823,0.7307692307692307,0.9423076923076923,0.6428571428571429,0.8571428571428571,0.0004
985,0.4351131319999695,0.8189094066619873,0.8653846153846154,1.0,0.9285714285714286,0.9285714285714286,0.0004
986,0.7318321913480759,1.2894253730773926,0.75,0.9615384615384616,0.6428571428571429,0.8571428571428571,0.0004
987,0.48420602083206177,0.9466440677642822,0.8461538461538461,1.0,0.7857142857142857,0.7857142857142857,0.0004
988,0.44349128007888794,0.7005010843276978,0.8076923076923077,1.0,0.7857142857142857,0.9285714285714286,0.0004
989,0.5781471580266953,1.2104326486587524,0.7307692307692307,0.9807692307692307,0.5714285714285714,0.8571428571428571,0.0004
990,0.7444749474525452,1.7969727516174316,0.7307692307692307,0.9615384615384616,0.6428571428571429,0.8571428571428571,0.0004
991,0.7191497385501862,1.126631259918213,0.7692307692307693,0.9615384615384616,0.6428571428571429,0.7857142857142857,0.0004
992,0.581177681684494,1.5159639120101929,0.8461538461538461,0.9807692307692307,0.5714285714285714,0.7857142857142857,0.0004
