epoch,train_loss,val_loss,train_acc_action,train_acc_status,val_acc_action,val_acc_status,learning_rate
1,1.8314169645309448,1.8011025190353394,0.3076923076923077,0.17307692307692307,0.42857142857142855,0.14285714285714285,0.0004
2,1.828251600265503,1.7984426021575928,0.3076923076923077,0.17307692307692307,0.42857142857142855,0.14285714285714285,0.0004
3,1.8248319029808044,1.7932978868484497,0.3076923076923077,0.17307692307692307,0.42857142857142855,0.14285714285714285,0.0004
4,1.8126402497291565,1.790762186050415,0.3076923076923077,0.17307692307692307,0.42857142857142855,0.14285714285714285,0.0004
5,1.8133108019828796,1.7891716957092285,0.3076923076923077,0.17307692307692307,0.42857142857142855,0.14285714285714285,0.0004
6,1.8173168897628784,1.7851898670196533,0.3076923076923077,0.19230769230769232,0.42857142857142855,0.14285714285714285,0.0004
7,1.8138725757598877,1.7796878814697266,0.3076923076923077,0.17307692307692307,0.42857142857142855,0.14285714285714285,0.0004
8,1.8056224584579468,1.7802305221557617,0.3076923076923077,0.23076923076923078,0.42857142857142855,0.14285714285714285,0.0004
9,1.7988749146461487,1.7761499881744385,0.3076923076923077,0.4230769230769231,0.42857142857142855,0.14285714285714285,0.0004
10,1.8035808205604553,1.7727413177490234,0.3076923076923077,0.5192307692307693,0.42857142857142855,0.7142857142857143,0.0004
11,1.7982183694839478,1.7688149213790894,0.3076923076923077,0.5,0.42857142857142855,0.7857142857142857,0.0004
12,1.7949296832084656,1.7628750801086426,0.3076923076923077,0.6153846153846154,0.42857142857142855,0.8571428571428571,0.0004
13,1.7942644357681274,1.7604186534881592,0.3076923076923077,0.6923076923076923,0.42857142857142855,0.8571428571428571,0.0004
14,1.78495454788208,1.7541202306747437,0.3076923076923077,0.6923076923076923,0.42857142857142855,0.8571428571428571,0.0004
15,1.7755544185638428,1.7485802173614502,0.3269230769230769,0.8076923076923077,0.42857142857142855,0.8571428571428571,0.0004
16,1.772217035293579,1.7380311489105225,0.3076923076923077,0.7884615384615384,0.42857142857142855,0.8571428571428571,0.0004
17,1.7561874389648438,1.728460431098938,0.3076923076923077,0.7884615384615384,0.42857142857142855,0.8571428571428571,0.0004
18,1.750012218952179,1.7042934894561768,0.3076923076923077,0.7884615384615384,0.42857142857142855,0.8571428571428571,0.0004
19,1.7417266368865967,1.6871259212493896,0.3076923076923077,0.8076923076923077,0.42857142857142855,0.8571428571428571,0.0004
20,1.7301953434944153,1.6440482139587402,0.21153846153846154,0.8269230769230769,0.42857142857142855,0.8571428571428571,0.0004
21,1.6779234409332275,1.5860986709594727,0.28846153846153844,0.8269230769230769,0.42857142857142855,0.8571428571428571,0.0004
22,1.6508702039718628,1.538772463798523,0.25,0.8269230769230769,0.42857142857142855,0.8571428571428571,0.0004
23,1.5700796842575073,1.5143988132476807,0.38461538461538464,0.8269230769230769,0.42857142857142855,0.8571428571428571,0.0004
24,1.5593201518058777,1.5087158679962158,0.3269230769230769,0.8269230769230769,0.42857142857142855,0.8571428571428571,0.0004
25,1.5765398740768433,1.5128761529922485,0.38461538461538464,0.8269230769230769,0.2857142857142857,0.8571428571428571,0.0004
26,1.5436355471611023,1.5187541246414185,0.3076923076923077,0.8269230769230769,0.21428571428571427,0.8571428571428571,0.0004
27,1.584145963191986,1.5283888578414917,0.36538461538461536,0.8269230769230769,0.21428571428571427,0.8571428571428571,0.0004
28,1.6149823665618896,1.530327320098877,0.3269230769230769,0.8269230769230769,0.21428571428571427,0.8571428571428571,0.0004
29,1.541339099407196,1.5393532514572144,0.40384615384615385,0.8269230769230769,0.21428571428571427,0.8571428571428571,0.0004
30,1.6838630437850952,1.5388315916061401,0.3269230769230769,0.8269230769230769,0.21428571428571427,0.8571428571428571,0.0004
31,1.5615471601486206,1.5389130115509033,0.4230769230769231,0.8269230769230769,0.21428571428571427,0.8571428571428571,0.0004
32,1.6136702299118042,1.539286494255066,0.3076923076923077,0.8269230769230769,0.21428571428571427,0.8571428571428571,0.0004
33,1.6612933278083801,1.538722276687622,0.2692307692307692,0.8269230769230769,0.21428571428571427,0.8571428571428571,0.0004
34,1.5368459224700928,1.537879467010498,0.38461538461538464,0.8269230769230769,0.21428571428571427,0.8571428571428571,0.0004
35,1.5401220321655273,1.5384058952331543,0.4230769230769231,0.8269230769230769,0.21428571428571427,0.8571428571428571,0.0004
36,1.5185378789901733,1.5396757125854492,0.4423076923076923,0.8269230769230769,0.21428571428571427,0.8571428571428571,0.0004
37,1.5978991389274597,1.538811206817627,0.4230769230769231,0.8269230769230769,0.21428571428571427,0.8571428571428571,0.0004
38,1.5982755422592163,1.5396701097488403,0.3269230769230769,0.8269230769230769,0.21428571428571427,0.8571428571428571,0.0004
39,1.6289687752723694,1.5383808612823486,0.3076923076923077,0.8269230769230769,0.21428571428571427,0.8571428571428571,0.0004
40,1.6574907898902893,1.5402830839157104,0.2692307692307692,0.8269230769230769,0.21428571428571427,0.8571428571428571,0.0004
41,1.5452720522880554,1.5388200283050537,0.34615384615384615,0.8269230769230769,0.21428571428571427,0.8571428571428571,0.0004
42,1.579964280128479,1.540455937385559,0.28846153846153844,0.8269230769230769,0.21428571428571427,0.8571428571428571,0.0004
43,1.5468807220458984,1.5389955043792725,0.38461538461538464,0.8269230769230769,0.21428571428571427,0.8571428571428571,0.0004
44,1.6591174602508545,1.5398255586624146,0.28846153846153844,0.8269230769230769,0.21428571428571427,0.8571428571428571,0.0004
45,1.5714629292488098,1.5405700206756592,0.4423076923076923,0.8269230769230769,0.21428571428571427,0.8571428571428571,0.0004
46,1.5510697960853577,1.543285608291626,0.40384615384615385,0.8269230769230769,0.21428571428571427,0.8571428571428571,0.0004
47,1.5836809277534485,1.542975664138794,0.40384615384615385,0.8269230769230769,0.21428571428571427,0.8571428571428571,0.0004
48,1.6006854176521301,1.5447933673858643,0.3269230769230769,0.8269230769230769,0.21428571428571427,0.8571428571428571,0.0004
49,1.6442483067512512,1.5454589128494263,0.36538461538461536,0.8269230769230769,0.21428571428571427,0.8571428571428571,0.0004
50,1.6274182796478271,1.5490467548370361,0.2692307692307692,0.8269230769230769,0.21428571428571427,0.8571428571428571,0.0004
51,1.5749227404594421,1.54582941532135,0.40384615384615385,0.8269230769230769,0.21428571428571427,0.8571428571428571,0.0004
52,1.6144039630889893,1.546708345413208,0.34615384615384615,0.8269230769230769,0.21428571428571427,0.8571428571428571,0.0004
53,1.5619312524795532,1.5485919713974,0.36538461538461536,0.8269230769230769,0.21428571428571427,0.8571428571428571,0.0004
54,1.5876266956329346,1.5460484027862549,0.38461538461538464,0.8269230769230769,0.21428571428571427,0.8571428571428571,0.0004
55,1.5326474905014038,1.5468318462371826,0.5,0.8269230769230769,0.21428571428571427,0.8571428571428571,0.0004
56,1.5478248000144958,1.545116662979126,0.4230769230769231,0.8269230769230769,0.21428571428571427,0.8571428571428571,0.0004
57,1.5785975456237793,1.5448144674301147,0.36538461538461536,0.8269230769230769,0.21428571428571427,0.8571428571428571,0.0004
58,1.6179161071777344,1.5440399646759033,0.3269230769230769,0.8269230769230769,0.21428571428571427,0.8571428571428571,0.0004
59,1.5637686252593994,1.5418777465820312,0.38461538461538464,0.8269230769230769,0.21428571428571427,0.8571428571428571,0.0004
60,1.6133215427398682,1.5413949489593506,0.3269230769230769,0.8269230769230769,0.21428571428571427,0.8571428571428571,0.0004
61,1.562157392501831,1.5382931232452393,0.36538461538461536,0.8269230769230769,0.21428571428571427,0.8571428571428571,0.0004
62,1.6577895283699036,1.5363366603851318,0.25,0.8269230769230769,0.21428571428571427,0.8571428571428571,0.0004
63,1.6451547741889954,1.5336352586746216,0.2692307692307692,0.8269230769230769,0.21428571428571427,0.8571428571428571,0.0004
64,1.5526292324066162,1.5298573970794678,0.4423076923076923,0.8269230769230769,0.21428571428571427,0.8571428571428571,0.0004
65,1.5326759815216064,1.5306521654129028,0.4230769230769231,0.8269230769230769,0.21428571428571427,0.8571428571428571,0.0004
66,1.6042771339416504,1.531373381614685,0.2692307692307692,0.8269230769230769,0.21428571428571427,0.8571428571428571,0.0004
67,1.5613194704055786,1.5302780866622925,0.36538461538461536,0.8269230769230769,0.21428571428571427,0.8571428571428571,0.0004
68,1.5952649116516113,1.5298548936843872,0.28846153846153844,0.8269230769230769,0.21428571428571427,0.8571428571428571,0.0004
69,1.613679826259613,1.530850887298584,0.2692307692307692,0.8269230769230769,0.21428571428571427,0.8571428571428571,0.0004
70,1.5646993517875671,1.5291833877563477,0.2692307692307692,0.8269230769230769,0.21428571428571427,0.8571428571428571,0.0004
71,1.6420018076896667,1.5297434329986572,0.2692307692307692,0.8269230769230769,0.21428571428571427,0.8571428571428571,0.0004
72,1.5397285223007202,1.5303983688354492,0.46153846153846156,0.8269230769230769,0.21428571428571427,0.8571428571428571,0.0004
73,1.5291370153427124,1.5313031673431396,0.36538461538461536,0.8269230769230769,0.21428571428571427,0.8571428571428571,0.0004
74,1.6595841646194458,1.5315608978271484,0.28846153846153844,0.8269230769230769,0.21428571428571427,0.8571428571428571,0.0004
75,1.6401367783546448,1.530073881149292,0.3076923076923077,0.8269230769230769,0.21428571428571427,0.8571428571428571,0.0004
76,1.625967562198639,1.5290393829345703,0.36538461538461536,0.8269230769230769,0.21428571428571427,0.8571428571428571,0.0004
77,1.5849546194076538,1.529336929321289,0.3076923076923077,0.8269230769230769,0.21428571428571427,0.8571428571428571,0.0004
78,1.598320722579956,1.5307997465133667,0.3269230769230769,0.8269230769230769,0.21428571428571427,0.8571428571428571,0.0004
79,1.5690381526947021,1.5317195653915405,0.38461538461538464,0.8269230769230769,0.21428571428571427,0.8571428571428571,0.0004
80,1.6450163125991821,1.5315628051757812,0.38461538461538464,0.8269230769230769,0.21428571428571427,0.8571428571428571,0.0004
81,1.5844619870185852,1.5319823026657104,0.4423076923076923,0.8269230769230769,0.21428571428571427,0.8571428571428571,0.0004
82,1.6016005873680115,1.5325274467468262,0.4230769230769231,0.8269230769230769,0.21428571428571427,0.8571428571428571,0.0004
83,1.6196333169937134,1.5374655723571777,0.36538461538461536,0.8269230769230769,0.21428571428571427,0.8571428571428571,0.0004
84,1.5724439024925232,1.5385608673095703,0.36538461538461536,0.8269230769230769,0.21428571428571427,0.8571428571428571,0.0004
85,1.5922982692718506,1.5376355648040771,0.40384615384615385,0.8269230769230769,0.21428571428571427,0.8571428571428571,0.0004
86,1.5427212715148926,1.538817286491394,0.38461538461538464,0.8269230769230769,0.21428571428571427,0.8571428571428571,0.0004
87,1.5726965069770813,1.544576644897461,0.25,0.8269230769230769,0.21428571428571427,0.8571428571428571,0.0004
88,1.5532371401786804,1.5434176921844482,0.36538461538461536,0.8269230769230769,0.21428571428571427,0.8571428571428571,0.0004
89,1.5514479875564575,1.5458523035049438,0.34615384615384615,0.8269230769230769,0.21428571428571427,0.8571428571428571,0.0004
90,1.5793201923370361,1.5464162826538086,0.3076923076923077,0.8269230769230769,0.21428571428571427,0.8571428571428571,0.0004
91,1.6307705640792847,1.5452215671539307,0.2692307692307692,0.8269230769230769,0.21428571428571427,0.8571428571428571,0.0004
92,1.6128984093666077,1.5456997156143188,0.40384615384615385,0.8269230769230769,0.21428571428571427,0.8571428571428571,0.0004
93,1.5575873851776123,1.5465106964111328,0.38461538461538464,0.8269230769230769,0.21428571428571427,0.8571428571428571,0.0004
94,1.5924115777015686,1.543203592300415,0.3076923076923077,0.8269230769230769,0.21428571428571427,0.8571428571428571,0.0004
95,1.6141666173934937,1.5425225496292114,0.40384615384615385,0.8269230769230769,0.21428571428571427,0.8571428571428571,0.0004
96,1.6178607940673828,1.538826823234558,0.4230769230769231,0.8269230769230769,0.21428571428571427,0.8571428571428571,0.0004
97,1.5863913297653198,1.5425810813903809,0.2692307692307692,0.8269230769230769,0.21428571428571427,0.8571428571428571,0.0004
98,1.5836467742919922,1.5424854755401611,0.40384615384615385,0.8269230769230769,0.21428571428571427,0.8571428571428571,0.0004
99,1.561772346496582,1.5411913394927979,0.38461538461538464,0.8269230769230769,0.21428571428571427,0.8571428571428571,0.0004
100,1.5571773052215576,1.5369365215301514,0.38461538461538464,0.8269230769230769,0.21428571428571427,0.8571428571428571,0.0004
101,1.583391785621643,1.5371732711791992,0.3269230769230769,0.8269230769230769,0.21428571428571427,0.8571428571428571,0.0004
102,1.611569583415985,1.5343339443206787,0.3269230769230769,0.8269230769230769,0.21428571428571427,0.8571428571428571,0.0004
103,1.6261463165283203,1.534487009048462,0.3269230769230769,0.8269230769230769,0.21428571428571427,0.8571428571428571,0.0004
104,1.6201887130737305,1.5325602293014526,0.36538461538461536,0.8269230769230769,0.21428571428571427,0.8571428571428571,0.0004
105,1.541902482509613,1.5311810970306396,0.40384615384615385,0.8269230769230769,0.21428571428571427,0.8571428571428571,0.0004
106,1.6097756624221802,1.5305049419403076,0.3269230769230769,0.8269230769230769,0.21428571428571427,0.8571428571428571,0.0004
107,1.565894365310669,1.5297242403030396,0.34615384615384615,0.8269230769230769,0.21428571428571427,0.8571428571428571,0.0004
108,1.5652568340301514,1.5287564992904663,0.40384615384615385,0.8269230769230769,0.21428571428571427,0.8571428571428571,0.0004
109,1.5287264585494995,1.5267574787139893,0.4807692307692308,0.8269230769230769,0.21428571428571427,0.8571428571428571,0.0004
110,1.5986731052398682,1.5278737545013428,0.4230769230769231,0.8269230769230769,0.21428571428571427,0.8571428571428571,0.0004
111,1.666624128818512,1.5302482843399048,0.3076923076923077,0.8269230769230769,0.21428571428571427,0.8571428571428571,0.0004
112,1.6164982914924622,1.532294750213623,0.2692307692307692,0.8269230769230769,0.21428571428571427,0.8571428571428571,0.0004
113,1.6718777418136597,1.5319342613220215,0.23076923076923078,0.8269230769230769,0.21428571428571427,0.8571428571428571,0.0004
114,1.544225811958313,1.5307331085205078,0.34615384615384615,0.8269230769230769,0.21428571428571427,0.8571428571428571,0.0004
115,1.585552453994751,1.5315265655517578,0.3076923076923077,0.8269230769230769,0.21428571428571427,0.8571428571428571,0.0004
116,1.5188500881195068,1.5315163135528564,0.3269230769230769,0.8269230769230769,0.21428571428571427,0.8571428571428571,0.0004
117,1.567509114742279,1.5310654640197754,0.4423076923076923,0.8269230769230769,0.21428571428571427,0.8571428571428571,0.0004
118,1.5581297278404236,1.5295829772949219,0.25,0.8269230769230769,0.21428571428571427,0.8571428571428571,0.0004
119,1.6456690430641174,1.5342590808868408,0.36538461538461536,0.8269230769230769,0.21428571428571427,0.8571428571428571,0.0004
120,1.6095128059387207,1.5323939323425293,0.3269230769230769,0.8269230769230769,0.21428571428571427,0.8571428571428571,0.0004
121,1.6119401454925537,1.52895987033844,0.3269230769230769,0.8269230769230769,0.21428571428571427,0.8571428571428571,0.0004
122,1.5455426573753357,1.5287575721740723,0.3269230769230769,0.8269230769230769,0.21428571428571427,0.8571428571428571,0.0004
123,1.5414031147956848,1.5306003093719482,0.4230769230769231,0.8269230769230769,0.21428571428571427,0.8571428571428571,0.0004
124,1.5049785375595093,1.5337109565734863,0.40384615384615385,0.8269230769230769,0.21428571428571427,0.8571428571428571,0.0004
125,1.632175087928772,1.5304234027862549,0.34615384615384615,0.8269230769230769,0.21428571428571427,0.8571428571428571,0.0004
126,1.5712558031082153,1.5314531326293945,0.25,0.8269230769230769,0.21428571428571427,0.8571428571428571,0.0004
127,1.6016196012496948,1.531296730041504,0.36538461538461536,0.8269230769230769,0.21428571428571427,0.8571428571428571,0.0004
128,1.5354082584381104,1.5292232036590576,0.3076923076923077,0.8269230769230769,0.21428571428571427,0.8571428571428571,0.0004
129,1.5742376446723938,1.5316380262374878,0.4423076923076923,0.8269230769230769,0.21428571428571427,0.8571428571428571,0.0004
130,1.5549455285072327,1.529303789138794,0.38461538461538464,0.8269230769230769,0.21428571428571427,0.8571428571428571,0.0004
131,1.6058741807937622,1.531100869178772,0.2692307692307692,0.8269230769230769,0.21428571428571427,0.8571428571428571,0.0004
132,1.6063708066940308,1.5281059741973877,0.28846153846153844,0.8269230769230769,0.21428571428571427,0.8571428571428571,0.0004
133,1.5705655217170715,1.5320370197296143,0.36538461538461536,0.8269230769230769,0.21428571428571427,0.8571428571428571,0.0004
134,1.5576367378234863,1.5272014141082764,0.25,0.8269230769230769,0.21428571428571427,0.8571428571428571,0.0004
135,1.5825263261795044,1.52790367603302,0.25,0.8269230769230769,0.21428571428571427,0.8571428571428571,0.0004
136,1.5704194903373718,1.5284329652786255,0.3076923076923077,0.8269230769230769,0.21428571428571427,0.8571428571428571,0.0004
137,1.5627673864364624,1.525030255317688,0.2692307692307692,0.8269230769230769,0.21428571428571427,0.8571428571428571,0.0004
138,1.619625210762024,1.5241786241531372,0.3076923076923077,0.8269230769230769,0.21428571428571427,0.8571428571428571,0.0004
139,1.5783480405807495,1.5218698978424072,0.34615384615384615,0.8269230769230769,0.21428571428571427,0.8571428571428571,0.0004
140,1.5114222764968872,1.521863341331482,0.3269230769230769,0.8269230769230769,0.21428571428571427,0.8571428571428571,0.0004
141,1.582094669342041,1.52215576171875,0.3269230769230769,0.8269230769230769,0.21428571428571427,0.8571428571428571,0.0004
142,1.5712764859199524,1.520606517791748,0.34615384615384615,0.8269230769230769,0.21428571428571427,0.8571428571428571,0.0004
143,1.5689894556999207,1.5190876722335815,0.28846153846153844,0.8269230769230769,0.21428571428571427,0.8571428571428571,0.0004
144,1.6089476346969604,1.5183404684066772,0.3076923076923077,0.8269230769230769,0.21428571428571427,0.8571428571428571,0.0004
145,1.5621952414512634,1.517228603363037,0.38461538461538464,0.8269230769230769,0.2857142857142857,0.8571428571428571,0.0004
146,1.5654066801071167,1.5213308334350586,0.3269230769230769,0.8269230769230769,0.21428571428571427,0.8571428571428571,0.0004
147,1.659902274608612,1.5254616737365723,0.2692307692307692,0.8269230769230769,0.21428571428571427,0.8571428571428571,0.0004
148,1.6126459836959839,1.5243520736694336,0.34615384615384615,0.8269230769230769,0.21428571428571427,0.8571428571428571,0.0004
149,1.5576682686805725,1.5236331224441528,0.34615384615384615,0.8269230769230769,0.21428571428571427,0.8571428571428571,0.0004
150,1.6626759767532349,1.525504231452942,0.25,0.8269230769230769,0.21428571428571427,0.8571428571428571,0.0004
151,1.5870323777198792,1.5272800922393799,0.3076923076923077,0.8269230769230769,0.21428571428571427,0.8571428571428571,0.0004
152,1.5701626539230347,1.5300946235656738,0.3269230769230769,0.8269230769230769,0.21428571428571427,0.8571428571428571,0.0004
153,1.5343794226646423,1.5307148694992065,0.28846153846153844,0.8269230769230769,0.21428571428571427,0.8571428571428571,0.0004
154,1.602763056755066,1.532975673675537,0.38461538461538464,0.8269230769230769,0.21428571428571427,0.8571428571428571,0.0004
155,1.5728064179420471,1.5344840288162231,0.28846153846153844,0.8269230769230769,0.21428571428571427,0.8571428571428571,0.0004
156,1.5895048379898071,1.5384283065795898,0.40384615384615385,0.8269230769230769,0.21428571428571427,0.8571428571428571,0.0004
157,1.5206531286239624,1.5365444421768188,0.46153846153846156,0.8269230769230769,0.21428571428571427,0.8571428571428571,0.0004
158,1.6077120304107666,1.5356569290161133,0.3269230769230769,0.8269230769230769,0.21428571428571427,0.8571428571428571,0.0004
159,1.5499492287635803,1.5372364521026611,0.3269230769230769,0.8269230769230769,0.21428571428571427,0.8571428571428571,0.0004
160,1.56383216381073,1.5356535911560059,0.34615384615384615,0.8269230769230769,0.21428571428571427,0.8571428571428571,0.0004
161,1.5803287029266357,1.535346269607544,0.38461538461538464,0.8269230769230769,0.21428571428571427,0.8571428571428571,0.0004
162,1.5738781690597534,1.5327953100204468,0.40384615384615385,0.8269230769230769,0.21428571428571427,0.8571428571428571,0.0004
163,1.5945379734039307,1.5340155363082886,0.38461538461538464,0.8269230769230769,0.21428571428571427,0.8571428571428571,0.0004
164,1.5116004943847656,1.531914472579956,0.3076923076923077,0.8269230769230769,0.21428571428571427,0.8571428571428571,0.0004
165,1.5908154249191284,1.5304628610610962,0.3269230769230769,0.8269230769230769,0.21428571428571427,0.8571428571428571,0.0004
166,1.6394929885864258,1.5350217819213867,0.3076923076923077,0.8269230769230769,0.21428571428571427,0.8571428571428571,0.0004
167,1.5413674116134644,1.5329639911651611,0.46153846153846156,0.8269230769230769,0.21428571428571427,0.8571428571428571,0.0004
168,1.5980039834976196,1.5320215225219727,0.3076923076923077,0.8269230769230769,0.21428571428571427,0.8571428571428571,0.0004
169,1.6021628379821777,1.5279322862625122,0.19230769230769232,0.8269230769230769,0.21428571428571427,0.8571428571428571,0.0004
170,1.514858365058899,1.5290683507919312,0.3269230769230769,0.8269230769230769,0.21428571428571427,0.8571428571428571,0.0004
171,1.5480960011482239,1.5271775722503662,0.36538461538461536,0.8269230769230769,0.21428571428571427,0.8571428571428571,0.0004
172,1.5318078994750977,1.5261149406433105,0.38461538461538464,0.8269230769230769,0.21428571428571427,0.8571428571428571,0.0004
173,1.5617747902870178,1.5254359245300293,0.3076923076923077,0.8269230769230769,0.21428571428571427,0.8571428571428571,0.0004
174,1.633769929409027,1.527921199798584,0.34615384615384615,0.8269230769230769,0.21428571428571427,0.8571428571428571,0.0004
175,1.5907554626464844,1.5283361673355103,0.34615384615384615,0.8269230769230769,0.21428571428571427,0.8571428571428571,0.0004
176,1.598338782787323,1.527022361755371,0.3269230769230769,0.8269230769230769,0.21428571428571427,0.8571428571428571,0.0004
177,1.6108475923538208,1.5299005508422852,0.2692307692307692,0.8269230769230769,0.21428571428571427,0.8571428571428571,0.0004
178,1.5377687215805054,1.5304831266403198,0.3269230769230769,0.8269230769230769,0.21428571428571427,0.8571428571428571,0.0004
179,1.5700808763504028,1.5304028987884521,0.46153846153846156,0.8269230769230769,0.21428571428571427,0.8571428571428571,0.0004
180,1.6246271133422852,1.5309240818023682,0.34615384615384615,0.8269230769230769,0.21428571428571427,0.8571428571428571,0.0004
181,1.5875741243362427,1.5322721004486084,0.28846153846153844,0.8269230769230769,0.21428571428571427,0.8571428571428571,0.0004
182,1.5632003545761108,1.5327092409133911,0.28846153846153844,0.8269230769230769,0.21428571428571427,0.8571428571428571,0.0004
183,1.597224473953247,1.5312581062316895,0.34615384615384615,0.8269230769230769,0.21428571428571427,0.8571428571428571,0.0004
184,1.5263413190841675,1.5330801010131836,0.3076923076923077,0.8269230769230769,0.21428571428571427,0.8571428571428571,0.0004
185,1.5682455897331238,1.5319068431854248,0.3269230769230769,0.8269230769230769,0.21428571428571427,0.8571428571428571,0.0004
186,1.530066967010498,1.532996654510498,0.4230769230769231,0.8269230769230769,0.21428571428571427,0.8571428571428571,0.0004
187,1.5580437183380127,1.5324375629425049,0.34615384615384615,0.8269230769230769,0.21428571428571427,0.8571428571428571,0.0004
188,1.5510810017585754,1.5338826179504395,0.40384615384615385,0.8269230769230769,0.21428571428571427,0.8571428571428571,0.0004
189,1.6006129384040833,1.539419412612915,0.40384615384615385,0.8269230769230769,0.21428571428571427,0.8571428571428571,0.0004
190,1.5828768610954285,1.5248249769210815,0.4423076923076923,0.8269230769230769,0.21428571428571427,0.8571428571428571,0.0004
191,1.5750060677528381,1.5343109369277954,0.36538461538461536,0.8269230769230769,0.21428571428571427,0.8571428571428571,0.0004
192,1.5684201121330261,1.531705379486084,0.28846153846153844,0.8269230769230769,0.21428571428571427,0.8571428571428571,0.0004
193,1.582553744316101,1.5304011106491089,0.36538461538461536,0.8269230769230769,0.21428571428571427,0.8571428571428571,0.0004
194,1.5457289814949036,1.5311309099197388,0.3269230769230769,0.8269230769230769,0.21428571428571427,0.8571428571428571,0.0004
195,1.5751201510429382,1.5317552089691162,0.4230769230769231,0.8269230769230769,0.21428571428571427,0.8571428571428571,0.0004
196,1.602425992488861,1.5278689861297607,0.28846153846153844,0.8269230769230769,0.21428571428571427,0.8571428571428571,0.0004
197,1.5924434661865234,1.5259881019592285,0.3076923076923077,0.8269230769230769,0.21428571428571427,0.8571428571428571,0.0004
198,1.559887409210205,1.52772855758667,0.46153846153846156,0.8269230769230769,0.21428571428571427,0.8571428571428571,0.0004
199,1.6079198718070984,1.5252768993377686,0.2692307692307692,0.8269230769230769,0.21428571428571427,0.8571428571428571,0.0004
200,1.5726475715637207,1.5311096906661987,0.36538461538461536,0.8269230769230769,0.21428571428571427,0.8571428571428571,0.0004
201,1.5930047035217285,1.5275042057037354,0.34615384615384615,0.8269230769230769,0.21428571428571427,0.8571428571428571,0.0004
202,1.5962716341018677,1.52620530128479,0.21153846153846154,0.8269230769230769,0.21428571428571427,0.8571428571428571,0.0004
203,1.5997081398963928,1.5262563228607178,0.25,0.8269230769230769,0.21428571428571427,0.8571428571428571,0.0004
204,1.5586320161819458,1.526222586631775,0.4807692307692308,0.8269230769230769,0.21428571428571427,0.8571428571428571,0.0004
205,1.5770208835601807,1.5286685228347778,0.36538461538461536,0.8269230769230769,0.21428571428571427,0.8571428571428571,0.0004
206,1.6358606815338135,1.5273773670196533,0.17307692307692307,0.8269230769230769,0.21428571428571427,0.8571428571428571,0.0004
207,1.604461669921875,1.5250321626663208,0.36538461538461536,0.8269230769230769,0.21428571428571427,0.8571428571428571,0.0004
208,1.5925321578979492,1.529245138168335,0.3076923076923077,0.8269230769230769,0.21428571428571427,0.8571428571428571,0.0004
209,1.5265493392944336,1.530731201171875,0.38461538461538464,0.8269230769230769,0.21428571428571427,0.8571428571428571,0.0004
210,1.6158605813980103,1.5341613292694092,0.23076923076923078,0.8269230769230769,0.21428571428571427,0.8571428571428571,0.0004
211,1.5765482187271118,1.5340229272842407,0.4230769230769231,0.8269230769230769,0.21428571428571427,0.8571428571428571,0.0004
212,1.5580791234970093,1.5281944274902344,0.36538461538461536,0.8269230769230769,0.21428571428571427,0.8571428571428571,0.0004
213,1.549171268939972,1.5364755392074585,0.40384615384615385,0.8269230769230769,0.21428571428571427,0.8571428571428571,0.0004
214,1.576338529586792,1.5404994487762451,0.4423076923076923,0.8269230769230769,0.21428571428571427,0.8571428571428571,0.0004
215,1.5546867847442627,1.5264636278152466,0.3269230769230769,0.8269230769230769,0.21428571428571427,0.8571428571428571,0.0004
216,1.6131184101104736,1.5398752689361572,0.3269230769230769,0.8269230769230769,0.21428571428571427,0.8571428571428571,0.0004
217,1.5549565553665161,1.538293480873108,0.34615384615384615,0.8269230769230769,0.21428571428571427,0.8571428571428571,0.0004
218,1.5514274835586548,1.5375206470489502,0.46153846153846156,0.8269230769230769,0.21428571428571427,0.8571428571428571,0.0004
219,1.5296775698661804,1.5404242277145386,0.38461538461538464,0.8269230769230769,0.21428571428571427,0.8571428571428571,0.0004
220,1.55362868309021,1.5302157402038574,0.34615384615384615,0.8269230769230769,0.21428571428571427,0.8571428571428571,0.0004
221,1.5588340163230896,1.5366344451904297,0.4230769230769231,0.8269230769230769,0.21428571428571427,0.8571428571428571,0.0004
222,1.5789276957511902,1.531214714050293,0.2692307692307692,0.8269230769230769,0.21428571428571427,0.8571428571428571,0.0004
223,1.5314633250236511,1.5298256874084473,0.3269230769230769,0.8269230769230769,0.21428571428571427,0.8571428571428571,0.0004
224,1.543874740600586,1.5326511859893799,0.3076923076923077,0.8269230769230769,0.21428571428571427,0.8571428571428571,0.0004
225,1.5254435539245605,1.5296506881713867,0.3076923076923077,0.8269230769230769,0.21428571428571427,0.8571428571428571,0.0004
226,1.5676590204238892,1.5273000001907349,0.36538461538461536,0.8269230769230769,0.21428571428571427,0.8571428571428571,0.0004
227,1.543403446674347,1.5307912826538086,0.40384615384615385,0.8269230769230769,0.21428571428571427,0.8571428571428571,0.0004
228,1.5780450105667114,1.5256916284561157,0.28846153846153844,0.8269230769230769,0.21428571428571427,0.8571428571428571,0.0004
229,1.5608711242675781,1.524113416671753,0.28846153846153844,0.8269230769230769,0.21428571428571427,0.8571428571428571,0.0004
230,1.6130356788635254,1.525817632675171,0.28846153846153844,0.8269230769230769,0.21428571428571427,0.8571428571428571,0.0004
231,1.6041920185089111,1.5257184505462646,0.3269230769230769,0.8269230769230769,0.21428571428571427,0.8571428571428571,0.0004
232,1.559962809085846,1.5239509344100952,0.2692307692307692,0.8269230769230769,0.21428571428571427,0.8571428571428571,0.0004
233,1.6206564903259277,1.5223957300186157,0.25,0.8269230769230769,0.21428571428571427,0.8571428571428571,0.0004
234,1.5454429388046265,1.5190609693527222,0.36538461538461536,0.8269230769230769,0.21428571428571427,0.8571428571428571,0.0004
235,1.5491028428077698,1.5181883573532104,0.28846153846153844,0.8269230769230769,0.21428571428571427,0.8571428571428571,0.0004
236,1.5707130432128906,1.5044132471084595,0.3076923076923077,0.8269230769230769,0.21428571428571427,0.8571428571428571,0.0004
237,1.5764474868774414,1.509840965270996,0.3076923076923077,0.8269230769230769,0.21428571428571427,0.8571428571428571,0.0004
238,1.6253077387809753,1.5201472043991089,0.40384615384615385,0.8269230769230769,0.21428571428571427,0.8571428571428571,0.0004
239,1.5919640064239502,1.5216214656829834,0.25,0.8269230769230769,0.21428571428571427,0.8571428571428571,0.0004
240,1.5685940980911255,1.5247522592544556,0.4230769230769231,0.8269230769230769,0.21428571428571427,0.8571428571428571,0.0004
241,1.5690136551856995,1.5170509815216064,0.4423076923076923,0.8269230769230769,0.21428571428571427,0.8571428571428571,0.0004
242,1.5581429600715637,1.5348587036132812,0.40384615384615385,0.8269230769230769,0.21428571428571427,0.8571428571428571,0.0004
243,1.6132472157478333,1.531221628189087,0.34615384615384615,0.8269230769230769,0.21428571428571427,0.8571428571428571,0.0004
244,1.551808774471283,1.5355651378631592,0.36538461538461536,0.8269230769230769,0.21428571428571427,0.8571428571428571,0.0004
245,1.629574477672577,1.5368030071258545,0.3269230769230769,0.8269230769230769,0.21428571428571427,0.8571428571428571,0.0004
246,1.552511215209961,1.5351877212524414,0.40384615384615385,0.8269230769230769,0.21428571428571427,0.8571428571428571,0.0004
247,1.58315509557724,1.541325330734253,0.3076923076923077,0.8269230769230769,0.21428571428571427,0.8571428571428571,0.0004
248,1.6140830516815186,1.535946249961853,0.3269230769230769,0.8269230769230769,0.21428571428571427,0.8571428571428571,0.0004
249,1.5969989895820618,1.5347440242767334,0.34615384615384615,0.8269230769230769,0.21428571428571427,0.8571428571428571,0.0004
250,1.5244961380958557,1.532981276512146,0.25,0.8269230769230769,0.21428571428571427,0.8571428571428571,0.0004
251,1.6054324507713318,1.5393620729446411,0.3076923076923077,0.8269230769230769,0.21428571428571427,0.8571428571428571,0.0004
252,1.6090099811553955,1.5423270463943481,0.28846153846153844,0.8269230769230769,0.21428571428571427,0.8571428571428571,0.0004
253,1.5404784083366394,1.5376118421554565,0.38461538461538464,0.8269230769230769,0.21428571428571427,0.8571428571428571,0.0004
254,1.57069593667984,1.5388684272766113,0.2692307692307692,0.8269230769230769,0.21428571428571427,0.8571428571428571,0.0004
255,1.574558973312378,1.5367392301559448,0.4230769230769231,0.8269230769230769,0.21428571428571427,0.8571428571428571,0.0004
256,1.5790286660194397,1.5377702713012695,0.40384615384615385,0.8269230769230769,0.21428571428571427,0.8571428571428571,0.0004
257,1.5573135614395142,1.5331196784973145,0.34615384615384615,0.8269230769230769,0.21428571428571427,0.8571428571428571,0.0004
258,1.5670400857925415,1.515740156173706,0.23076923076923078,0.8269230769230769,0.21428571428571427,0.8571428571428571,0.0004
259,1.5547248721122742,1.5377293825149536,0.34615384615384615,0.8269230769230769,0.21428571428571427,0.8571428571428571,0.0004
260,1.561911702156067,1.5351085662841797,0.4423076923076923,0.8269230769230769,0.21428571428571427,0.8571428571428571,0.0004
261,1.6105680465698242,1.5353606939315796,0.3076923076923077,0.8269230769230769,0.21428571428571427,0.8571428571428571,0.0004
262,1.558792233467102,1.532930850982666,0.34615384615384615,0.8269230769230769,0.21428571428571427,0.8571428571428571,0.0004
263,1.5326261520385742,1.5346132516860962,0.3269230769230769,0.8269230769230769,0.21428571428571427,0.8571428571428571,0.0004
264,1.5531131029129028,1.5343186855316162,0.3269230769230769,0.8269230769230769,0.21428571428571427,0.8571428571428571,0.0004
265,1.6201237440109253,1.5339478254318237,0.28846153846153844,0.8269230769230769,0.21428571428571427,0.8571428571428571,0.0004
266,1.5611522197723389,1.5325920581817627,0.38461538461538464,0.8269230769230769,0.21428571428571427,0.8571428571428571,0.0004
267,1.54302978515625,1.5314056873321533,0.3269230769230769,0.8269230769230769,0.21428571428571427,0.8571428571428571,0.0004
268,1.5259872674942017,1.5354301929473877,0.46153846153846156,0.8269230769230769,0.21428571428571427,0.8571428571428571,0.0004
269,1.5997198820114136,1.5279459953308105,0.34615384615384615,0.8269230769230769,0.21428571428571427,0.8571428571428571,0.0004
270,1.584286391735077,1.5310635566711426,0.28846153846153844,0.8269230769230769,0.21428571428571427,0.8571428571428571,0.0004
271,1.5621917843818665,1.5239129066467285,0.36538461538461536,0.8269230769230769,0.21428571428571427,0.8571428571428571,0.0004
272,1.589733600616455,1.5069926977157593,0.28846153846153844,0.8269230769230769,0.21428571428571427,0.8571428571428571,0.0004
273,1.5537164807319641,1.5258456468582153,0.28846153846153844,0.8269230769230769,0.21428571428571427,0.8571428571428571,0.0004
274,1.5361039638519287,1.5223438739776611,0.36538461538461536,0.8269230769230769,0.21428571428571427,0.8571428571428571,0.0004
275,1.579058825969696,1.5282024145126343,0.3076923076923077,0.8269230769230769,0.21428571428571427,0.8571428571428571,0.0004
276,1.5948257446289062,1.5319468975067139,0.19230769230769232,0.8269230769230769,0.21428571428571427,0.8571428571428571,0.0004
277,1.553600788116455,1.528831958770752,0.36538461538461536,0.8269230769230769,0.21428571428571427,0.8571428571428571,0.0004
278,1.5055456161499023,1.526245355606079,0.36538461538461536,0.8269230769230769,0.21428571428571427,0.8571428571428571,0.0004
279,1.5696404576301575,1.52840256690979,0.36538461538461536,0.8269230769230769,0.21428571428571427,0.8571428571428571,0.0004
280,1.5534536838531494,1.5309208631515503,0.4423076923076923,0.8269230769230769,0.21428571428571427,0.8571428571428571,0.0004
281,1.5159572958946228,1.5330501794815063,0.4230769230769231,0.8269230769230769,0.21428571428571427,0.8571428571428571,0.0004
282,1.5526936054229736,1.529444694519043,0.38461538461538464,0.8269230769230769,0.21428571428571427,0.8571428571428571,0.0004
283,1.584872305393219,1.5127536058425903,0.34615384615384615,0.8269230769230769,0.21428571428571427,0.8571428571428571,0.0004
284,1.6415157914161682,1.5146410465240479,0.25,0.8269230769230769,0.21428571428571427,0.8571428571428571,0.0004
285,1.554920494556427,1.5158534049987793,0.40384615384615385,0.8269230769230769,0.21428571428571427,0.8571428571428571,0.0004
286,1.5522054433822632,1.497937798500061,0.36538461538461536,0.8269230769230769,0.21428571428571427,0.8571428571428571,0.0004
287,1.5647854804992676,1.4916605949401855,0.3076923076923077,0.8269230769230769,0.21428571428571427,0.8571428571428571,0.0004
288,1.577872097492218,1.5156786441802979,0.4230769230769231,0.8269230769230769,0.2857142857142857,0.8571428571428571,0.0004
289,1.5565420985221863,1.5279731750488281,0.38461538461538464,0.8269230769230769,0.21428571428571427,0.8571428571428571,0.0004
290,1.519856870174408,1.5065979957580566,0.3076923076923077,0.8269230769230769,0.21428571428571427,0.8571428571428571,0.0004
291,1.578330934047699,1.53519868850708,0.3269230769230769,0.8269230769230769,0.21428571428571427,0.8571428571428571,0.0004
292,1.5578952431678772,1.5083856582641602,0.38461538461538464,0.8269230769230769,0.21428571428571427,0.8571428571428571,0.0004
293,1.4998586177825928,1.512657642364502,0.4423076923076923,0.8269230769230769,0.42857142857142855,0.8571428571428571,0.0004
294,1.581057846546173,1.5073858499526978,0.3269230769230769,0.8269230769230769,0.5,0.8571428571428571,0.0004
295,1.5657496452331543,1.4856842756271362,0.5192307692307693,0.8269230769230769,0.5,0.8571428571428571,0.0004
296,1.480256199836731,1.4795730113983154,0.36538461538461536,0.8269230769230769,0.5714285714285714,0.8571428571428571,0.0004
297,1.566075325012207,1.5525530576705933,0.46153846153846156,0.8269230769230769,0.5,0.8571428571428571,0.0004
298,1.594382405281067,1.6615291833877563,0.4423076923076923,0.8269230769230769,0.35714285714285715,0.8571428571428571,0.0004
299,1.6843755841255188,1.7042144536972046,0.38461538461538464,0.8269230769230769,0.21428571428571427,0.8571428571428571,0.0004
300,1.700150728225708,1.6401352882385254,0.38461538461538464,0.8269230769230769,0.2857142857142857,0.8571428571428571,0.0004
301,1.6303205490112305,1.604095220565796,0.40384615384615385,0.8269230769230769,0.2857142857142857,0.8571428571428571,0.0004
302,1.4940196871757507,1.5964643955230713,0.4230769230769231,0.8269230769230769,0.21428571428571427,0.8571428571428571,0.0004
303,1.5264092087745667,1.5260124206542969,0.40384615384615385,0.8269230769230769,0.35714285714285715,0.8571428571428571,0.0004
304,1.5704547762870789,1.5136528015136719,0.4807692307692308,0.8269230769230769,0.35714285714285715,0.8571428571428571,0.0004
305,1.545087456703186,1.5619292259216309,0.38461538461538464,0.8269230769230769,0.21428571428571427,0.8571428571428571,0.0004
306,1.548427939414978,1.5560367107391357,0.3269230769230769,0.8269230769230769,0.21428571428571427,0.8571428571428571,0.0004
307,1.54545658826828,1.5546008348464966,0.40384615384615385,0.8269230769230769,0.21428571428571427,0.8571428571428571,0.0004
308,1.5498427152633667,1.5470610857009888,0.3076923076923077,0.8269230769230769,0.21428571428571427,0.8571428571428571,0.0004
309,1.5845736861228943,1.53946053981781,0.4423076923076923,0.8269230769230769,0.21428571428571427,0.8571428571428571,0.0004
310,1.5570671558380127,1.5314443111419678,0.2692307692307692,0.8269230769230769,0.21428571428571427,0.8571428571428571,0.0004
311,1.6363677382469177,1.5038105249404907,0.4423076923076923,0.8269230769230769,0.21428571428571427,0.8571428571428571,0.0004
312,1.5520401000976562,1.5203375816345215,0.34615384615384615,0.8269230769230769,0.42857142857142855,0.8571428571428571,0.0004
313,1.5672171711921692,1.5174026489257812,0.25,0.8269230769230769,0.42857142857142855,0.8571428571428571,0.0004
314,1.5484702587127686,1.5135940313339233,0.38461538461538464,0.8269230769230769,0.42857142857142855,0.8571428571428571,0.0004
315,1.5682438611984253,1.5127630233764648,0.4230769230769231,0.8269230769230769,0.42857142857142855,0.8571428571428571,0.0004
316,1.5667462348937988,1.5034691095352173,0.3269230769230769,0.8269230769230769,0.42857142857142855,0.8571428571428571,0.0004
317,1.57082998752594,1.502034306526184,0.3269230769230769,0.8269230769230769,0.42857142857142855,0.8571428571428571,0.0004
318,1.520002543926239,1.5106972455978394,0.36538461538461536,0.8269230769230769,0.35714285714285715,0.8571428571428571,0.0004
319,1.5589431524276733,1.5124610662460327,0.40384615384615385,0.8269230769230769,0.42857142857142855,0.8571428571428571,0.0004
320,1.593448281288147,1.518223762512207,0.28846153846153844,0.8269230769230769,0.2857142857142857,0.8571428571428571,0.0004
321,1.5431551933288574,1.518982172012329,0.3076923076923077,0.8269230769230769,0.21428571428571427,0.8571428571428571,0.0004
322,1.5640737414360046,1.519861102104187,0.3076923076923077,0.8269230769230769,0.21428571428571427,0.8571428571428571,0.0004
323,1.5606403350830078,1.5248277187347412,0.40384615384615385,0.8269230769230769,0.21428571428571427,0.8571428571428571,0.0004
324,1.5862945914268494,1.5235366821289062,0.3269230769230769,0.8269230769230769,0.21428571428571427,0.8571428571428571,0.0004
325,1.5983517169952393,1.5180000066757202,0.46153846153846156,0.8269230769230769,0.21428571428571427,0.8571428571428571,0.0004
326,1.6094492673873901,1.528241753578186,0.28846153846153844,0.8269230769230769,0.21428571428571427,0.8571428571428571,0.0004
327,1.5840604305267334,1.521817922592163,0.34615384615384615,0.8269230769230769,0.21428571428571427,0.8571428571428571,0.0004
328,1.5814377069473267,1.5257493257522583,0.4230769230769231,0.8269230769230769,0.2857142857142857,0.8571428571428571,0.0004
329,1.6032183170318604,1.5373258590698242,0.3269230769230769,0.8269230769230769,0.21428571428571427,0.8571428571428571,0.0004
330,1.47776859998703,1.5355267524719238,0.4230769230769231,0.8269230769230769,0.21428571428571427,0.8571428571428571,0.0004
331,1.6042625904083252,1.5327181816101074,0.23076923076923078,0.8269230769230769,0.21428571428571427,0.8571428571428571,0.0004
332,1.5880255699157715,1.536484956741333,0.3269230769230769,0.8269230769230769,0.21428571428571427,0.8571428571428571,0.0004
333,1.6156014204025269,1.5389882326126099,0.3076923076923077,0.8269230769230769,0.21428571428571427,0.8571428571428571,0.0004
334,1.5588017702102661,1.543609619140625,0.36538461538461536,0.8269230769230769,0.21428571428571427,0.8571428571428571,0.0004
335,1.5460952520370483,1.5367166996002197,0.38461538461538464,0.8269230769230769,0.21428571428571427,0.8571428571428571,0.0004
336,1.624110758304596,1.5365817546844482,0.38461538461538464,0.8269230769230769,0.21428571428571427,0.8571428571428571,0.0004
337,1.5307520627975464,1.5245529413223267,0.34615384615384615,0.8269230769230769,0.2857142857142857,0.8571428571428571,0.0004
338,1.5885744094848633,1.529475450515747,0.38461538461538464,0.8269230769230769,0.21428571428571427,0.8571428571428571,0.0004
339,1.508739709854126,1.5108811855316162,0.34615384615384615,0.8269230769230769,0.2857142857142857,0.8571428571428571,0.0004
340,1.5529902577400208,1.5290437936782837,0.3269230769230769,0.8269230769230769,0.21428571428571427,0.8571428571428571,0.0004
341,1.5949153304100037,1.5198426246643066,0.36538461538461536,0.8269230769230769,0.2857142857142857,0.8571428571428571,0.0004
342,1.5492565631866455,1.5075794458389282,0.36538461538461536,0.8269230769230769,0.21428571428571427,0.8571428571428571,0.0004
343,1.509780764579773,1.5250440835952759,0.34615384615384615,0.8269230769230769,0.21428571428571427,0.8571428571428571,0.0004
344,1.5202945470809937,1.5138440132141113,0.40384615384615385,0.8269230769230769,0.2857142857142857,0.8571428571428571,0.0004
345,1.5644158124923706,1.5173513889312744,0.36538461538461536,0.8269230769230769,0.21428571428571427,0.8571428571428571,0.0004
346,1.569825828075409,1.5275520086288452,0.40384615384615385,0.8269230769230769,0.21428571428571427,0.8571428571428571,0.0004
347,1.5199185609817505,1.5188672542572021,0.38461538461538464,0.8269230769230769,0.2857142857142857,0.8571428571428571,0.0004
348,1.5882805585861206,1.5277776718139648,0.3076923076923077,0.8269230769230769,0.21428571428571427,0.8571428571428571,0.0004
349,1.5484617948532104,1.5262908935546875,0.40384615384615385,0.8269230769230769,0.21428571428571427,0.8571428571428571,0.0004
350,1.6163690090179443,1.5342531204223633,0.3076923076923077,0.8269230769230769,0.21428571428571427,0.8571428571428571,0.0004
351,1.6359883546829224,1.5329420566558838,0.25,0.8269230769230769,0.21428571428571427,0.8571428571428571,0.0004
352,1.5786951184272766,1.5433741807937622,0.36538461538461536,0.8269230769230769,0.21428571428571427,0.8571428571428571,0.0004
353,1.5144124031066895,1.535034418106079,0.36538461538461536,0.8269230769230769,0.21428571428571427,0.8571428571428571,0.0004
354,1.5562497973442078,1.5317631959915161,0.38461538461538464,0.8269230769230769,0.21428571428571427,0.8571428571428571,0.0004
355,1.5635886192321777,1.5312304496765137,0.34615384615384615,0.8269230769230769,0.21428571428571427,0.8571428571428571,0.0004
356,1.5363000631332397,1.5388610363006592,0.4230769230769231,0.8269230769230769,0.21428571428571427,0.8571428571428571,0.0004
357,1.5298502445220947,1.5210442543029785,0.34615384615384615,0.8269230769230769,0.21428571428571427,0.8571428571428571,0.0004
358,1.623071312904358,1.5331974029541016,0.36538461538461536,0.8269230769230769,0.21428571428571427,0.8571428571428571,0.0004
359,1.5456598997116089,1.5410373210906982,0.25,0.8269230769230769,0.21428571428571427,0.8571428571428571,0.0004
360,1.5255537629127502,1.5370759963989258,0.34615384615384615,0.8269230769230769,0.21428571428571427,0.8571428571428571,0.0004
361,1.5359330773353577,1.5368833541870117,0.4230769230769231,0.8269230769230769,0.21428571428571427,0.8571428571428571,0.0004
362,1.534271776676178,1.5396311283111572,0.34615384615384615,0.8269230769230769,0.21428571428571427,0.8571428571428571,0.0004
363,1.5567567348480225,1.5430543422698975,0.36538461538461536,0.8269230769230769,0.21428571428571427,0.8571428571428571,0.0004
364,1.5799949169158936,1.5297845602035522,0.34615384615384615,0.8269230769230769,0.21428571428571427,0.8571428571428571,0.0004
365,1.5911344289779663,1.522313117980957,0.3076923076923077,0.8269230769230769,0.2857142857142857,0.8571428571428571,0.0004
366,1.5581295490264893,1.5332281589508057,0.3076923076923077,0.8269230769230769,0.21428571428571427,0.8571428571428571,0.0004
367,1.5300731658935547,1.5347988605499268,0.38461538461538464,0.8269230769230769,0.21428571428571427,0.8571428571428571,0.0004
368,1.5997483730316162,1.532547950744629,0.3076923076923077,0.8269230769230769,0.21428571428571427,0.8571428571428571,0.0004
369,1.5396791696548462,1.5266547203063965,0.2692307692307692,0.8269230769230769,0.21428571428571427,0.8571428571428571,0.0004
370,1.5009474158287048,1.5457024574279785,0.36538461538461536,0.8269230769230769,0.21428571428571427,0.8571428571428571,0.0004
371,1.5343154072761536,1.5373742580413818,0.36538461538461536,0.8269230769230769,0.21428571428571427,0.8571428571428571,0.0004
372,1.542419672012329,1.5172474384307861,0.46153846153846156,0.8269230769230769,0.2857142857142857,0.8571428571428571,0.0004
373,1.5965543389320374,1.5266220569610596,0.36538461538461536,0.8269230769230769,0.21428571428571427,0.8571428571428571,0.0004
374,1.579323172569275,1.5302846431732178,0.3076923076923077,0.8269230769230769,0.21428571428571427,0.8571428571428571,0.0004
375,1.6082630157470703,1.5266311168670654,0.28846153846153844,0.8269230769230769,0.21428571428571427,0.8571428571428571,0.0004
376,1.5317522287368774,1.5323177576065063,0.3269230769230769,0.8269230769230769,0.21428571428571427,0.8571428571428571,0.0004
377,1.555442214012146,1.5357831716537476,0.3269230769230769,0.8269230769230769,0.21428571428571427,0.8571428571428571,0.0004
378,1.5567401051521301,1.5423450469970703,0.3269230769230769,0.8269230769230769,0.21428571428571427,0.8571428571428571,0.0004
379,1.5543211698532104,1.5335243940353394,0.34615384615384615,0.8269230769230769,0.21428571428571427,0.8571428571428571,0.0004
380,1.5680714845657349,1.535158395767212,0.36538461538461536,0.8269230769230769,0.21428571428571427,0.8571428571428571,0.0004
381,1.596859633922577,1.5352668762207031,0.28846153846153844,0.8269230769230769,0.21428571428571427,0.8571428571428571,0.0004
382,1.5776039958000183,1.534519076347351,0.34615384615384615,0.8269230769230769,0.21428571428571427,0.8571428571428571,0.0004
383,1.597851276397705,1.5219892263412476,0.34615384615384615,0.8269230769230769,0.21428571428571427,0.8571428571428571,0.0004
384,1.5629523992538452,1.5282270908355713,0.23076923076923078,0.8269230769230769,0.21428571428571427,0.8571428571428571,0.0004
385,1.5399187803268433,1.5489230155944824,0.40384615384615385,0.8269230769230769,0.21428571428571427,0.8571428571428571,0.0004
386,1.594388484954834,1.537420392036438,0.34615384615384615,0.8269230769230769,0.21428571428571427,0.8571428571428571,0.0004
387,1.582466959953308,1.5330820083618164,0.34615384615384615,0.8269230769230769,0.21428571428571427,0.8571428571428571,0.0004
388,1.5361101031303406,1.516616940498352,0.2692307692307692,0.8269230769230769,0.2857142857142857,0.8571428571428571,0.0004
389,1.5644807815551758,1.509540319442749,0.3269230769230769,0.8269230769230769,0.2857142857142857,0.8571428571428571,0.0004
390,1.509367823600769,1.5093159675598145,0.38461538461538464,0.8269230769230769,0.2857142857142857,0.8571428571428571,0.0004
391,1.620101273059845,1.51924729347229,0.23076923076923078,0.8269230769230769,0.2857142857142857,0.8571428571428571,0.0004
392,1.5852025747299194,1.520686388015747,0.28846153846153844,0.8269230769230769,0.2857142857142857,0.8571428571428571,0.0004
393,1.561949908733368,1.505574345588684,0.38461538461538464,0.8269230769230769,0.42857142857142855,0.8571428571428571,0.0004
394,1.5601585507392883,1.510702133178711,0.34615384615384615,0.8269230769230769,0.21428571428571427,0.8571428571428571,0.0004
395,1.5721991062164307,1.5228718519210815,0.38461538461538464,0.8269230769230769,0.21428571428571427,0.8571428571428571,0.0004
396,1.522821307182312,1.550308346748352,0.4230769230769231,0.8269230769230769,0.21428571428571427,0.8571428571428571,0.0004
397,1.5174477100372314,1.5643844604492188,0.46153846153846156,0.8269230769230769,0.21428571428571427,0.8571428571428571,0.0004
398,1.5430580377578735,1.5625336170196533,0.36538461538461536,0.8269230769230769,0.21428571428571427,0.8571428571428571,0.0004
399,1.5270665884017944,1.5386594533920288,0.4230769230769231,0.8269230769230769,0.21428571428571427,0.8571428571428571,0.0004
400,1.5669676065444946,1.544363260269165,0.4230769230769231,0.8269230769230769,0.21428571428571427,0.8571428571428571,0.0004
401,1.6022083759307861,1.5513763427734375,0.28846153846153844,0.8269230769230769,0.21428571428571427,0.8571428571428571,0.0004
402,1.6029918193817139,1.5533894300460815,0.34615384615384615,0.8269230769230769,0.21428571428571427,0.8571428571428571,0.0004
403,1.5775273442268372,1.5308743715286255,0.3076923076923077,0.8269230769230769,0.21428571428571427,0.8571428571428571,0.0004
404,1.5514298677444458,1.506302833557129,0.3269230769230769,0.8269230769230769,0.2857142857142857,0.8571428571428571,0.0004
405,1.5222527980804443,1.5383154153823853,0.4230769230769231,0.8269230769230769,0.21428571428571427,0.8571428571428571,0.0004
406,1.6004268527030945,1.5614339113235474,0.3076923076923077,0.8269230769230769,0.21428571428571427,0.8571428571428571,0.0004
407,1.5208866596221924,1.5579379796981812,0.34615384615384615,0.8269230769230769,0.21428571428571427,0.8571428571428571,0.0004
408,1.5748943090438843,1.5705764293670654,0.40384615384615385,0.8269230769230769,0.21428571428571427,0.8571428571428571,0.0004
409,1.575210988521576,1.5520281791687012,0.40384615384615385,0.8269230769230769,0.21428571428571427,0.8571428571428571,0.0004
410,1.536802887916565,1.5294077396392822,0.36538461538461536,0.8269230769230769,0.21428571428571427,0.8571428571428571,0.0004
411,1.5979036688804626,1.553585410118103,0.34615384615384615,0.8269230769230769,0.21428571428571427,0.8571428571428571,0.0004
412,1.5713247060775757,1.5484966039657593,0.38461538461538464,0.8269230769230769,0.21428571428571427,0.8571428571428571,0.0004
413,1.5263761281967163,1.543620228767395,0.38461538461538464,0.8269230769230769,0.21428571428571427,0.8571428571428571,0.0004
414,1.5917302966117859,1.5406540632247925,0.3076923076923077,0.8269230769230769,0.21428571428571427,0.8571428571428571,0.0004
415,1.537651538848877,1.5463542938232422,0.3076923076923077,0.8269230769230769,0.35714285714285715,0.8571428571428571,0.0004
416,1.5884495377540588,1.518428087234497,0.36538461538461536,0.8269230769230769,0.21428571428571427,0.8571428571428571,0.0004
417,1.553455412387848,1.5196316242218018,0.3076923076923077,0.8269230769230769,0.2857142857142857,0.8571428571428571,0.0004
418,1.5677299499511719,1.5428259372711182,0.3269230769230769,0.8269230769230769,0.07142857142857142,0.8571428571428571,0.0004
419,1.5753082633018494,1.5126328468322754,0.3076923076923077,0.8269230769230769,0.21428571428571427,0.8571428571428571,0.0004
420,1.4995865225791931,1.5142349004745483,0.40384615384615385,0.8269230769230769,0.35714285714285715,0.8571428571428571,0.0004
421,1.4958085417747498,1.5076181888580322,0.3269230769230769,0.8269230769230769,0.2857142857142857,0.8571428571428571,0.0004
422,1.5732835531234741,1.5300015211105347,0.40384615384615385,0.8269230769230769,0.35714285714285715,0.8571428571428571,0.0004
423,1.5165246725082397,1.512110710144043,0.25,0.8269230769230769,0.35714285714285715,0.8571428571428571,0.0004
424,1.5991570949554443,1.5162129402160645,0.40384615384615385,0.8269230769230769,0.35714285714285715,0.8571428571428571,0.0004
425,1.5182772278785706,1.5129350423812866,0.3269230769230769,0.8269230769230769,0.35714285714285715,0.8571428571428571,0.0004
426,1.523478925228119,1.5022307634353638,0.5192307692307693,0.8269230769230769,0.42857142857142855,0.8571428571428571,0.0004
427,1.5429601669311523,1.4959325790405273,0.5,0.8269230769230769,0.42857142857142855,0.8571428571428571,0.0004
428,1.5711358189582825,1.5058237314224243,0.38461538461538464,0.8269230769230769,0.2857142857142857,0.8571428571428571,0.0004
429,1.5637041330337524,1.5104774236679077,0.4230769230769231,0.8269230769230769,0.35714285714285715,0.8571428571428571,0.0004
430,1.5652289986610413,1.5020900964736938,0.36538461538461536,0.8269230769230769,0.5,0.8571428571428571,0.0004
431,1.5421645641326904,1.4878743886947632,0.46153846153846156,0.8269230769230769,0.2857142857142857,0.8571428571428571,0.0004
432,1.576397716999054,1.5150889158248901,0.28846153846153844,0.8269230769230769,0.35714285714285715,0.8571428571428571,0.0004
433,1.5746488571166992,1.5205998420715332,0.4230769230769231,0.8269230769230769,0.2857142857142857,0.8571428571428571,0.0004
434,1.5937442183494568,1.4966257810592651,0.38461538461538464,0.8269230769230769,0.21428571428571427,0.8571428571428571,0.0004
435,1.5333470702171326,1.5288586616516113,0.38461538461538464,0.8269230769230769,0.21428571428571427,0.8571428571428571,0.0004
436,1.513299584388733,1.5206704139709473,0.28846153846153844,0.8269230769230769,0.21428571428571427,0.8571428571428571,0.0004
437,1.547188401222229,1.5059058666229248,0.3269230769230769,0.8269230769230769,0.21428571428571427,0.8571428571428571,0.0004
438,1.5468021035194397,1.5377488136291504,0.40384615384615385,0.8269230769230769,0.21428571428571427,0.8571428571428571,0.0004
439,1.5590158104896545,1.5310628414154053,0.4230769230769231,0.8269230769230769,0.21428571428571427,0.8571428571428571,0.0004
440,1.5540416240692139,1.5104793310165405,0.3269230769230769,0.8269230769230769,0.2857142857142857,0.8571428571428571,0.0004
441,1.5543161034584045,1.5351073741912842,0.46153846153846156,0.8269230769230769,0.21428571428571427,0.8571428571428571,0.0004
442,1.5623902678489685,1.525651454925537,0.38461538461538464,0.8269230769230769,0.2857142857142857,0.8571428571428571,0.0004
443,1.5811100006103516,1.5075359344482422,0.40384615384615385,0.8269230769230769,0.21428571428571427,0.8571428571428571,0.0004
444,1.552687168121338,1.5144258737564087,0.25,0.8269230769230769,0.21428571428571427,0.8571428571428571,0.0004
445,1.573345959186554,1.5231705904006958,0.3076923076923077,0.8269230769230769,0.21428571428571427,0.8571428571428571,0.0004
446,1.5641597509384155,1.5091825723648071,0.40384615384615385,0.8269230769230769,0.2857142857142857,0.8571428571428571,0.0004
447,1.4719162583351135,1.517895221710205,0.40384615384615385,0.8269230769230769,0.2857142857142857,0.8571428571428571,0.0004
448,1.5537334084510803,1.5104116201400757,0.36538461538461536,0.8269230769230769,0.2857142857142857,0.8571428571428571,0.0004
449,1.533383309841156,1.5134493112564087,0.4807692307692308,0.8269230769230769,0.2857142857142857,0.8571428571428571,0.0004
450,1.5272853374481201,1.538154125213623,0.5192307692307693,0.8269230769230769,0.21428571428571427,0.8571428571428571,0.0004
451,1.5612172484397888,1.5249463319778442,0.3269230769230769,0.8269230769230769,0.21428571428571427,0.8571428571428571,0.0004
452,1.550891101360321,1.523747205734253,0.40384615384615385,0.8269230769230769,0.21428571428571427,0.8571428571428571,0.0004
453,1.5237783789634705,1.5317068099975586,0.38461538461538464,0.8269230769230769,0.14285714285714285,0.8571428571428571,0.0004
454,1.5518868565559387,1.5298881530761719,0.4230769230769231,0.8269230769230769,0.21428571428571427,0.8571428571428571,0.0004
455,1.509508490562439,1.5218610763549805,0.4230769230769231,0.8269230769230769,0.2857142857142857,0.8571428571428571,0.0004
456,1.5329937934875488,1.470454216003418,0.38461538461538464,0.8269230769230769,0.2857142857142857,0.8571428571428571,0.0004
457,1.5777149200439453,1.511610984802246,0.46153846153846156,0.8269230769230769,0.2857142857142857,0.8571428571428571,0.0004
458,1.4903686046600342,1.5248816013336182,0.4423076923076923,0.8269230769230769,0.2857142857142857,0.8571428571428571,0.0004
459,1.5719183683395386,1.5280139446258545,0.28846153846153844,0.8269230769230769,0.21428571428571427,0.8571428571428571,0.0004
460,1.5431735515594482,1.539245843887329,0.4230769230769231,0.8269230769230769,0.21428571428571427,0.8571428571428571,0.0004
461,1.5146756768226624,1.520058035850525,0.36538461538461536,0.8269230769230769,0.2857142857142857,0.8571428571428571,0.0004
462,1.5240354537963867,1.53656005859375,0.4423076923076923,0.8269230769230769,0.21428571428571427,0.8571428571428571,0.0004
463,1.5473772883415222,1.5072064399719238,0.40384615384615385,0.8269230769230769,0.42857142857142855,0.8571428571428571,0.0004
464,1.5190877318382263,1.4806981086730957,0.38461538461538464,0.8269230769230769,0.2857142857142857,0.8571428571428571,0.0004
465,1.5816839933395386,1.4864144325256348,0.28846153846153844,0.8269230769230769,0.2857142857142857,0.8571428571428571,0.0004
466,1.5703524351119995,1.503300666809082,0.3269230769230769,0.8269230769230769,0.35714285714285715,0.8571428571428571,0.0004
467,1.4946652054786682,1.5297387838363647,0.36538461538461536,0.8269230769230769,0.21428571428571427,0.8571428571428571,0.0004
468,1.5529074668884277,1.5137848854064941,0.4230769230769231,0.8269230769230769,0.21428571428571427,0.8571428571428571,0.0004
469,1.5089043974876404,1.4915783405303955,0.5,0.8269230769230769,0.35714285714285715,0.8571428571428571,0.0004
470,1.5762110948562622,1.5353665351867676,0.5192307692307693,0.8269230769230769,0.2857142857142857,0.8571428571428571,0.0004
471,1.5956649780273438,1.5202538967132568,0.36538461538461536,0.8269230769230769,0.5,0.8571428571428571,0.0004
472,1.570907175540924,1.4992256164550781,0.36538461538461536,0.8269230769230769,0.2857142857142857,0.8571428571428571,0.0004
473,1.4899086952209473,1.5230388641357422,0.4230769230769231,0.8269230769230769,0.2857142857142857,0.8571428571428571,0.0004
474,1.522053837776184,1.5429744720458984,0.40384615384615385,0.8269230769230769,0.2857142857142857,0.8571428571428571,0.0004
475,1.578906238079071,1.5582363605499268,0.40384615384615385,0.8269230769230769,0.21428571428571427,0.8571428571428571,0.0004
476,1.518904983997345,1.5251727104187012,0.36538461538461536,0.8269230769230769,0.35714285714285715,0.8571428571428571,0.0004
477,1.5037297010421753,1.4856462478637695,0.40384615384615385,0.8269230769230769,0.42857142857142855,0.8571428571428571,0.0004
478,1.5534551739692688,1.4974377155303955,0.40384615384615385,0.8269230769230769,0.42857142857142855,0.8571428571428571,0.0004
479,1.484704613685608,1.4945170879364014,0.4230769230769231,0.8269230769230769,0.5,0.8571428571428571,0.0004
480,1.5442688465118408,1.5041404962539673,0.3269230769230769,0.8269230769230769,0.42857142857142855,0.8571428571428571,0.0004
481,1.5450040102005005,1.489673376083374,0.38461538461538464,0.8269230769230769,0.42857142857142855,0.8571428571428571,0.0004
482,1.578300952911377,1.5176501274108887,0.4807692307692308,0.8269230769230769,0.42857142857142855,0.8571428571428571,0.0004
483,1.5381409525871277,1.5154550075531006,0.34615384615384615,0.8269230769230769,0.42857142857142855,0.8571428571428571,0.0004
484,1.529398798942566,1.4706777334213257,0.34615384615384615,0.8269230769230769,0.35714285714285715,0.8571428571428571,0.0004
485,1.5196701884269714,1.478493332862854,0.46153846153846156,0.8269230769230769,0.5,0.8571428571428571,0.0004
486,1.5725300312042236,1.4855972528457642,0.34615384615384615,0.8269230769230769,0.35714285714285715,0.8571428571428571,0.0004
487,1.5621702671051025,1.5255529880523682,0.36538461538461536,0.8269230769230769,0.21428571428571427,0.8571428571428571,0.0004
488,1.5305184721946716,1.5433201789855957,0.3076923076923077,0.8269230769230769,0.14285714285714285,0.8571428571428571,0.0004
489,1.5992653965950012,1.4874811172485352,0.3076923076923077,0.8269230769230769,0.2857142857142857,0.8571428571428571,0.0004
490,1.5413815379142761,1.5031077861785889,0.28846153846153844,0.8269230769230769,0.35714285714285715,0.8571428571428571,0.0004
491,1.525754988193512,1.497361421585083,0.36538461538461536,0.8269230769230769,0.2857142857142857,0.8571428571428571,0.0004
492,1.5085203647613525,1.4528272151947021,0.2692307692307692,0.8269230769230769,0.35714285714285715,0.8571428571428571,0.0004
493,1.5130959153175354,1.4966835975646973,0.36538461538461536,0.8269230769230769,0.35714285714285715,0.8571428571428571,0.0004
494,1.5037426948547363,1.4851945638656616,0.34615384615384615,0.8269230769230769,0.42857142857142855,0.8571428571428571,0.0004
495,1.5653653740882874,1.4281418323516846,0.3269230769230769,0.8269230769230769,0.5714285714285714,0.8571428571428571,0.0004
496,1.5522615313529968,1.4794390201568604,0.36538461538461536,0.8269230769230769,0.42857142857142855,0.8571428571428571,0.0004
497,1.5468773245811462,1.4959019422531128,0.40384615384615385,0.8269230769230769,0.42857142857142855,0.8571428571428571,0.0004
498,1.5043758153915405,1.4470880031585693,0.34615384615384615,0.8269230769230769,0.42857142857142855,0.8571428571428571,0.0004
499,1.5257957577705383,1.4727325439453125,0.4230769230769231,0.8269230769230769,0.35714285714285715,0.8571428571428571,0.0004
500,1.5676422119140625,1.49705171585083,0.38461538461538464,0.8269230769230769,0.35714285714285715,0.8571428571428571,0.0004
501,1.4808555245399475,1.4970908164978027,0.36538461538461536,0.8269230769230769,0.35714285714285715,0.8571428571428571,0.0004
502,1.5117065906524658,1.508789300918579,0.36538461538461536,0.8269230769230769,0.42857142857142855,0.8571428571428571,0.0004
503,1.5781258344650269,1.532305121421814,0.38461538461538464,0.8269230769230769,0.35714285714285715,0.8571428571428571,0.0004
504,1.5718014240264893,1.4780675172805786,0.36538461538461536,0.8269230769230769,0.5,0.8571428571428571,0.0004
505,1.553466558456421,1.4967204332351685,0.3269230769230769,0.8269230769230769,0.35714285714285715,0.8571428571428571,0.0004
506,1.5643994212150574,1.4545440673828125,0.4807692307692308,0.8269230769230769,0.5,0.8571428571428571,0.0004
507,1.507503867149353,1.5048996210098267,0.4423076923076923,0.8269230769230769,0.42857142857142855,0.8571428571428571,0.0004
508,1.5150421857833862,1.4281833171844482,0.40384615384615385,0.8269230769230769,0.6428571428571429,0.8571428571428571,0.0004
509,1.508968472480774,1.472876787185669,0.4230769230769231,0.8269230769230769,0.5,0.8571428571428571,0.0004
510,1.5383455157279968,1.5075154304504395,0.4230769230769231,0.8269230769230769,0.2857142857142857,0.8571428571428571,0.0004
511,1.4878302216529846,1.5139169692993164,0.5192307692307693,0.8269230769230769,0.35714285714285715,0.8571428571428571,0.0004
512,1.5796406865119934,1.46836256980896,0.4230769230769231,0.8269230769230769,0.35714285714285715,0.8571428571428571,0.0004
513,1.481055498123169,1.5302103757858276,0.38461538461538464,0.8269230769230769,0.35714285714285715,0.8571428571428571,0.0004
514,1.5116446614265442,1.4522392749786377,0.40384615384615385,0.8269230769230769,0.5,0.8571428571428571,0.0004
515,1.5275262594223022,1.449054479598999,0.36538461538461536,0.8269230769230769,0.2857142857142857,0.8571428571428571,0.0004
516,1.5213262438774109,1.4839545488357544,0.3269230769230769,0.8269230769230769,0.2857142857142857,0.8571428571428571,0.0004
517,1.4824377298355103,1.421539545059204,0.38461538461538464,0.8269230769230769,0.42857142857142855,0.8571428571428571,0.0004
518,1.5398562550544739,1.483414649963379,0.38461538461538464,0.8269230769230769,0.2857142857142857,0.8571428571428571,0.0004
519,1.488196611404419,1.4295024871826172,0.38461538461538464,0.8269230769230769,0.5,0.8571428571428571,0.0004
520,1.4795427322387695,1.4230831861495972,0.46153846153846156,0.8269230769230769,0.42857142857142855,0.8571428571428571,0.0004
521,1.5464621186256409,1.4059950113296509,0.28846153846153844,0.8269230769230769,0.5,0.8571428571428571,0.0004
522,1.5337257385253906,1.5269559621810913,0.40384615384615385,0.8269230769230769,0.35714285714285715,0.8571428571428571,0.0004
523,1.4864826202392578,1.4420673847198486,0.4423076923076923,0.8269230769230769,0.35714285714285715,0.8571428571428571,0.0004
524,1.4217063784599304,1.377565622329712,0.5384615384615384,0.8269230769230769,0.5714285714285714,0.8571428571428571,0.0004
525,1.488016426563263,1.3356261253356934,0.5769230769230769,0.8269230769230769,0.6428571428571429,0.8571428571428571,0.0004
526,1.4697913527488708,1.386911153793335,0.4423076923076923,0.8269230769230769,0.5,0.8571428571428571,0.0004
527,1.4705647230148315,1.4145569801330566,0.5,0.8269230769230769,0.5714285714285714,0.8571428571428571,0.0004
528,1.577668011188507,1.4818618297576904,0.34615384615384615,0.8269230769230769,0.42857142857142855,0.8571428571428571,0.0004
529,1.5847896337509155,1.5046879053115845,0.34615384615384615,0.8269230769230769,0.42857142857142855,0.8571428571428571,0.0004
530,1.7748645544052124,1.4875861406326294,0.3269230769230769,0.8269230769230769,0.42857142857142855,0.8571428571428571,0.0004
531,1.5601136088371277,1.4965174198150635,0.3269230769230769,0.8269230769230769,0.42857142857142855,0.8571428571428571,0.0004
532,1.5809358358383179,1.4819868803024292,0.34615384615384615,0.8269230769230769,0.42857142857142855,0.8571428571428571,0.0004
533,1.6241341829299927,1.4588842391967773,0.36538461538461536,0.8269230769230769,0.5,0.8571428571428571,0.0004
534,1.5862356424331665,1.4646549224853516,0.36538461538461536,0.8269230769230769,0.42857142857142855,0.8571428571428571,0.0004
535,1.4727012515068054,1.469006061553955,0.36538461538461536,0.8269230769230769,0.42857142857142855,0.8571428571428571,0.0004
536,1.5305355787277222,1.472143530845642,0.46153846153846156,0.8269230769230769,0.42857142857142855,0.8571428571428571,0.0004
537,1.4990164041519165,1.463496208190918,0.40384615384615385,0.8269230769230769,0.35714285714285715,0.8571428571428571,0.0004
538,1.527582585811615,1.5142912864685059,0.40384615384615385,0.8269230769230769,0.2857142857142857,0.8571428571428571,0.0004
539,1.5430234670639038,1.4813058376312256,0.38461538461538464,0.8269230769230769,0.35714285714285715,0.8571428571428571,0.0004
540,1.5129647850990295,1.4755098819732666,0.4230769230769231,0.8269230769230769,0.2857142857142857,0.8571428571428571,0.0004
541,1.5360265970230103,1.4753004312515259,0.28846153846153844,0.8269230769230769,0.35714285714285715,0.8571428571428571,0.0004
542,1.5444980263710022,1.528795599937439,0.4230769230769231,0.8269230769230769,0.21428571428571427,0.8571428571428571,0.0004
543,1.5481467247009277,1.4816385507583618,0.36538461538461536,0.8269230769230769,0.2857142857142857,0.8571428571428571,0.0004
544,1.5489760637283325,1.515703797340393,0.34615384615384615,0.8269230769230769,0.21428571428571427,0.8571428571428571,0.0004
545,1.492367446422577,1.5315325260162354,0.5,0.8269230769230769,0.21428571428571427,0.8571428571428571,0.0004
546,1.4877079129219055,1.5568597316741943,0.46153846153846156,0.8269230769230769,0.21428571428571427,0.8571428571428571,0.0004
547,1.526404619216919,1.4759235382080078,0.4230769230769231,0.8269230769230769,0.2857142857142857,0.8571428571428571,0.0004
548,1.5835782885551453,1.5185301303863525,0.38461538461538464,0.8269230769230769,0.21428571428571427,0.8571428571428571,0.0004
549,1.4685791730880737,1.5047465562820435,0.5,0.8269230769230769,0.2857142857142857,0.8571428571428571,0.0004
550,1.4844115376472473,1.5316089391708374,0.28846153846153844,0.8269230769230769,0.21428571428571427,0.8571428571428571,0.0004
551,1.476476788520813,1.5706510543823242,0.36538461538461536,0.8269230769230769,0.2857142857142857,0.8571428571428571,0.0004
552,1.5178353786468506,1.563805341720581,0.36538461538461536,0.8269230769230769,0.21428571428571427,0.8571428571428571,0.0004
553,1.5175764560699463,1.6019599437713623,0.46153846153846156,0.8269230769230769,0.21428571428571427,0.8571428571428571,0.0004
554,1.5795567035675049,1.4910855293273926,0.5,0.8269230769230769,0.21428571428571427,0.8571428571428571,0.0004
555,1.5373550653457642,1.5606317520141602,0.34615384615384615,0.8269230769230769,0.21428571428571427,0.8571428571428571,0.0004
556,1.52900230884552,1.5224865674972534,0.4423076923076923,0.8269230769230769,0.2857142857142857,0.8571428571428571,0.0004
557,1.5485568046569824,1.4842950105667114,0.38461538461538464,0.8269230769230769,0.35714285714285715,0.8571428571428571,0.0004
558,1.5511778593063354,1.4009861946105957,0.38461538461538464,0.8269230769230769,0.5,0.8571428571428571,0.0004
559,1.5869082808494568,1.4909504652023315,0.3076923076923077,0.8269230769230769,0.35714285714285715,0.8571428571428571,0.0004
560,1.447290062904358,1.5265430212020874,0.34615384615384615,0.8269230769230769,0.21428571428571427,0.8571428571428571,0.0004
561,1.5167909860610962,1.4661741256713867,0.46153846153846156,0.8269230769230769,0.35714285714285715,0.8571428571428571,0.0004
562,1.4932268261909485,1.4847030639648438,0.46153846153846156,0.8269230769230769,0.35714285714285715,0.8571428571428571,0.0004
563,1.5214332938194275,1.3931281566619873,0.3269230769230769,0.8269230769230769,0.5714285714285714,0.8571428571428571,0.0004
564,1.527875542640686,1.5003159046173096,0.40384615384615385,0.8269230769230769,0.2857142857142857,0.8571428571428571,0.0004
565,1.4891116619110107,1.4891387224197388,0.40384615384615385,0.8269230769230769,0.2857142857142857,0.8571428571428571,0.0004
566,1.5024032592773438,1.4823896884918213,0.46153846153846156,0.8269230769230769,0.35714285714285715,0.8571428571428571,0.0004
567,1.5280833840370178,1.4855104684829712,0.36538461538461536,0.8269230769230769,0.35714285714285715,0.8571428571428571,0.0004
568,1.5489893555641174,1.4736617803573608,0.38461538461538464,0.8269230769230769,0.42857142857142855,0.8571428571428571,0.0004
569,1.5509983897209167,1.4737107753753662,0.40384615384615385,0.8269230769230769,0.42857142857142855,0.8571428571428571,0.0004
570,1.4805108904838562,1.4394925832748413,0.5192307692307693,0.8269230769230769,0.5714285714285714,0.8571428571428571,0.0004
571,1.5713967680931091,1.4248045682907104,0.34615384615384615,0.8269230769230769,0.42857142857142855,0.8571428571428571,0.0004
572,1.4670419692993164,1.4198180437088013,0.4423076923076923,0.8269230769230769,0.5714285714285714,0.8571428571428571,0.0004
573,1.4353509545326233,1.4673494100570679,0.46153846153846156,0.8269230769230769,0.35714285714285715,0.8571428571428571,0.0004
574,1.5043559670448303,1.4090955257415771,0.4230769230769231,0.8269230769230769,0.5,0.8571428571428571,0.0004
575,1.491112470626831,1.433354377746582,0.36538461538461536,0.8269230769230769,0.5714285714285714,0.8571428571428571,0.0004
576,1.5474583506584167,1.4470717906951904,0.36538461538461536,0.8269230769230769,0.5,0.8571428571428571,0.0004
577,1.4962255358695984,1.450372576713562,0.5192307692307693,0.8269230769230769,0.5,0.8571428571428571,0.0004
578,1.4303874373435974,1.5004507303237915,0.4807692307692308,0.8269230769230769,0.5714285714285714,0.8571428571428571,0.0004
579,1.4981292486190796,1.479520320892334,0.4807692307692308,0.8269230769230769,0.42857142857142855,0.8571428571428571,0.0004
580,1.4364428520202637,1.4301154613494873,0.46153846153846156,0.8269230769230769,0.5714285714285714,0.8571428571428571,0.0004
581,1.4858661890029907,1.434356927871704,0.34615384615384615,0.8269230769230769,0.6428571428571429,0.8571428571428571,0.0004
582,1.4694244861602783,1.5214807987213135,0.5769230769230769,0.8269230769230769,0.5714285714285714,0.8571428571428571,0.0004
583,1.599075436592102,1.6759239435195923,0.4807692307692308,0.8269230769230769,0.5,0.8571428571428571,0.0004
584,1.7113087177276611,1.7005128860473633,0.34615384615384615,0.8269230769230769,0.2857142857142857,0.8571428571428571,0.0004
585,1.6513673663139343,1.5986813306808472,0.4230769230769231,0.8269230769230769,0.21428571428571427,0.8571428571428571,0.0004
586,1.5217796564102173,1.5623564720153809,0.46153846153846156,0.8269230769230769,0.2857142857142857,0.8571428571428571,0.0004
587,1.4984620809555054,1.4682679176330566,0.40384615384615385,0.8269230769230769,0.5,0.8571428571428571,0.0004
588,1.4368422627449036,1.4368767738342285,0.5,0.8269230769230769,0.5714285714285714,0.8571428571428571,0.0004
589,1.5462836623191833,1.4447431564331055,0.36538461538461536,0.8269230769230769,0.42857142857142855,0.8571428571428571,0.0004
590,1.5743021965026855,1.4742538928985596,0.34615384615384615,0.8269230769230769,0.5,0.8571428571428571,0.0004
591,1.4770949482917786,1.5046937465667725,0.40384615384615385,0.8269230769230769,0.42857142857142855,0.8571428571428571,0.0004
592,1.598442792892456,1.4170026779174805,0.34615384615384615,0.8269230769230769,0.6428571428571429,0.8571428571428571,0.0004
593,1.4842951893806458,1.4300293922424316,0.4807692307692308,0.8269230769230769,0.5714285714285714,0.8571428571428571,0.0004
594,1.435708999633789,1.4373959302902222,0.5576923076923077,0.8269230769230769,0.5714285714285714,0.8571428571428571,0.0004
595,1.4542096257209778,1.4586799144744873,0.4230769230769231,0.8269230769230769,0.42857142857142855,0.8571428571428571,0.0004
596,1.41961669921875,1.4606328010559082,0.5576923076923077,0.8269230769230769,0.42857142857142855,0.8571428571428571,0.0004
597,1.4824966192245483,1.512699842453003,0.5,0.8269230769230769,0.42857142857142855,0.8571428571428571,0.0004
598,1.4944860935211182,1.4213886260986328,0.46153846153846156,0.8269230769230769,0.7142857142857143,0.8571428571428571,0.0004
599,1.4728570580482483,1.4776475429534912,0.4230769230769231,0.8269230769230769,0.42857142857142855,0.8571428571428571,0.0004
600,1.5040017366409302,1.412880539894104,0.4230769230769231,0.8269230769230769,0.5,0.8571428571428571,0.0004
601,1.4396005868911743,1.5470106601715088,0.4423076923076923,0.8269230769230769,0.2857142857142857,0.8571428571428571,0.0004
602,1.459126889705658,1.4876298904418945,0.46153846153846156,0.8269230769230769,0.35714285714285715,0.8571428571428571,0.0004
603,1.5058075785636902,1.5025575160980225,0.38461538461538464,0.8269230769230769,0.42857142857142855,0.8571428571428571,0.0004
604,1.47379869222641,1.465147852897644,0.5384615384615384,0.8269230769230769,0.42857142857142855,0.8571428571428571,0.0004
605,1.4652073979377747,1.4783059358596802,0.4423076923076923,0.8269230769230769,0.35714285714285715,0.8571428571428571,0.0004
606,1.5074095129966736,1.4822742938995361,0.36538461538461536,0.8269230769230769,0.2857142857142857,0.8571428571428571,0.0004
607,1.4646438956260681,1.4709415435791016,0.34615384615384615,0.8269230769230769,0.35714285714285715,0.8571428571428571,0.0004
608,1.53571355342865,1.4384821653366089,0.36538461538461536,0.8269230769230769,0.42857142857142855,0.8571428571428571,0.0004
609,1.5645818710327148,1.4374358654022217,0.34615384615384615,0.8269230769230769,0.42857142857142855,0.8571428571428571,0.0004
610,1.5833219289779663,1.367416262626648,0.3076923076923077,0.8269230769230769,0.42857142857142855,0.8571428571428571,0.0004
611,1.5498867630958557,1.432124376296997,0.34615384615384615,0.8269230769230769,0.35714285714285715,0.8571428571428571,0.0004
612,1.4618748426437378,1.42417311668396,0.5192307692307693,0.8269230769230769,0.42857142857142855,0.8571428571428571,0.0004
613,1.5363049507141113,1.4194598197937012,0.4230769230769231,0.8269230769230769,0.35714285714285715,0.8571428571428571,0.0004
614,1.5014454126358032,1.4354557991027832,0.5384615384615384,0.8269230769230769,0.42857142857142855,0.8571428571428571,0.0004
615,1.4941734075546265,1.507279396057129,0.46153846153846156,0.8269230769230769,0.21428571428571427,0.8571428571428571,0.0004
616,1.5070794820785522,1.4475736618041992,0.4807692307692308,0.8269230769230769,0.35714285714285715,0.8571428571428571,0.0004
617,1.4719793200492859,1.5022163391113281,0.40384615384615385,0.8269230769230769,0.2857142857142857,0.8571428571428571,0.0004
618,1.4719281196594238,1.5039869546890259,0.40384615384615385,0.8269230769230769,0.35714285714285715,0.8571428571428571,0.0004
619,1.55380779504776,1.508730173110962,0.38461538461538464,0.8269230769230769,0.2857142857142857,0.8571428571428571,0.0004
620,1.5236366391181946,1.4594385623931885,0.4807692307692308,0.8269230769230769,0.42857142857142855,0.8571428571428571,0.0004
621,1.453609824180603,1.4936003684997559,0.46153846153846156,0.8269230769230769,0.2857142857142857,0.8571428571428571,0.0004
622,1.484196424484253,1.401554822921753,0.40384615384615385,0.8269230769230769,0.42857142857142855,0.8571428571428571,0.0004
623,1.5373420715332031,1.4864225387573242,0.4230769230769231,0.8269230769230769,0.35714285714285715,0.8571428571428571,0.0004
624,1.532764494419098,1.5080056190490723,0.4230769230769231,0.8269230769230769,0.2857142857142857,0.8571428571428571,0.0004
625,1.5370664596557617,1.4469696283340454,0.40384615384615385,0.8269230769230769,0.35714285714285715,0.8571428571428571,0.0004
626,1.4617041945457458,1.4334075450897217,0.46153846153846156,0.8269230769230769,0.5,0.8571428571428571,0.0004
627,1.4912905097007751,1.4691247940063477,0.4423076923076923,0.8269230769230769,0.42857142857142855,0.8571428571428571,0.0004
628,1.4982386231422424,1.4032618999481201,0.4807692307692308,0.8269230769230769,0.5,0.8571428571428571,0.0004
629,1.5613917708396912,1.3137773275375366,0.3269230769230769,0.8269230769230769,0.5,0.8571428571428571,0.0004
630,1.4684386849403381,1.5428178310394287,0.5,0.8269230769230769,0.14285714285714285,0.8571428571428571,0.0004
631,1.4770289063453674,1.524763822555542,0.4423076923076923,0.8269230769230769,0.2857142857142857,0.8571428571428571,0.0004
632,1.5564325451850891,1.3778247833251953,0.40384615384615385,0.8269230769230769,0.42857142857142855,0.8571428571428571,0.0004
633,1.399575650691986,1.353469967842102,0.5769230769230769,0.8269230769230769,0.5,0.8571428571428571,0.0004
634,1.5235018730163574,1.4135260581970215,0.4807692307692308,0.8269230769230769,0.35714285714285715,0.8571428571428571,0.0004
635,1.4593064188957214,1.3775039911270142,0.38461538461538464,0.8269230769230769,0.42857142857142855,0.8571428571428571,0.0004
636,1.5106039643287659,1.371639609336853,0.4230769230769231,0.8269230769230769,0.42857142857142855,0.8571428571428571,0.0004
637,1.5725111365318298,1.3862065076828003,0.38461538461538464,0.8269230769230769,0.42857142857142855,0.8571428571428571,0.0004
638,1.485423743724823,1.2724686861038208,0.36538461538461536,0.8269230769230769,0.5714285714285714,0.8571428571428571,0.0004
639,1.3973852396011353,1.486567735671997,0.4807692307692308,0.8269230769230769,0.2857142857142857,0.8571428571428571,0.0004
640,1.4782466888427734,1.4615474939346313,0.34615384615384615,0.8269230769230769,0.35714285714285715,0.8571428571428571,0.0004
641,1.4987919926643372,1.5052353143692017,0.5192307692307693,0.8269230769230769,0.42857142857142855,0.8571428571428571,0.0004
642,1.4599177241325378,1.436438798904419,0.38461538461538464,0.8269230769230769,0.42857142857142855,0.8571428571428571,0.0004
643,1.5361237525939941,1.4466891288757324,0.4807692307692308,0.8269230769230769,0.35714285714285715,0.8571428571428571,0.0004
644,1.5543461441993713,1.4715732336044312,0.4423076923076923,0.8269230769230769,0.35714285714285715,0.8571428571428571,0.0004
645,1.4485649466514587,1.447453260421753,0.46153846153846156,0.8269230769230769,0.35714285714285715,0.8571428571428571,0.0004
646,1.485383689403534,1.4160423278808594,0.3076923076923077,0.8269230769230769,0.35714285714285715,0.8571428571428571,0.0004
647,1.5098861455917358,1.5143358707427979,0.34615384615384615,0.8269230769230769,0.2857142857142857,0.8571428571428571,0.0004
648,1.4456605911254883,1.4818832874298096,0.3076923076923077,0.8269230769230769,0.35714285714285715,0.8571428571428571,0.0004
649,1.504837989807129,1.5227785110473633,0.34615384615384615,0.8269230769230769,0.21428571428571427,0.8571428571428571,0.0004
650,1.4315486550331116,1.4391683340072632,0.4230769230769231,0.8269230769230769,0.42857142857142855,0.8571428571428571,0.0004
651,1.4466274976730347,1.345867395401001,0.38461538461538464,0.8269230769230769,0.5714285714285714,0.8571428571428571,0.0004
652,1.458426296710968,1.3606187105178833,0.46153846153846156,0.8269230769230769,0.5,0.8571428571428571,0.0004
653,1.4340265393257141,1.3429300785064697,0.36538461538461536,0.8269230769230769,0.42857142857142855,0.8571428571428571,0.0004
654,1.3926319479942322,1.4595351219177246,0.4230769230769231,0.8269230769230769,0.5,0.8571428571428571,0.0004
655,1.4893184900283813,1.3514820337295532,0.34615384615384615,0.8269230769230769,0.5,0.8571428571428571,0.0004
656,1.4763805866241455,1.4095405340194702,0.46153846153846156,0.8269230769230769,0.5714285714285714,0.8571428571428571,0.0004
657,1.4049414992332458,1.4700613021850586,0.38461538461538464,0.8269230769230769,0.42857142857142855,0.8571428571428571,0.0004
658,1.6009238362312317,1.381384015083313,0.40384615384615385,0.8269230769230769,0.5,0.8571428571428571,0.0004
659,1.4869961142539978,1.3356072902679443,0.40384615384615385,0.8269230769230769,0.5714285714285714,0.8571428571428571,0.0004
660,1.420045256614685,1.491098165512085,0.5384615384615384,0.8269230769230769,0.35714285714285715,0.8571428571428571,0.0004
661,1.5530179738998413,1.5201282501220703,0.3269230769230769,0.8269230769230769,0.42857142857142855,0.8571428571428571,0.0004
662,1.5395383834838867,1.5160540342330933,0.5,0.8269230769230769,0.35714285714285715,0.8571428571428571,0.0004
663,1.5505813360214233,1.5097523927688599,0.34615384615384615,0.8269230769230769,0.35714285714285715,0.8571428571428571,0.0004
664,1.481883466243744,1.498689889907837,0.5,0.8269230769230769,0.2857142857142857,0.8571428571428571,0.0004
665,1.6153790950775146,1.5508381128311157,0.40384615384615385,0.8269230769230769,0.2857142857142857,0.8571428571428571,0.0004
666,1.512993574142456,1.6363558769226074,0.5,0.8269230769230769,0.21428571428571427,0.8571428571428571,0.0004
667,1.5804457068443298,1.6508796215057373,0.4423076923076923,0.8269230769230769,0.21428571428571427,0.8571428571428571,0.0004
668,1.5166651606559753,1.5954489707946777,0.40384615384615385,0.8269230769230769,0.21428571428571427,0.8571428571428571,0.0004
669,1.5391488075256348,1.5930736064910889,0.34615384615384615,0.8269230769230769,0.2857142857142857,0.8571428571428571,0.0004
670,1.5693913102149963,1.5449038743972778,0.4423076923076923,0.8269230769230769,0.35714285714285715,0.8571428571428571,0.0004
671,1.5118823647499084,1.5031638145446777,0.46153846153846156,0.8269230769230769,0.2857142857142857,0.8571428571428571,0.0004
672,1.489328145980835,1.6147242784500122,0.4230769230769231,0.8269230769230769,0.21428571428571427,0.8571428571428571,0.0004
673,1.4705106019973755,1.4631661176681519,0.5,0.8269230769230769,0.35714285714285715,0.8571428571428571,0.0004
674,1.546169936656952,1.582930088043213,0.38461538461538464,0.8269230769230769,0.2857142857142857,0.8571428571428571,0.0004
675,1.5048710703849792,1.4694719314575195,0.36538461538461536,0.8269230769230769,0.2857142857142857,0.8571428571428571,0.0004
676,1.5004963278770447,1.5005574226379395,0.4807692307692308,0.8269230769230769,0.35714285714285715,0.8571428571428571,0.0004
677,1.5464050769805908,1.4986307621002197,0.3269230769230769,0.8269230769230769,0.2857142857142857,0.8571428571428571,0.0004
678,1.483152151107788,1.4682867527008057,0.4230769230769231,0.8269230769230769,0.35714285714285715,0.8571428571428571,0.0004
679,1.5461512207984924,1.4809659719467163,0.4423076923076923,0.8269230769230769,0.2857142857142857,0.8571428571428571,0.0004
680,1.5368455052375793,1.5454812049865723,0.34615384615384615,0.8269230769230769,0.2857142857142857,0.8571428571428571,0.0004
681,1.5704150795936584,1.425700068473816,0.40384615384615385,0.8269230769230769,0.2857142857142857,0.8571428571428571,0.0004
682,1.5911291241645813,1.4305431842803955,0.4423076923076923,0.8269230769230769,0.42857142857142855,0.8571428571428571,0.0004
683,1.5176371335983276,1.5017774105072021,0.34615384615384615,0.8269230769230769,0.21428571428571427,0.8571428571428571,0.0004
684,1.6058551669120789,1.537506341934204,0.3269230769230769,0.8269230769230769,0.2857142857142857,0.8571428571428571,0.0004
685,1.5441291332244873,1.5058143138885498,0.40384615384615385,0.8269230769230769,0.21428571428571427,0.8571428571428571,0.0004
686,1.5796431303024292,1.4976327419281006,0.46153846153846156,0.8269230769230769,0.2857142857142857,0.8571428571428571,0.0004
687,1.5300726890563965,1.4906799793243408,0.36538461538461536,0.8269230769230769,0.2857142857142857,0.8571428571428571,0.0004
688,1.470716118812561,1.4767911434173584,0.4230769230769231,0.8269230769230769,0.42857142857142855,0.8571428571428571,0.0004
689,1.565106987953186,1.5044664144515991,0.34615384615384615,0.8269230769230769,0.2857142857142857,0.8571428571428571,0.0004
690,1.5444708466529846,1.3822107315063477,0.40384615384615385,0.8269230769230769,0.42857142857142855,0.8571428571428571,0.0004
691,1.4671722650527954,1.4550318717956543,0.46153846153846156,0.8269230769230769,0.5,0.8571428571428571,0.0004
692,1.524625539779663,1.4663562774658203,0.5,0.8269230769230769,0.2857142857142857,0.8571428571428571,0.0004
693,1.5008188486099243,1.496620774269104,0.36538461538461536,0.8269230769230769,0.42857142857142855,0.8571428571428571,0.0004
694,1.469514012336731,1.4818623065948486,0.36538461538461536,0.8269230769230769,0.2857142857142857,0.8571428571428571,0.0004
695,1.486648142337799,1.4510173797607422,0.4230769230769231,0.8269230769230769,0.35714285714285715,0.8571428571428571,0.0004
696,1.4577370882034302,1.4435508251190186,0.40384615384615385,0.8269230769230769,0.35714285714285715,0.8571428571428571,0.0004
697,1.4964113235473633,1.4364994764328003,0.4807692307692308,0.8269230769230769,0.2857142857142857,0.8571428571428571,0.0004
698,1.5515546202659607,1.449093222618103,0.36538461538461536,0.8269230769230769,0.42857142857142855,0.8571428571428571,0.0004
699,1.4852133393287659,1.4057996273040771,0.40384615384615385,0.8269230769230769,0.2857142857142857,0.8571428571428571,0.0004
700,1.4610046744346619,1.4090464115142822,0.38461538461538464,0.8269230769230769,0.35714285714285715,0.8571428571428571,0.0004
701,1.4517183303833008,1.4726847410202026,0.5384615384615384,0.8269230769230769,0.35714285714285715,0.8571428571428571,0.0004
702,1.6284663677215576,1.482517123222351,0.3076923076923077,0.8269230769230769,0.35714285714285715,0.8571428571428571,0.0004
703,1.5005831122398376,1.4420716762542725,0.38461538461538464,0.8269230769230769,0.2857142857142857,0.8571428571428571,0.0004
704,1.556918978691101,1.490121603012085,0.4423076923076923,0.8269230769230769,0.2857142857142857,0.8571428571428571,0.0004
705,1.5177620649337769,1.4029076099395752,0.36538461538461536,0.8269230769230769,0.42857142857142855,0.8571428571428571,0.0004
706,1.6010448932647705,1.3966237306594849,0.38461538461538464,0.8269230769230769,0.42857142857142855,0.8571428571428571,0.0004
707,1.5174967646598816,1.4228893518447876,0.46153846153846156,0.8269230769230769,0.42857142857142855,0.8571428571428571,0.0004
708,1.5071403980255127,1.4770593643188477,0.4423076923076923,0.8269230769230769,0.2857142857142857,0.8571428571428571,0.0004
709,1.4591747522354126,1.4830551147460938,0.4807692307692308,0.8269230769230769,0.2857142857142857,0.8571428571428571,0.0004
710,1.475719690322876,1.531694769859314,0.36538461538461536,0.8269230769230769,0.21428571428571427,0.8571428571428571,0.0004
711,1.4917269349098206,1.5005807876586914,0.4230769230769231,0.8269230769230769,0.2857142857142857,0.8571428571428571,0.0004
712,1.514377772808075,1.3975443840026855,0.40384615384615385,0.8269230769230769,0.42857142857142855,0.8571428571428571,0.0004
713,1.4881592392921448,1.439995527267456,0.38461538461538464,0.8269230769230769,0.35714285714285715,0.8571428571428571,0.0004
714,1.5154023170471191,1.4614386558532715,0.4423076923076923,0.8269230769230769,0.2857142857142857,0.8571428571428571,0.0004
715,1.4319390654563904,1.5318325757980347,0.46153846153846156,0.8269230769230769,0.21428571428571427,0.8571428571428571,0.0004
716,1.4393475651741028,1.4504932165145874,0.5,0.8269230769230769,0.35714285714285715,0.8571428571428571,0.0004
717,1.5538490414619446,1.363736629486084,0.36538461538461536,0.8269230769230769,0.42857142857142855,0.8571428571428571,0.0004
718,1.5699943900108337,1.3865422010421753,0.4423076923076923,0.8269230769230769,0.42857142857142855,0.8571428571428571,0.0004
719,1.452028751373291,1.4083796739578247,0.4230769230769231,0.8269230769230769,0.35714285714285715,0.8571428571428571,0.0004
720,1.4965503215789795,1.3461058139801025,0.4230769230769231,0.8269230769230769,0.42857142857142855,0.8571428571428571,0.0004
721,1.4525139927864075,1.478696584701538,0.36538461538461536,0.8269230769230769,0.2857142857142857,0.8571428571428571,0.0004
722,1.5216389298439026,1.3519580364227295,0.2692307692307692,0.8269230769230769,0.5,0.8571428571428571,0.0004
723,1.4625056385993958,1.3530956506729126,0.4807692307692308,0.8269230769230769,0.42857142857142855,0.8571428571428571,0.0004
724,1.5064180493354797,1.2729277610778809,0.4807692307692308,0.8269230769230769,0.5,0.8571428571428571,0.0004
725,1.5373470783233643,1.4895925521850586,0.3269230769230769,0.8269230769230769,0.35714285714285715,0.8571428571428571,0.0004
726,1.4218911528587341,1.501047134399414,0.5,0.8269230769230769,0.2857142857142857,0.8571428571428571,0.0004
727,1.4804829955101013,1.3949421644210815,0.4423076923076923,0.8269230769230769,0.42857142857142855,0.8571428571428571,0.0004
728,1.5787135362625122,1.4318591356277466,0.3269230769230769,0.8269230769230769,0.35714285714285715,0.8571428571428571,0.0004
729,1.4993345737457275,1.464789867401123,0.46153846153846156,0.8269230769230769,0.35714285714285715,0.8571428571428571,0.0004
730,1.3999702334403992,1.2571221590042114,0.4807692307692308,0.8269230769230769,0.5,0.8571428571428571,0.0004
731,1.5416300296783447,1.3918511867523193,0.38461538461538464,0.8269230769230769,0.35714285714285715,0.8571428571428571,0.0004
732,1.441546082496643,1.3149181604385376,0.5,0.8269230769230769,0.42857142857142855,0.8571428571428571,0.0004
733,1.4800717234611511,1.4784940481185913,0.40384615384615385,0.8269230769230769,0.2857142857142857,0.8571428571428571,0.0004
734,1.4865644574165344,1.4535866975784302,0.4423076923076923,0.8269230769230769,0.35714285714285715,0.8571428571428571,0.0004
735,1.507780373096466,1.3671965599060059,0.38461538461538464,0.8269230769230769,0.42857142857142855,0.8571428571428571,0.0004
736,1.5600418448448181,1.3067872524261475,0.2692307692307692,0.8269230769230769,0.42857142857142855,0.8571428571428571,0.0004
737,1.387553632259369,1.2629156112670898,0.4807692307692308,0.8269230769230769,0.5,0.8571428571428571,0.0004
738,1.4550762176513672,1.4712584018707275,0.4230769230769231,0.8269230769230769,0.35714285714285715,0.8571428571428571,0.0004
739,1.4183538556098938,1.5163230895996094,0.5384615384615384,0.8269230769230769,0.2857142857142857,0.8571428571428571,0.0004
740,1.460092008113861,1.3952739238739014,0.36538461538461536,0.8269230769230769,0.2857142857142857,0.8571428571428571,0.0004
741,1.469848096370697,1.405057430267334,0.4230769230769231,0.8269230769230769,0.42857142857142855,0.8571428571428571,0.0004
742,1.4275283813476562,1.401890516281128,0.38461538461538464,0.8269230769230769,0.35714285714285715,0.8571428571428571,0.0004
743,1.4906070232391357,1.3912233114242554,0.38461538461538464,0.8269230769230769,0.5,0.8571428571428571,0.0004
744,1.4125513434410095,1.4478766918182373,0.4230769230769231,0.8269230769230769,0.5,0.8571428571428571,0.0004
745,1.4437687993049622,1.3417152166366577,0.3076923076923077,0.8269230769230769,0.5,0.8571428571428571,0.0004
746,1.3762364983558655,1.3111261129379272,0.4423076923076923,0.8269230769230769,0.5,0.8571428571428571,0.0004
747,1.4277511239051819,1.1703376770019531,0.5192307692307693,0.8269230769230769,0.5714285714285714,0.8571428571428571,0.0004
748,1.3846918940544128,1.323849081993103,0.4807692307692308,0.8269230769230769,0.42857142857142855,0.8571428571428571,0.0004
749,1.3952993750572205,1.2849645614624023,0.46153846153846156,0.8269230769230769,0.5,0.8571428571428571,0.0004
750,1.4216126799583435,1.2933372259140015,0.5,0.8269230769230769,0.42857142857142855,0.8571428571428571,0.0004
751,1.4062834978103638,1.2793662548065186,0.38461538461538464,0.8269230769230769,0.42857142857142855,0.8571428571428571,0.0004
752,1.49798184633255,1.5696427822113037,0.36538461538461536,0.8269230769230769,0.42857142857142855,0.8571428571428571,0.0004
753,1.4351105690002441,1.252798080444336,0.4230769230769231,0.8269230769230769,0.5,0.8571428571428571,0.0004
754,1.3192352652549744,1.3194749355316162,0.38461538461538464,0.8269230769230769,0.5714285714285714,0.8571428571428571,0.0004
755,1.4054384231567383,1.2453027963638306,0.4230769230769231,0.8269230769230769,0.42857142857142855,0.8571428571428571,0.0004
756,1.3231282234191895,1.374199628829956,0.5192307692307693,0.8269230769230769,0.42857142857142855,0.8571428571428571,0.0004
757,1.4028788208961487,1.1670050621032715,0.4230769230769231,0.8269230769230769,0.5714285714285714,0.8571428571428571,0.0004
758,1.4183389544487,1.4352750778198242,0.4423076923076923,0.8269230769230769,0.5,0.8571428571428571,0.0004
759,1.3729760646820068,1.5495015382766724,0.46153846153846156,0.8269230769230769,0.2857142857142857,0.8571428571428571,0.0004
760,1.3005912899971008,1.4156243801116943,0.5,0.8269230769230769,0.35714285714285715,0.8571428571428571,0.0004
761,1.3930147290229797,1.554280400276184,0.46153846153846156,0.8269230769230769,0.5,0.8571428571428571,0.0004
762,1.342556893825531,1.3076770305633545,0.4230769230769231,0.8269230769230769,0.5714285714285714,0.8571428571428571,0.0004
763,1.3465860486030579,1.1904274225234985,0.4230769230769231,0.8269230769230769,0.42857142857142855,0.8571428571428571,0.0004
764,1.4027246236801147,1.3856894969940186,0.4423076923076923,0.8269230769230769,0.42857142857142855,0.8571428571428571,0.0004
765,1.314618468284607,1.2039661407470703,0.4807692307692308,0.8269230769230769,0.5,0.8571428571428571,0.0004
766,1.4708110094070435,1.1152504682540894,0.4230769230769231,0.8269230769230769,0.6428571428571429,0.8571428571428571,0.0004
767,1.2988964915275574,1.1934919357299805,0.46153846153846156,0.8269230769230769,0.5,0.8571428571428571,0.0004
768,1.2575817108154297,1.3217191696166992,0.5,0.8269230769230769,0.5714285714285714,0.8571428571428571,0.0004
769,1.2672066688537598,1.4483318328857422,0.4807692307692308,0.8269230769230769,0.5,0.8571428571428571,0.0004
770,1.548652172088623,1.3948676586151123,0.40384615384615385,0.8269230769230769,0.5,0.8571428571428571,0.0004
771,1.3550406098365784,1.3485445976257324,0.5384615384615384,0.8269230769230769,0.42857142857142855,0.8571428571428571,0.0004
772,1.4456619024276733,1.4350191354751587,0.4423076923076923,0.8269230769230769,0.42857142857142855,0.8571428571428571,0.0004
773,1.3894083499908447,1.6469762325286865,0.38461538461538464,0.8269230769230769,0.42857142857142855,0.8571428571428571,0.0004
774,1.4694832563400269,1.4536082744598389,0.5384615384615384,0.8269230769230769,0.42857142857142855,0.8571428571428571,0.0004
775,1.4791657328605652,1.5041979551315308,0.4807692307692308,0.8076923076923077,0.35714285714285715,0.8571428571428571,0.0004
776,1.4552119374275208,1.6285152435302734,0.5,0.8461538461538461,0.2857142857142857,0.8571428571428571,0.0004
777,1.3455133438110352,1.3430628776550293,0.5,0.8269230769230769,0.42857142857142855,0.8571428571428571,0.0004
778,1.307236135005951,1.2665380239486694,0.5769230769230769,0.8269230769230769,0.5,0.8571428571428571,0.0004
779,1.4965392351150513,1.3652215003967285,0.36538461538461536,0.8269230769230769,0.5,0.8571428571428571,0.0004
780,1.4606057405471802,1.41177237033844,0.46153846153846156,0.8269230769230769,0.42857142857142855,0.8571428571428571,0.0004
781,1.4313008189201355,1.2817058563232422,0.5384615384615384,0.8269230769230769,0.5714285714285714,0.8571428571428571,0.0004
782,1.3758423924446106,1.2763824462890625,0.4230769230769231,0.8269230769230769,0.42857142857142855,0.8571428571428571,0.0004
783,1.3725357055664062,1.4177600145339966,0.4807692307692308,0.8269230769230769,0.2857142857142857,0.8571428571428571,0.0004
784,1.3845321536064148,1.5189276933670044,0.5192307692307693,0.8269230769230769,0.5,0.8571428571428571,0.0004
785,1.331875205039978,1.5042133331298828,0.5576923076923077,0.8269230769230769,0.42857142857142855,0.8571428571428571,0.0004
786,1.3472683429718018,1.3857029676437378,0.46153846153846156,0.8269230769230769,0.35714285714285715,0.8571428571428571,0.0004
787,1.4584262371063232,1.4534683227539062,0.3076923076923077,0.8269230769230769,0.5,0.8571428571428571,0.0004
788,1.4570432305335999,1.3839563131332397,0.40384615384615385,0.8269230769230769,0.5,0.8571428571428571,0.0004
789,1.35612553358078,1.4106519222259521,0.5192307692307693,0.8269230769230769,0.42857142857142855,0.8571428571428571,0.0004
790,1.5391392707824707,1.2044153213500977,0.46153846153846156,0.8269230769230769,0.42857142857142855,0.8571428571428571,0.0004
791,1.3742901682853699,1.3318053483963013,0.5192307692307693,0.8269230769230769,0.5,0.8571428571428571,0.0004
792,1.4673612117767334,1.3248827457427979,0.4423076923076923,0.8269230769230769,0.5,0.8571428571428571,0.0004
793,1.4048435688018799,1.3306446075439453,0.36538461538461536,0.8269230769230769,0.42857142857142855,0.8571428571428571,0.0004
794,1.3839815855026245,1.2913172245025635,0.5576923076923077,0.8269230769230769,0.5,0.8571428571428571,0.0004
795,1.3484736680984497,1.205761194229126,0.5192307692307693,0.8269230769230769,0.6428571428571429,0.8571428571428571,0.0004
796,1.3753387331962585,1.1295464038848877,0.4423076923076923,0.8269230769230769,0.7857142857142857,0.8571428571428571,0.0004
797,1.2730739116668701,1.3530113697052002,0.5,0.8269230769230769,0.42857142857142855,0.8571428571428571,0.0004
798,1.4300915002822876,1.238023281097412,0.4230769230769231,0.8269230769230769,0.5714285714285714,0.8571428571428571,0.0004
799,1.378830909729004,1.4924712181091309,0.38461538461538464,0.8269230769230769,0.5714285714285714,0.8571428571428571,0.0004
800,1.356977105140686,1.60941481590271,0.4230769230769231,0.8269230769230769,0.35714285714285715,0.8571428571428571,0.0004
801,1.365808129310608,1.3495769500732422,0.5,0.8269230769230769,0.5714285714285714,0.8571428571428571,0.0004
802,1.3109277486801147,1.7154006958007812,0.5192307692307693,0.8269230769230769,0.5,0.8571428571428571,0.0004
803,1.2761901021003723,1.2775118350982666,0.5769230769230769,0.8269230769230769,0.5714285714285714,0.8571428571428571,0.0004
804,1.4095385670661926,1.2334342002868652,0.4807692307692308,0.8269230769230769,0.6428571428571429,0.8571428571428571,0.0004
805,1.3498037457466125,1.4447304010391235,0.5,0.8269230769230769,0.5,0.8571428571428571,0.0004
806,1.400389850139618,1.4461915493011475,0.5192307692307693,0.8269230769230769,0.35714285714285715,0.8571428571428571,0.0004
807,1.4047511219978333,1.3665227890014648,0.4423076923076923,0.8269230769230769,0.5,0.8571428571428571,0.0004
808,1.357069730758667,1.3397071361541748,0.5384615384615384,0.8269230769230769,0.5714285714285714,0.8571428571428571,0.0004
809,1.2214057445526123,1.4472845792770386,0.5384615384615384,0.8269230769230769,0.35714285714285715,0.8571428571428571,0.0004
810,1.3769258856773376,1.2765144109725952,0.4423076923076923,0.8269230769230769,0.5,0.8571428571428571,0.0004
811,1.33742094039917,1.3066962957382202,0.4807692307692308,0.8269230769230769,0.5,0.8571428571428571,0.0004
812,1.4166916012763977,1.5617175102233887,0.4230769230769231,0.8269230769230769,0.5,0.8571428571428571,0.0004
813,1.3394808173179626,1.235512614250183,0.4230769230769231,0.8269230769230769,0.5714285714285714,0.8571428571428571,0.0004
814,1.3172913789749146,1.6720969676971436,0.5192307692307693,0.8269230769230769,0.35714285714285715,0.8571428571428571,0.0004
815,1.261977732181549,1.136186122894287,0.6538461538461539,0.8269230769230769,0.7142857142857143,0.8571428571428571,0.0004
816,1.388940155506134,1.3289198875427246,0.5192307692307693,0.8269230769230769,0.35714285714285715,0.8571428571428571,0.0004
817,1.3663834929466248,1.1948137283325195,0.5769230769230769,0.8461538461538461,0.6428571428571429,0.8571428571428571,0.0004
818,1.4611820578575134,1.334596037864685,0.4807692307692308,0.8269230769230769,0.5714285714285714,0.8571428571428571,0.0004
819,1.30873703956604,1.4443320035934448,0.5576923076923077,0.8269230769230769,0.42857142857142855,0.8571428571428571,0.0004
820,1.1929380893707275,1.2095615863800049,0.6153846153846154,0.8269230769230769,0.6428571428571429,0.8571428571428571,0.0004
821,1.3677250742912292,1.2236642837524414,0.5,0.8269230769230769,0.6428571428571429,0.8571428571428571,0.0004
822,1.2242950201034546,1.2383970022201538,0.6346153846153846,0.8269230769230769,0.5,0.8571428571428571,0.0004
823,1.339503526687622,1.3498324155807495,0.6153846153846154,0.8269230769230769,0.42857142857142855,0.8571428571428571,0.0004
824,1.3139945268630981,1.263216495513916,0.5384615384615384,0.8269230769230769,0.5,0.8571428571428571,0.0004
825,1.3311741352081299,1.21528959274292,0.5,0.8269230769230769,0.5714285714285714,0.8571428571428571,0.0004
826,1.262869954109192,1.1633288860321045,0.5,0.8269230769230769,0.6428571428571429,0.8571428571428571,0.0004
827,1.3430511355400085,1.2526028156280518,0.5192307692307693,0.8269230769230769,0.5,0.8571428571428571,0.0004
828,1.3646540641784668,1.2271573543548584,0.5576923076923077,0.8269230769230769,0.6428571428571429,0.8571428571428571,0.0004
829,1.3923402428627014,1.2238351106643677,0.5384615384615384,0.8269230769230769,0.7857142857142857,0.8571428571428571,0.0004
830,1.2672120332717896,1.1672911643981934,0.5769230769230769,0.8269230769230769,0.6428571428571429,0.8571428571428571,0.0004
831,1.3841305375099182,1.0586600303649902,0.5,0.8269230769230769,0.6428571428571429,0.8571428571428571,0.0004
832,1.301079273223877,1.251328706741333,0.5576923076923077,0.8269230769230769,0.5714285714285714,0.8571428571428571,0.0004
833,1.287734568119049,1.3133552074432373,0.5192307692307693,0.8269230769230769,0.5714285714285714,0.8571428571428571,0.0004
834,1.3431615829467773,1.2982423305511475,0.5192307692307693,0.8269230769230769,0.35714285714285715,0.8571428571428571,0.0004
835,1.3297055959701538,1.574604868888855,0.5384615384615384,0.8269230769230769,0.35714285714285715,0.8571428571428571,0.0004
836,1.3445690274238586,1.5273956060409546,0.5,0.8269230769230769,0.5,0.8571428571428571,0.0004
837,1.3601189255714417,1.3673357963562012,0.5192307692307693,0.8269230769230769,0.42857142857142855,0.8571428571428571,0.0004
838,1.3994990587234497,1.520151138305664,0.5384615384615384,0.8269230769230769,0.5,0.8571428571428571,0.0004
839,1.2645219564437866,1.18687903881073,0.5769230769230769,0.8269230769230769,0.5,0.8571428571428571,0.0004
840,1.3128798007965088,1.1495227813720703,0.5192307692307693,0.8269230769230769,0.7142857142857143,0.8571428571428571,0.0004
841,1.4180691242218018,1.2337793111801147,0.5384615384615384,0.8461538461538461,0.5714285714285714,0.8571428571428571,0.0004
842,1.2763822078704834,1.1264925003051758,0.5576923076923077,0.8269230769230769,0.7142857142857143,0.8571428571428571,0.0004
843,1.3388133645057678,1.1997501850128174,0.5576923076923077,0.8269230769230769,0.5714285714285714,0.8571428571428571,0.0004
844,1.3435814380645752,1.0538140535354614,0.5769230769230769,0.8076923076923077,0.7857142857142857,0.8571428571428571,0.0004
845,1.2341127395629883,1.081634283065796,0.6153846153846154,0.8461538461538461,0.7142857142857143,0.8571428571428571,0.0004
846,1.2432105541229248,1.9462811946868896,0.4807692307692308,0.8269230769230769,0.35714285714285715,0.8571428571428571,0.0004
847,1.2896445393562317,1.2881280183792114,0.5,0.8269230769230769,0.5,0.8571428571428571,0.0004
848,1.33926659822464,1.436911702156067,0.5192307692307693,0.8269230769230769,0.6428571428571429,0.8571428571428571,0.0004
849,1.295111060142517,0.9544322490692139,0.4807692307692308,0.8269230769230769,0.6428571428571429,0.8571428571428571,0.0004
850,1.1960513591766357,1.378729224205017,0.6346153846153846,0.8269230769230769,0.5,0.8571428571428571,0.0004
851,1.4014196395874023,1.498765230178833,0.5576923076923077,0.8076923076923077,0.42857142857142855,0.8571428571428571,0.0004
852,1.4132054448127747,0.9122668504714966,0.5384615384615384,0.8269230769230769,0.7857142857142857,0.8571428571428571,0.0004
853,1.3808649778366089,1.081770896911621,0.5,0.8269230769230769,0.7857142857142857,0.8571428571428571,0.0004
854,1.4252198934555054,1.2317503690719604,0.5576923076923077,0.8076923076923077,0.42857142857142855,0.8571428571428571,0.0004
855,1.4528756141662598,1.3710737228393555,0.5961538461538461,0.8076923076923077,0.6428571428571429,0.8571428571428571,0.0004
856,1.3627353310585022,1.509666919708252,0.5384615384615384,0.8269230769230769,0.21428571428571427,0.8571428571428571,0.0004
857,1.4663985967636108,1.5261266231536865,0.5576923076923077,0.8269230769230769,0.42857142857142855,0.8571428571428571,0.0004
858,1.3868220448493958,1.3976991176605225,0.5192307692307693,0.8461538461538461,0.5,0.8571428571428571,0.0004
859,1.366250455379486,1.3407533168792725,0.4807692307692308,0.8269230769230769,0.5,0.8571428571428571,0.0004
860,1.3829445838928223,1.3385677337646484,0.5576923076923077,0.8461538461538461,0.42857142857142855,0.8571428571428571,0.0004
861,1.187870979309082,1.4974768161773682,0.5961538461538461,0.8269230769230769,0.35714285714285715,0.8571428571428571,0.0004
862,1.3054873943328857,1.1874830722808838,0.5384615384615384,0.8269230769230769,0.42857142857142855,0.8571428571428571,0.0004
863,1.2091909050941467,1.3458698987960815,0.5961538461538461,0.8269230769230769,0.42857142857142855,0.8571428571428571,0.0004
864,1.1359630823135376,1.3933874368667603,0.6538461538461539,0.8269230769230769,0.5714285714285714,0.8571428571428571,0.0004
865,1.2854053974151611,1.2061947584152222,0.5192307692307693,0.8269230769230769,0.5714285714285714,0.8571428571428571,0.0004
866,1.3785446286201477,1.2424089908599854,0.5,0.8269230769230769,0.5714285714285714,0.8571428571428571,0.0004
867,1.5289385318756104,1.454638123512268,0.4807692307692308,0.8269230769230769,0.5,0.8571428571428571,0.0004
868,1.5552144050598145,1.535844326019287,0.40384615384615385,0.8269230769230769,0.42857142857142855,0.8571428571428571,0.0004
869,1.4526382684707642,1.3160370588302612,0.5,0.8269230769230769,0.5,0.8571428571428571,0.0004
870,1.526929259300232,1.5602638721466064,0.46153846153846156,0.8269230769230769,0.42857142857142855,0.8571428571428571,0.0004
871,1.5347121953964233,1.3350588083267212,0.4423076923076923,0.8269230769230769,0.5714285714285714,0.8571428571428571,0.0004
872,1.4374404549598694,1.2980517148971558,0.4423076923076923,0.8269230769230769,0.5714285714285714,0.8571428571428571,0.0004
873,1.5122543573379517,1.3806500434875488,0.40384615384615385,0.8269230769230769,0.5,0.8571428571428571,0.0004
874,1.4845679998397827,1.3637603521347046,0.4423076923076923,0.8269230769230769,0.42857142857142855,0.8571428571428571,0.0004
875,1.4442452788352966,1.453528642654419,0.4423076923076923,0.8269230769230769,0.2857142857142857,0.8571428571428571,0.0004
876,1.4794126749038696,1.2429914474487305,0.40384615384615385,0.8269230769230769,0.42857142857142855,0.8571428571428571,0.0004
877,1.3690290451049805,1.3993417024612427,0.5384615384615384,0.8269230769230769,0.5,0.8571428571428571,0.0004
878,1.4234117269515991,1.411374568939209,0.46153846153846156,0.8269230769230769,0.5,0.8571428571428571,0.0004
879,1.4383058547973633,1.1508527994155884,0.36538461538461536,0.8269230769230769,0.7857142857142857,0.8571428571428571,0.0004
880,1.4645772576332092,1.4648284912109375,0.5,0.8269230769230769,0.42857142857142855,0.8571428571428571,0.0004
881,1.5420096516609192,1.4702402353286743,0.38461538461538464,0.8269230769230769,0.42857142857142855,0.8571428571428571,0.0004
882,1.5137525796890259,1.2420101165771484,0.4230769230769231,0.8269230769230769,0.5714285714285714,0.8571428571428571,0.0004
883,1.565868854522705,1.473355770111084,0.40384615384615385,0.8269230769230769,0.5,0.8571428571428571,0.0004
884,1.480786144733429,1.2680821418762207,0.40384615384615385,0.8269230769230769,0.7142857142857143,0.8571428571428571,0.0004
885,1.4618673920631409,1.3201425075531006,0.4423076923076923,0.8269230769230769,0.6428571428571429,0.8571428571428571,0.0004
886,1.422398030757904,1.283738136291504,0.5,0.8269230769230769,0.5714285714285714,0.8571428571428571,0.0004
887,1.3241118788719177,1.4221606254577637,0.5576923076923077,0.8269230769230769,0.5,0.8571428571428571,0.0004
888,1.4863585233688354,1.3173770904541016,0.38461538461538464,0.8269230769230769,0.42857142857142855,0.8571428571428571,0.0004
889,1.4930090308189392,1.286247968673706,0.40384615384615385,0.8269230769230769,0.6428571428571429,0.8571428571428571,0.0004
890,1.40900319814682,1.3237770795822144,0.5384615384615384,0.8269230769230769,0.5714285714285714,0.8571428571428571,0.0004
891,1.441758155822754,1.5459702014923096,0.4230769230769231,0.8269230769230769,0.35714285714285715,0.8571428571428571,0.0004
892,1.5361453294754028,1.3085850477218628,0.38461538461538464,0.8269230769230769,0.5714285714285714,0.8571428571428571,0.0004
893,1.4072039127349854,1.1170380115509033,0.46153846153846156,0.8269230769230769,0.7857142857142857,0.8571428571428571,0.0004
894,1.3516939282417297,1.2904731035232544,0.4423076923076923,0.8269230769230769,0.7142857142857143,0.8571428571428571,0.0004
895,1.4797474145889282,1.3839292526245117,0.4230769230769231,0.8269230769230769,0.2857142857142857,0.8571428571428571,0.0004
896,1.4381775856018066,1.3238866329193115,0.4230769230769231,0.8269230769230769,0.5,0.8571428571428571,0.0004
897,1.3296564221382141,1.2207307815551758,0.4423076923076923,0.8269230769230769,0.5714285714285714,0.8571428571428571,0.0004
898,1.3776496052742004,1.141831398010254,0.4423076923076923,0.8269230769230769,0.7142857142857143,0.8571428571428571,0.0004
899,1.4890384078025818,1.2210004329681396,0.3269230769230769,0.8269230769230769,0.5714285714285714,0.8571428571428571,0.0004
900,1.5095123052597046,1.2612688541412354,0.38461538461538464,0.8269230769230769,0.42857142857142855,0.8571428571428571,0.0004
901,1.344904601573944,1.2590852975845337,0.46153846153846156,0.8269230769230769,0.35714285714285715,0.8571428571428571,0.0004
902,1.45176362991333,1.2247573137283325,0.38461538461538464,0.8269230769230769,0.6428571428571429,0.8571428571428571,0.0004
903,1.3614076375961304,1.421806812286377,0.40384615384615385,0.8269230769230769,0.5,0.8571428571428571,0.0004
904,1.3663493990898132,1.371075987815857,0.4807692307692308,0.8269230769230769,0.5714285714285714,0.8571428571428571,0.0004
905,1.366447925567627,1.0239038467407227,0.4807692307692308,0.8269230769230769,0.8571428571428571,0.8571428571428571,0.0004
906,1.496195137500763,1.2620387077331543,0.46153846153846156,0.8269230769230769,0.6428571428571429,0.8571428571428571,0.0004
907,1.3006238341331482,1.1662462949752808,0.5192307692307693,0.8269230769230769,0.5714285714285714,0.8571428571428571,0.0004
908,1.2336961030960083,1.2412278652191162,0.6346153846153846,0.8269230769230769,0.7142857142857143,0.8571428571428571,0.0004
909,1.3057259321212769,1.0661327838897705,0.5769230769230769,0.8269230769230769,0.7857142857142857,0.8571428571428571,0.0004
910,1.3527497053146362,1.3739588260650635,0.5384615384615384,0.8269230769230769,0.42857142857142855,0.8571428571428571,0.0004
911,1.3396497964859009,1.2821273803710938,0.5192307692307693,0.8269230769230769,0.5714285714285714,0.8571428571428571,0.0004
912,1.446455180644989,1.2996608018875122,0.4230769230769231,0.8269230769230769,0.5,0.8571428571428571,0.0004
913,1.298918604850769,1.452826738357544,0.4807692307692308,0.8269230769230769,0.42857142857142855,0.8571428571428571,0.0004
914,1.3200982213020325,1.332235336303711,0.5192307692307693,0.8269230769230769,0.5714285714285714,0.8571428571428571,0.0004
915,1.3599860668182373,1.2408528327941895,0.5,0.8269230769230769,0.5714285714285714,0.8571428571428571,0.0004
916,1.4208104610443115,0.9612177014350891,0.4807692307692308,0.8269230769230769,0.7142857142857143,0.8571428571428571,0.0004
917,1.3929862976074219,1.6377217769622803,0.5,0.8269230769230769,0.42857142857142855,0.8571428571428571,0.0004
918,1.3665515780448914,1.321487307548523,0.5384615384615384,0.8269230769230769,0.7142857142857143,0.8571428571428571,0.0004
919,1.2389646768569946,0.9204391241073608,0.5192307692307693,0.8269230769230769,0.7857142857142857,0.8571428571428571,0.0004
920,1.350472092628479,1.334019660949707,0.5769230769230769,0.8269230769230769,0.5,0.8571428571428571,0.0004
921,1.432831346988678,1.2610841989517212,0.4807692307692308,0.8076923076923077,0.5714285714285714,0.8571428571428571,0.0004
922,1.3278768062591553,1.0180613994598389,0.5384615384615384,0.8269230769230769,0.7142857142857143,0.8571428571428571,0.0004
923,1.2967445850372314,1.0189032554626465,0.5769230769230769,0.8269230769230769,0.7142857142857143,0.8571428571428571,0.0004
924,1.369217872619629,1.32997727394104,0.5192307692307693,0.8269230769230769,0.5714285714285714,0.8571428571428571,0.0004
925,1.4057751297950745,1.2979332208633423,0.5192307692307693,0.8076923076923077,0.5714285714285714,0.8571428571428571,0.0004
926,1.5039324164390564,1.3139408826828003,0.4423076923076923,0.8269230769230769,0.5,0.8571428571428571,0.0004
927,1.3895576000213623,1.323285460472107,0.5769230769230769,0.8076923076923077,0.5714285714285714,0.8571428571428571,0.0004
928,1.1807480454444885,1.304316759109497,0.6538461538461539,0.8269230769230769,0.6428571428571429,0.8571428571428571,0.0004
929,1.2971840500831604,1.5236482620239258,0.6153846153846154,0.8269230769230769,0.7142857142857143,0.8571428571428571,0.0004
930,1.3535959720611572,1.2352442741394043,0.5961538461538461,0.8269230769230769,0.6428571428571429,0.8571428571428571,0.0004
931,1.3642150163650513,1.6905484199523926,0.5769230769230769,0.8461538461538461,0.42857142857142855,0.8571428571428571,0.0004
932,1.4276524782180786,1.4489126205444336,0.5,0.8269230769230769,0.5714285714285714,0.8571428571428571,0.0004
933,1.22080659866333,1.646605134010315,0.6538461538461539,0.8269230769230769,0.6428571428571429,0.8571428571428571,0.0004
934,1.3143236637115479,1.10380220413208,0.5576923076923077,0.8269230769230769,0.7857142857142857,0.8571428571428571,0.0004
935,1.3769252300262451,1.1783514022827148,0.6346153846153846,0.8269230769230769,0.7142857142857143,0.8571428571428571,0.0004
936,1.289071500301361,1.5515944957733154,0.5384615384615384,0.8269230769230769,0.5,0.8571428571428571,0.0004
937,1.2833548784255981,1.1980376243591309,0.5961538461538461,0.8269230769230769,0.6428571428571429,0.8571428571428571,0.0004
938,1.2571099400520325,1.2746938467025757,0.5961538461538461,0.8269230769230769,0.6428571428571429,0.8571428571428571,0.0004
939,1.262984812259674,1.2026796340942383,0.5769230769230769,0.8269230769230769,0.7142857142857143,0.8571428571428571,0.0004
940,1.3119822144508362,1.042822241783142,0.5769230769230769,0.8269230769230769,0.8571428571428571,0.8571428571428571,0.0004
941,1.355362057685852,1.1940323114395142,0.5192307692307693,0.8269230769230769,0.5714285714285714,0.8571428571428571,0.0004
942,1.2731885313987732,1.2566118240356445,0.5769230769230769,0.8269230769230769,0.5714285714285714,0.8571428571428571,0.0004
943,1.3290079236030579,1.3674347400665283,0.5384615384615384,0.8269230769230769,0.7142857142857143,0.8571428571428571,0.0004
944,1.2600587606430054,1.1293392181396484,0.6538461538461539,0.8269230769230769,0.7142857142857143,0.8571428571428571,0.0004
945,1.2867534160614014,1.237395167350769,0.4807692307692308,0.8269230769230769,0.7142857142857143,0.8571428571428571,0.0004
946,1.2533594965934753,1.466372013092041,0.5769230769230769,0.8269230769230769,0.6428571428571429,0.8571428571428571,0.0004
947,1.3205139636993408,1.5170643329620361,0.5,0.8269230769230769,0.5,0.8571428571428571,0.0004
948,1.2620426416397095,1.1700029373168945,0.5384615384615384,0.8269230769230769,0.5,0.8571428571428571,0.0004
949,1.3659559488296509,1.2375333309173584,0.5,0.8269230769230769,0.6428571428571429,0.8571428571428571,0.0004
950,1.3393279314041138,1.1207621097564697,0.4423076923076923,0.8269230769230769,0.7142857142857143,0.8571428571428571,0.0004
951,1.4078512787818909,1.2366752624511719,0.5192307692307693,0.8269230769230769,0.7857142857142857,0.8571428571428571,0.0004
952,1.2887051105499268,1.0707430839538574,0.5769230769230769,0.8269230769230769,0.7857142857142857,0.8571428571428571,0.0004
953,1.1017160415649414,1.4121556282043457,0.6923076923076923,0.8269230769230769,0.5714285714285714,0.8571428571428571,0.0004
954,1.263729751110077,1.0966659784317017,0.46153846153846156,0.8269230769230769,0.7857142857142857,0.8571428571428571,0.0004
955,1.4045310020446777,1.4777417182922363,0.5192307692307693,0.8076923076923077,0.5714285714285714,0.8571428571428571,0.0004
956,1.3894434571266174,1.1564021110534668,0.5769230769230769,0.8269230769230769,0.6428571428571429,0.8571428571428571,0.0004
957,1.401977777481079,1.310373306274414,0.5769230769230769,0.8269230769230769,0.7142857142857143,0.8571428571428571,0.0004
958,1.251352310180664,0.971123456954956,0.6346153846153846,0.8461538461538461,0.9285714285714286,0.8571428571428571,0.0004
959,1.3945858478546143,1.356892704963684,0.5576923076923077,0.8653846153846154,0.5,0.8571428571428571,0.0004
960,1.3791889548301697,1.2272634506225586,0.46153846153846156,0.8269230769230769,0.7142857142857143,0.8571428571428571,0.0004
961,1.315665364265442,1.1819125413894653,0.5384615384615384,0.8461538461538461,0.6428571428571429,0.8571428571428571,0.0004
962,1.4082262516021729,1.1705121994018555,0.40384615384615385,0.8269230769230769,0.5,0.8571428571428571,0.0004
963,1.3459811806678772,1.0816010236740112,0.5,0.8269230769230769,0.6428571428571429,0.8571428571428571,0.0004
964,1.2754127383232117,1.4706571102142334,0.4807692307692308,0.8269230769230769,0.5714285714285714,0.8571428571428571,0.0004
965,1.2937232851982117,1.3697623014450073,0.5192307692307693,0.8269230769230769,0.7857142857142857,0.8571428571428571,0.0004
966,1.436439335346222,1.1819578409194946,0.4423076923076923,0.8269230769230769,0.5,0.8571428571428571,0.0004
967,1.2634556889533997,1.1203449964523315,0.5769230769230769,0.8269230769230769,0.7142857142857143,0.8571428571428571,0.0004
968,1.3021052479743958,1.1979647874832153,0.4423076923076923,0.8076923076923077,0.7857142857142857,0.8571428571428571,0.0004
969,1.2787160873413086,1.0292739868164062,0.5769230769230769,0.8269230769230769,0.8571428571428571,0.8571428571428571,0.0004
970,1.324992060661316,1.3666383028030396,0.5384615384615384,0.8269230769230769,0.5714285714285714,0.8571428571428571,0.0004
971,1.3079493641853333,1.2156977653503418,0.5961538461538461,0.8076923076923077,0.5714285714285714,0.8571428571428571,0.0004
972,1.364901840686798,1.221571922302246,0.5961538461538461,0.8076923076923077,0.6428571428571429,0.8571428571428571,0.0004
973,1.4679870009422302,1.4338047504425049,0.5576923076923077,0.8269230769230769,0.5,0.8571428571428571,0.0004
