epoch,train_loss,val_loss,train_acc_action,train_acc_status,val_acc_action,val_acc_status,learning_rate
1,1.7726107239723206,1.7657755613327026,0.3076923076923077,0.8076923076923077,0.42857142857142855,0.8571428571428571,0.0004
2,1.7724900841712952,1.7239158153533936,0.3269230769230769,0.8269230769230769,0.42857142857142855,0.8571428571428571,0.004995066821070679
3,1.7204203605651855,1.5940377712249756,0.34615384615384615,0.8269230769230769,0.21428571428571427,0.8571428571428571,0.004980286753286195
4,1.5529589653015137,1.6068954467773438,0.34615384615384615,0.8269230769230769,0.21428571428571427,0.8571428571428571,0.004955718126821722
5,1.680891513824463,1.546401858329773,0.36538461538461536,0.8269230769230769,0.21428571428571427,0.8571428571428571,0.004921457902821578
6,1.656754493713379,1.5042963027954102,0.38461538461538464,0.8269230769230769,0.42857142857142855,0.8571428571428571,0.0048776412907378846
7,1.6262294054031372,1.5535056591033936,0.2692307692307692,0.8269230769230769,0.42857142857142855,0.8571428571428571,0.004824441214720628
8,1.6162195801734924,1.5711729526519775,0.38461538461538464,0.8269230769230769,0.42857142857142855,0.8571428571428571,0.004762067631165049
9,1.6614460349082947,1.5665695667266846,0.28846153846153844,0.8269230769230769,0.42857142857142855,0.8571428571428571,0.0046907667001096585
10,1.5966682434082031,1.5582876205444336,0.38461538461538464,0.8269230769230769,0.35714285714285715,0.8571428571428571,0.004610819813755038
11,1.5995548963546753,1.545250415802002,0.38461538461538464,0.8269230769230769,0.35714285714285715,0.8571428571428571,0.0045225424859373685
12,1.5916528701782227,1.543628454208374,0.46153846153846156,0.8269230769230769,0.35714285714285715,0.8571428571428571,0.004426283106939473
13,1.5731598138809204,1.5405585765838623,0.36538461538461536,0.8269230769230769,0.35714285714285715,0.8571428571428571,0.004322421568553529
14,1.5862699151039124,1.547620415687561,0.25,0.8269230769230769,0.21428571428571427,0.8571428571428571,0.004211367764821722
15,1.5252792239189148,1.5495206117630005,0.4230769230769231,0.8269230769230769,0.21428571428571427,0.8571428571428571,0.004093559974371724
16,1.6228167414665222,1.5573344230651855,0.28846153846153844,0.8269230769230769,0.21428571428571427,0.8571428571428571,0.003969463130731183
17,1.6738824844360352,1.5589444637298584,0.36538461538461536,0.8269230769230769,0.21428571428571427,0.8571428571428571,0.0038395669874474914
18,1.531573235988617,1.5563910007476807,0.4230769230769231,0.8269230769230769,0.21428571428571427,0.8571428571428571,0.0037043841852542883
19,1.5994803309440613,1.5482022762298584,0.38461538461538464,0.8269230769230769,0.21428571428571427,0.8571428571428571,0.003564448228912682
20,1.5571156740188599,1.548203945159912,0.3269230769230769,0.8269230769230769,0.21428571428571427,0.8571428571428571,0.0034203113817116953
21,1.6246138215065002,1.5481998920440674,0.2692307692307692,0.8269230769230769,0.21428571428571427,0.8571428571428571,0.0032725424859373687
22,1.5400123000144958,1.5521798133850098,0.4230769230769231,0.8269230769230769,0.21428571428571427,0.8571428571428571,0.0031217247179121366
23,1.560279130935669,1.5537257194519043,0.34615384615384615,0.8269230769230769,0.21428571428571427,0.8571428571428571,0.002968453286464312
24,1.5760291814804077,1.5488872528076172,0.3269230769230769,0.8269230769230769,0.21428571428571427,0.8571428571428571,0.002813333083910761
25,1.6044774055480957,1.5495805740356445,0.38461538461538464,0.8269230769230769,0.21428571428571427,0.8571428571428571,0.0026569762988232835
26,1.6206213235855103,1.5454505681991577,0.25,0.8269230769230769,0.21428571428571427,0.8571428571428571,0.0025
27,1.5591868162155151,1.548134684562683,0.40384615384615385,0.8269230769230769,0.21428571428571427,0.8571428571428571,0.0023430237011767166
28,1.5715456008911133,1.5507566928863525,0.2692307692307692,0.8269230769230769,0.21428571428571427,0.8571428571428571,0.0021866669160892395
29,1.6080623865127563,1.5444543361663818,0.28846153846153844,0.8269230769230769,0.21428571428571427,0.8571428571428571,0.0020315467135356884
30,1.5687664151191711,1.5470441579818726,0.36538461538461536,0.8269230769230769,0.21428571428571427,0.8571428571428571,0.0018782752820878628
31,1.5980753302574158,1.5478192567825317,0.2692307692307692,0.8269230769230769,0.21428571428571427,0.8571428571428571,0.0017274575140626323
32,1.5395076870918274,1.5459580421447754,0.40384615384615385,0.8269230769230769,0.21428571428571427,0.8571428571428571,0.0015796886182883059
33,1.6747490167617798,1.5407238006591797,0.38461538461538464,0.8269230769230769,0.21428571428571427,0.8571428571428571,0.0014355517710873183
34,1.5788609981536865,1.5385737419128418,0.28846153846153844,0.8269230769230769,0.21428571428571427,0.8571428571428571,0.0012956158147457114
35,1.6040202379226685,1.5407724380493164,0.23076923076923078,0.8269230769230769,0.21428571428571427,0.8571428571428571,0.0011604330125525079
36,1.6155428290367126,1.541867733001709,0.34615384615384615,0.8269230769230769,0.21428571428571427,0.8571428571428571,0.0010305368692688174
37,1.517590045928955,1.5408093929290771,0.4423076923076923,0.8269230769230769,0.21428571428571427,0.8571428571428571,0.0009064400256282757
38,1.5945602655410767,1.5373603105545044,0.40384615384615385,0.8269230769230769,0.21428571428571427,0.8571428571428571,0.0007886322351782782
39,1.6163678765296936,1.5433158874511719,0.3269230769230769,0.8269230769230769,0.21428571428571427,0.8571428571428571,0.0006775784314464717
40,1.5442762970924377,1.5415180921554565,0.3269230769230769,0.8269230769230769,0.21428571428571427,0.8571428571428571,0.0005737168930605272
41,1.6301748752593994,1.542257308959961,0.25,0.8269230769230769,0.21428571428571427,0.8571428571428571,0.00047745751406263163
42,1.5449169874191284,1.5452661514282227,0.4230769230769231,0.8269230769230769,0.21428571428571427,0.8571428571428571,0.00038918018624496285
43,1.5781399607658386,1.5364669561386108,0.4423076923076923,0.8269230769230769,0.21428571428571427,0.8571428571428571,0.00030923329989034103
44,1.5734527111053467,1.5386747121810913,0.34615384615384615,0.8269230769230769,0.21428571428571427,0.8571428571428571,0.00023793236883495162
45,1.566152036190033,1.5378201007843018,0.3269230769230769,0.8269230769230769,0.21428571428571427,0.8571428571428571,0.00017555878527937164
46,1.5575506091117859,1.5349862575531006,0.25,0.8269230769230769,0.21428571428571427,0.8571428571428571,0.00012235870926211617
47,1.57711923122406,1.5393925905227661,0.46153846153846156,0.8269230769230769,0.21428571428571427,0.8571428571428571,7.854209717842258e-05
48,1.5375412106513977,1.536712884902954,0.34615384615384615,0.8269230769230769,0.21428571428571427,0.8571428571428571,4.4281873178278196e-05
49,1.5550562143325806,1.5397605895996094,0.3269230769230769,0.8269230769230769,0.21428571428571427,0.8571428571428571,1.9713246713805587e-05
50,1.6367809772491455,1.5417156219482422,0.28846153846153844,0.8269230769230769,0.21428571428571427,0.8571428571428571,4.933178929321102e-06
51,1.5826573371887207,1.5306214094161987,0.34615384615384615,0.8269230769230769,0.21428571428571427,0.8571428571428571,0.005
52,1.5776998400688171,1.538483738899231,0.34615384615384615,0.8269230769230769,0.21428571428571427,0.8571428571428571,0.0049987664009143295
53,1.5380105376243591,1.5407254695892334,0.4230769230769231,0.8269230769230769,0.21428571428571427,0.8571428571428571,0.004995066821070679
54,1.5285326838493347,1.544511079788208,0.36538461538461536,0.8269230769230769,0.21428571428571427,0.8571428571428571,0.0049889049115077
55,1.5634582042694092,1.5467417240142822,0.36538461538461536,0.8269230769230769,0.21428571428571427,0.8571428571428571,0.004980286753286195
56,1.546565592288971,1.5471043586730957,0.40384615384615385,0.8269230769230769,0.21428571428571427,0.8571428571428571,0.0049692208514878445
57,1.5932562947273254,1.551524043083191,0.36538461538461536,0.8269230769230769,0.21428571428571427,0.8571428571428571,0.004955718126821722
58,1.5280916690826416,1.546427845954895,0.36538461538461536,0.8269230769230769,0.21428571428571427,0.8571428571428571,0.004939791904846869
59,1.5720182657241821,1.541264533996582,0.36538461538461536,0.8269230769230769,0.21428571428571427,0.8571428571428571,0.004921457902821578
60,1.611605942249298,1.5459321737289429,0.3076923076923077,0.8269230769230769,0.21428571428571427,0.8571428571428571,0.004900734214192358
61,1.6325164437294006,1.5124009847640991,0.34615384615384615,0.8269230769230769,0.21428571428571427,0.8571428571428571,0.0048776412907378846
62,1.5706816911697388,1.5762019157409668,0.3076923076923077,0.8269230769230769,0.21428571428571427,0.8571428571428571,0.004852201922385564
63,1.5778236389160156,1.53628671169281,0.46153846153846156,0.8269230769230769,0.14285714285714285,0.8571428571428571,0.004824441214720628
64,1.555578351020813,1.5441462993621826,0.3269230769230769,0.8269230769230769,0.21428571428571427,0.8571428571428571,0.0047943865642099525
65,1.6037161350250244,1.5206094980239868,0.36538461538461536,0.8269230769230769,0.35714285714285715,0.8571428571428571,0.004762067631165049
66,1.5896371006965637,1.5103588104248047,0.36538461538461536,0.8269230769230769,0.5,0.8571428571428571,0.00472751631047092
67,1.627321481704712,1.5152474641799927,0.34615384615384615,0.8269230769230769,0.42857142857142855,0.8571428571428571,0.0046907667001096585
68,1.56492018699646,1.5203800201416016,0.3269230769230769,0.8269230769230769,0.21428571428571427,0.8571428571428571,0.0046518550675098596
69,1.5686199069023132,1.4876848459243774,0.2692307692307692,0.8269230769230769,0.2857142857142857,0.8571428571428571,0.004610819813755038
70,1.5897234678268433,1.5233567953109741,0.3076923076923077,0.8269230769230769,0.2857142857142857,0.8571428571428571,0.004567701435686404
71,1.6000618934631348,1.5099648237228394,0.28846153846153844,0.8269230769230769,0.5,0.8571428571428571,0.0045225424859373685
72,1.6035465598106384,1.5340406894683838,0.28846153846153844,0.8269230769230769,0.35714285714285715,0.8571428571428571,0.0044753875309392266
73,1.5642383694648743,1.5375216007232666,0.3269230769230769,0.8269230769230769,0.35714285714285715,0.8571428571428571,0.004426283106939473
74,1.5454675555229187,1.5192580223083496,0.3269230769230769,0.8269230769230769,0.35714285714285715,0.8571428571428571,0.004375277674076149
75,1.5396978259086609,1.509300947189331,0.3076923076923077,0.8269230769230769,0.2857142857142857,0.8571428571428571,0.004322421568553529
76,1.5795775651931763,1.5049386024475098,0.36538461538461536,0.8269230769230769,0.21428571428571427,0.8571428571428571,0.004267766952966369
77,1.575150728225708,1.5270137786865234,0.3076923076923077,0.8269230769230769,0.14285714285714285,0.8571428571428571,0.004211367764821722
78,1.5220328569412231,1.5095340013504028,0.40384615384615385,0.8269230769230769,0.14285714285714285,0.8571428571428571,0.00415327966330913
79,1.5741946697235107,1.488182544708252,0.38461538461538464,0.8269230769230769,0.2857142857142857,0.8571428571428571,0.004093559974371724
80,1.5422942638397217,1.4713451862335205,0.40384615384615385,0.8269230769230769,0.2857142857142857,0.8571428571428571,0.004032267634132442
81,1.7752920985221863,1.9324629306793213,0.36538461538461536,0.8269230769230769,0.21428571428571427,0.8571428571428571,0.003969463130731183
82,1.7703041434288025,1.7341728210449219,0.36538461538461536,0.8269230769230769,0.21428571428571427,0.8571428571428571,0.003905208444630327
83,1.6434491872787476,1.5799872875213623,0.3269230769230769,0.8269230769230769,0.21428571428571427,0.8571428571428571,0.0038395669874474914
84,1.5933589339256287,1.5555241107940674,0.38461538461538464,0.8269230769230769,0.2857142857142857,0.8571428571428571,0.0037726035393759283
85,1.5672850012779236,1.5455117225646973,0.36538461538461536,0.8269230769230769,0.35714285714285715,0.8571428571428571,0.0037043841852542883
86,1.590211272239685,1.5148290395736694,0.38461538461538464,0.8269230769230769,0.35714285714285715,0.8571428571428571,0.003634976249348867
87,1.5998879671096802,1.4807727336883545,0.34615384615384615,0.8269230769230769,0.5,0.8571428571428571,0.003564448228912682
88,1.5905479788780212,1.4948275089263916,0.34615384615384615,0.8269230769230769,0.2857142857142857,0.8571428571428571,0.003492869726586951
89,1.5800244212150574,1.532165765762329,0.4230769230769231,0.8269230769230769,0.35714285714285715,0.8571428571428571,0.0034203113817116953
90,1.581180989742279,1.4986660480499268,0.25,0.8269230769230769,0.5,0.8571428571428571,0.0033468448006132292
91,1.6064651608467102,1.450755000114441,0.3076923076923077,0.8269230769230769,0.5,0.8571428571428571,0.0032725424859373687
92,1.5877038836479187,1.4704828262329102,0.2692307692307692,0.8269230769230769,0.5,0.8571428571428571,0.0031974777650980737
93,1.6012225151062012,1.48524808883667,0.28846153846153844,0.8269230769230769,0.5,0.8571428571428571,0.0031217247179121366
94,1.5076836347579956,1.4951268434524536,0.40384615384615385,0.8269230769230769,0.42857142857142855,0.8571428571428571,0.0030453581034913567
95,1.6865212321281433,1.4965300559997559,0.2692307692307692,0.8269230769230769,0.42857142857142855,0.8571428571428571,0.002968453286464312
96,1.6285094618797302,1.4976242780685425,0.38461538461538464,0.8269230769230769,0.42857142857142855,0.8571428571428571,0.0028910861626005773
97,1.549245536327362,1.4725217819213867,0.40384615384615385,0.8269230769230769,0.42857142857142855,0.8571428571428571,0.002813333083910761
98,1.5704957842826843,1.4550296068191528,0.36538461538461536,0.8269230769230769,0.42857142857142855,0.8571428571428571,0.002735270783296286
99,1.5144847631454468,1.4657396078109741,0.38461538461538464,0.8269230769230769,0.35714285714285715,0.8571428571428571,0.0026569762988232835
100,1.5572827458381653,1.4359163045883179,0.34615384615384615,0.8269230769230769,0.35714285714285715,0.8571428571428571,0.0025785268976953207
101,1.5385403037071228,1.4084489345550537,0.28846153846153844,0.8269230769230769,0.5,0.8571428571428571,0.0025
102,1.5445129871368408,1.432985544204712,0.38461538461538464,0.8269230769230769,0.42857142857142855,0.8571428571428571,0.0024214731023046794
103,1.4395256042480469,1.6486995220184326,0.34615384615384615,0.8269230769230769,0.2857142857142857,0.8571428571428571,0.0023430237011767166
104,1.5445212721824646,1.3857519626617432,0.25,0.8269230769230769,0.5,0.8571428571428571,0.002264729216703714
105,1.4646350741386414,1.4690077304840088,0.38461538461538464,0.8269230769230769,0.35714285714285715,0.8571428571428571,0.0021866669160892395
106,1.487999975681305,1.6136841773986816,0.2692307692307692,0.8269230769230769,0.35714285714285715,0.8571428571428571,0.002108913837399423
107,1.5116461515426636,1.6757880449295044,0.38461538461538464,0.8269230769230769,0.2857142857142857,0.8571428571428571,0.0020315467135356884
108,1.432505488395691,1.6760507822036743,0.40384615384615385,0.8269230769230769,0.42857142857142855,0.8571428571428571,0.0019546418965086442
109,1.4684202671051025,1.4434103965759277,0.4230769230769231,0.8269230769230769,0.35714285714285715,0.8571428571428571,0.0018782752820878628
110,1.4523427486419678,1.4198815822601318,0.36538461538461536,0.8269230769230769,0.42857142857142855,0.8571428571428571,0.001802522234901927
111,1.3922447562217712,1.4448559284210205,0.5192307692307693,0.8269230769230769,0.42857142857142855,0.8571428571428571,0.0017274575140626323
112,1.4662782549858093,1.758411169052124,0.3269230769230769,0.8269230769230769,0.35714285714285715,0.8571428571428571,0.0016531551993867715
113,1.4133746027946472,1.6851623058319092,0.38461538461538464,0.8269230769230769,0.42857142857142855,0.8571428571428571,0.0015796886182883059
114,1.5341215133666992,1.7947585582733154,0.38461538461538464,0.8269230769230769,0.2857142857142857,0.8571428571428571,0.0015071302734130482
115,1.4103929996490479,1.2410889863967896,0.4423076923076923,0.8269230769230769,0.42857142857142855,0.8571428571428571,0.0014355517710873183
116,1.5050241947174072,1.448128342628479,0.34615384615384615,0.8269230769230769,0.42857142857142855,0.8571428571428571,0.0013650237506511332
117,1.4341946840286255,1.754454255104065,0.36538461538461536,0.8269230769230769,0.35714285714285715,0.8571428571428571,0.0012956158147457114
118,1.4825499057769775,1.8291714191436768,0.34615384615384615,0.8269230769230769,0.2857142857142857,0.8571428571428571,0.0012273964606240718
119,1.6192064881324768,1.386099100112915,0.38461538461538464,0.8269230769230769,0.42857142857142855,0.8571428571428571,0.0011604330125525079
120,1.4429467916488647,1.6566635370254517,0.40384615384615385,0.8269230769230769,0.42857142857142855,0.8571428571428571,0.0010947915553696733
121,1.4954096674919128,1.3573856353759766,0.40384615384615385,0.8269230769230769,0.5,0.8571428571428571,0.0010305368692688174
122,1.438642680644989,1.547868251800537,0.4807692307692308,0.8269230769230769,0.35714285714285715,0.8571428571428571,0.0009677323658675585
123,1.4913409948349,2.040863037109375,0.5,0.8269230769230769,0.2857142857142857,0.8571428571428571,0.0009064400256282757
124,1.3866263031959534,1.4019534587860107,0.38461538461538464,0.8269230769230769,0.5,0.8571428571428571,0.0008467203366908707
125,1.6004042625427246,1.451987385749817,0.28846153846153844,0.8269230769230769,0.42857142857142855,0.8571428571428571,0.0007886322351782782
126,1.388538897037506,1.348622441291809,0.46153846153846156,0.8269230769230769,0.5,0.8571428571428571,0.0007322330470336313
127,1.4080520272254944,1.3518203496932983,0.5,0.8269230769230769,0.42857142857142855,0.8571428571428571,0.0006775784314464717
128,1.472719967365265,1.2804608345031738,0.38461538461538464,0.8269230769230769,0.42857142857142855,0.8571428571428571,0.0006247223259238514
129,1.4445498585700989,1.3764210939407349,0.5,0.8269230769230769,0.5,0.8571428571428571,0.0005737168930605272
130,1.4751195907592773,1.383349061012268,0.4230769230769231,0.8269230769230769,0.35714285714285715,0.8571428571428571,0.000524612469060774
131,1.4685035943984985,1.4628429412841797,0.4230769230769231,0.8269230769230769,0.42857142857142855,0.8571428571428571,0.00047745751406263163
132,1.4480983018875122,1.618908405303955,0.40384615384615385,0.8269230769230769,0.42857142857142855,0.8571428571428571,0.000432298564313596
133,1.4877857565879822,1.8910678625106812,0.40384615384615385,0.8269230769230769,0.21428571428571427,0.8571428571428571,0.00038918018624496285
134,1.5230345726013184,1.361908197402954,0.5384615384615384,0.8269230769230769,0.5,0.8571428571428571,0.0003481449324901406
135,1.4986976385116577,1.5176572799682617,0.5,0.8269230769230769,0.5,0.8571428571428571,0.00030923329989034103
136,1.395621120929718,1.496976375579834,0.36538461538461536,0.8269230769230769,0.2857142857142857,0.8571428571428571,0.00027248368952908055
137,1.645439863204956,1.270815372467041,0.34615384615384615,0.8269230769230769,0.5714285714285714,0.8571428571428571,0.00023793236883495162
138,1.4170640110969543,1.437098741531372,0.46153846153846156,0.8269230769230769,0.35714285714285715,0.8571428571428571,0.0002056134357900477
139,1.5249727964401245,1.994890570640564,0.3269230769230769,0.8269230769230769,0.21428571428571427,0.8571428571428571,0.00017555878527937164
140,1.5508041381835938,1.2951548099517822,0.38461538461538464,0.8269230769230769,0.42857142857142855,0.8571428571428571,0.00014779807761443637
141,1.4877216815948486,1.60554838180542,0.4423076923076923,0.8269230769230769,0.2857142857142857,0.8571428571428571,0.00012235870926211617
142,1.6024749279022217,1.6017630100250244,0.40384615384615385,0.8269230769230769,0.35714285714285715,0.8571428571428571,9.926578580764262e-05
143,1.515705943107605,1.3947644233703613,0.5,0.8269230769230769,0.42857142857142855,0.8571428571428571,7.854209717842258e-05
144,1.5006492733955383,1.8438725471496582,0.4230769230769231,0.8269230769230769,0.2857142857142857,0.8571428571428571,6.0208095153131695e-05
145,1.4595194458961487,1.6862365007400513,0.4230769230769231,0.8269230769230769,0.2857142857142857,0.8571428571428571,4.4281873178278196e-05
146,1.3795884847640991,1.5150909423828125,0.5384615384615384,0.8269230769230769,0.42857142857142855,0.8571428571428571,3.077914851215585e-05
147,1.4005383253097534,1.6702253818511963,0.5384615384615384,0.8269230769230769,0.2857142857142857,0.8571428571428571,1.9713246713805587e-05
148,1.7441923022270203,1.2982256412506104,0.40384615384615385,0.8269230769230769,0.42857142857142855,0.8571428571428571,1.109508849230001e-05
149,1.5673956871032715,1.4154775142669678,0.38461538461538464,0.8269230769230769,0.35714285714285715,0.8571428571428571,4.933178929321102e-06
150,1.4407164454460144,1.6091539859771729,0.5384615384615384,0.8269230769230769,0.2857142857142857,0.8571428571428571,1.233599085671e-06
151,1.49315345287323,1.3509756326675415,0.46153846153846156,0.8269230769230769,0.5,0.8571428571428571,0.005
152,1.397124707698822,1.5039267539978027,0.5,0.8269230769230769,0.42857142857142855,0.8571428571428571,0.004999691581204151
153,1.6343774795532227,1.5049333572387695,0.3269230769230769,0.8269230769230769,0.2857142857142857,0.8571428571428571,0.0049987664009143295
154,1.5851742029190063,1.4932975769042969,0.34615384615384615,0.8269230769230769,0.2857142857142857,0.8571428571428571,0.004997224687404925
155,1.585029661655426,1.5277059078216553,0.34615384615384615,0.8269230769230769,0.35714285714285715,0.8571428571428571,0.004995066821070679
156,1.528310239315033,1.583990454673767,0.40384615384615385,0.8269230769230769,0.21428571428571427,0.8571428571428571,0.00499229333433282
157,1.56071138381958,1.5199252367019653,0.4423076923076923,0.8269230769230769,0.35714285714285715,0.8571428571428571,0.0049889049115077
158,1.544116735458374,1.542870283126831,0.40384615384615385,0.8269230769230769,0.21428571428571427,0.8571428571428571,0.004984902388637949
159,1.5184873342514038,1.5242531299591064,0.34615384615384615,0.8269230769230769,0.2857142857142857,0.8571428571428571,0.004980286753286195
160,1.6215121746063232,1.521188735961914,0.3269230769230769,0.8269230769230769,0.42857142857142855,0.8571428571428571,0.004975059144291394
161,1.5588537454605103,1.5130071640014648,0.4230769230769231,0.8269230769230769,0.42857142857142855,0.8571428571428571,0.0049692208514878445
162,1.5388317108154297,1.5079952478408813,0.38461538461538464,0.8269230769230769,0.42857142857142855,0.8571428571428571,0.004962773315386935
163,1.5928711891174316,1.499254584312439,0.28846153846153844,0.8269230769230769,0.42857142857142855,0.8571428571428571,0.004955718126821722
164,1.54537433385849,1.514822006225586,0.2692307692307692,0.8269230769230769,0.2857142857142857,0.8571428571428571,0.0049480570265544145
165,1.6406232118606567,1.5238896608352661,0.40384615384615385,0.8269230769230769,0.21428571428571427,0.8571428571428571,0.004939791904846869
166,1.5974574089050293,1.5356991291046143,0.4230769230769231,0.8269230769230769,0.21428571428571427,0.8571428571428571,0.004930924800994192
167,1.6000678539276123,1.5409326553344727,0.3269230769230769,0.8269230769230769,0.21428571428571427,0.8571428571428571,0.004921457902821578
168,1.5492628812789917,1.5468051433563232,0.36538461538461536,0.8269230769230769,0.21428571428571427,0.8571428571428571,0.004911393546144495
169,1.548912227153778,1.5603785514831543,0.46153846153846156,0.8269230769230769,0.21428571428571427,0.8571428571428571,0.004900734214192358
170,1.568703830242157,1.5593795776367188,0.40384615384615385,0.8269230769230769,0.21428571428571427,0.8571428571428571,0.004889482536995825
171,1.5866199731826782,1.5644948482513428,0.3269230769230769,0.8269230769230769,0.21428571428571427,0.8571428571428571,0.0048776412907378846
172,1.5998576879501343,1.5649713277816772,0.28846153846153844,0.8269230769230769,0.21428571428571427,0.8571428571428571,0.004865213397068863
173,1.5496416687965393,1.569762110710144,0.3269230769230769,0.8269230769230769,0.21428571428571427,0.8571428571428571,0.004852201922385564
174,1.6375962495803833,1.5627325773239136,0.28846153846153844,0.8269230769230769,0.21428571428571427,0.8571428571428571,0.004838610077074669
175,1.5525897145271301,1.5673454999923706,0.36538461538461536,0.8269230769230769,0.21428571428571427,0.8571428571428571,0.004824441214720628
176,1.5713526606559753,1.5589221715927124,0.25,0.8269230769230769,0.21428571428571427,0.8571428571428571,0.004809698831278217
177,1.575348675251007,1.5456066131591797,0.36538461538461536,0.8269230769230769,0.21428571428571427,0.8571428571428571,0.0047943865642099525
178,1.5935061573982239,1.5135833024978638,0.38461538461538464,0.8269230769230769,0.21428571428571427,0.8571428571428571,0.004778508191588613
179,1.6299138069152832,1.529106855392456,0.36538461538461536,0.8269230769230769,0.21428571428571427,0.8571428571428571,0.004762067631165049
180,1.5527230501174927,1.563382863998413,0.38461538461538464,0.8269230769230769,0.21428571428571427,0.8571428571428571,0.004745068939401539
181,1.5386314988136292,1.5228679180145264,0.34615384615384615,0.8269230769230769,0.21428571428571427,0.8571428571428571,0.00472751631047092
182,1.5516388416290283,1.575005292892456,0.34615384615384615,0.8269230769230769,0.2857142857142857,0.8571428571428571,0.004709414075221734
183,1.6073657274246216,1.4842222929000854,0.36538461538461536,0.8269230769230769,0.21428571428571427,0.8571428571428571,0.0046907667001096585
184,1.5321921110153198,1.5267947912216187,0.46153846153846156,0.8269230769230769,0.2857142857142857,0.8571428571428571,0.004671578786095479
185,1.6104601621627808,1.5122754573822021,0.36538461538461536,0.8269230769230769,0.2857142857142857,0.8571428571428571,0.0046518550675098596
186,1.5862336158752441,1.5197583436965942,0.28846153846153844,0.8269230769230769,0.2857142857142857,0.8571428571428571,0.004631600410885231
187,1.5381302237510681,1.5153858661651611,0.34615384615384615,0.8269230769230769,0.35714285714285715,0.8571428571428571,0.004610819813755038
188,1.5476348400115967,1.5219860076904297,0.28846153846153844,0.8269230769230769,0.21428571428571427,0.8571428571428571,0.004589518403420676
189,1.5642903447151184,1.5098153352737427,0.36538461538461536,0.8269230769230769,0.42857142857142855,0.8571428571428571,0.004567701435686404
190,1.5979944467544556,1.513181209564209,0.40384615384615385,0.8269230769230769,0.5,0.8571428571428571,0.004545374293562558
191,1.5290687084197998,1.5359835624694824,0.4423076923076923,0.8269230769230769,0.2857142857142857,0.8571428571428571,0.0045225424859373685
192,1.5350879430770874,1.5203391313552856,0.5192307692307693,0.8269230769230769,0.21428571428571427,0.8571428571428571,0.004499211646217727
193,1.5906333923339844,1.5234911441802979,0.3269230769230769,0.8269230769230769,0.2857142857142857,0.8571428571428571,0.0044753875309392266
194,1.5287525057792664,1.4995309114456177,0.38461538461538464,0.8269230769230769,0.14285714285714285,0.8571428571428571,0.004451076018345824
195,1.5490544438362122,1.5663607120513916,0.4423076923076923,0.8269230769230769,0.2857142857142857,0.8571428571428571,0.004426283106939473
196,1.5641493797302246,1.4998836517333984,0.38461538461538464,0.8269230769230769,0.2857142857142857,0.8571428571428571,0.004401014914000078
197,1.5501796007156372,1.5289145708084106,0.34615384615384615,0.8269230769230769,0.21428571428571427,0.8571428571428571,0.004375277674076149
198,1.5714677572250366,1.5295695066452026,0.4230769230769231,0.8269230769230769,0.21428571428571427,0.8571428571428571,0.004349077737446524
199,1.5144891142845154,1.5142650604248047,0.34615384615384615,0.8269230769230769,0.21428571428571427,0.8571428571428571,0.004322421568553529
200,1.5360068082809448,1.5212273597717285,0.3076923076923077,0.8269230769230769,0.35714285714285715,0.8571428571428571,0.004295315744407973
201,1.5395575165748596,1.4833568334579468,0.34615384615384615,0.8269230769230769,0.35714285714285715,0.8571428571428571,0.004267766952966369
202,1.4775221943855286,1.4538160562515259,0.4807692307692308,0.8269230769230769,0.5,0.8571428571428571,0.004239781991480785
203,1.5300084948539734,1.5398926734924316,0.40384615384615385,0.8269230769230769,0.35714285714285715,0.8571428571428571,0.004211367764821722
204,1.550466239452362,1.47725510597229,0.4423076923076923,0.8269230769230769,0.21428571428571427,0.8571428571428571,0.004182531283774433
205,1.4516299366950989,1.5143287181854248,0.5,0.8269230769230769,0.21428571428571427,0.8571428571428571,0.00415327966330913
206,1.4489161968231201,1.5053908824920654,0.4230769230769231,0.8269230769230769,0.5,0.8571428571428571,0.00412362012082546
207,1.4900364875793457,1.4427546262741089,0.38461538461538464,0.8269230769230769,0.42857142857142855,0.8571428571428571,0.004093559974371724
208,1.5393269062042236,1.5587142705917358,0.4230769230769231,0.8269230769230769,0.2857142857142857,0.8571428571428571,0.004063106640839263
209,1.515478253364563,1.4752352237701416,0.36538461538461536,0.8269230769230769,0.2857142857142857,0.8571428571428571,0.004032267634132442
210,1.4670277833938599,1.4855351448059082,0.36538461538461536,0.8269230769230769,0.14285714285714285,0.8571428571428571,0.004001050563314711
211,1.470293939113617,1.4190921783447266,0.4423076923076923,0.8269230769230769,0.35714285714285715,0.8571428571428571,0.003969463130731183
212,1.4462692737579346,1.4693515300750732,0.4423076923076923,0.8269230769230769,0.5,0.8571428571428571,0.003937513130108197
213,1.430314838886261,1.4307657480239868,0.38461538461538464,0.8269230769230769,0.35714285714285715,0.8571428571428571,0.003905208444630327
214,1.497967779636383,1.393050193786621,0.3269230769230769,0.8269230769230769,0.5,0.8571428571428571,0.0038725570449953295
215,1.347155511379242,1.5276134014129639,0.40384615384615385,0.8269230769230769,0.42857142857142855,0.8571428571428571,0.0038395669874474914
216,1.426254153251648,1.3223233222961426,0.34615384615384615,0.8269230769230769,0.5714285714285714,0.8571428571428571,0.0038062464117898723
217,1.4685874581336975,1.656811237335205,0.46153846153846156,0.8269230769230769,0.42857142857142855,0.8571428571428571,0.0037726035393759283
218,2.0770843029022217,1.9800336360931396,0.36538461538461536,0.8269230769230769,0.42857142857142855,0.8571428571428571,0.003738646671081019
219,2.2639344930648804,1.8875548839569092,0.34615384615384615,0.8269230769230769,0.42857142857142855,0.8571428571428571,0.0037043841852542883
220,2.2011842727661133,1.6667261123657227,0.34615384615384615,0.8269230769230769,0.42857142857142855,0.8571428571428571,0.0036698245356514337
221,1.8073294758796692,1.5588617324829102,0.3076923076923077,0.8269230769230769,0.21428571428571427,0.8571428571428571,0.003634976249348867
222,1.6288126707077026,1.5572474002838135,0.3076923076923077,0.8269230769230769,0.35714285714285715,0.8571428571428571,0.0035998479246397877
223,1.669788420200348,1.5999268293380737,0.36538461538461536,0.8269230769230769,0.2857142857142857,0.8571428571428571,0.003564448228912682
224,1.625995397567749,1.6562714576721191,0.34615384615384615,0.8269230769230769,0.35714285714285715,0.8571428571428571,0.0035287858965127724
225,1.6195168495178223,1.677431344985962,0.3076923076923077,0.8269230769230769,0.35714285714285715,0.8571428571428571,0.003492869726586951
226,1.6321582794189453,1.6530263423919678,0.34615384615384615,0.8269230769230769,0.21428571428571427,0.8571428571428571,0.003456708580912725
227,1.6324526071548462,1.6080749034881592,0.36538461538461536,0.8269230769230769,0.21428571428571427,0.8571428571428571,0.0034203113817116953
228,1.6219362020492554,1.5606552362442017,0.28846153846153844,0.8269230769230769,0.21428571428571427,0.8571428571428571,0.003383687109448143
229,1.6049132347106934,1.53175950050354,0.36538461538461536,0.8269230769230769,0.21428571428571427,0.8571428571428571,0.0033468448006132292
230,1.6368921399116516,1.5111730098724365,0.34615384615384615,0.8269230769230769,0.35714285714285715,0.8571428571428571,0.003309793545495374
231,1.6482632160186768,1.50926673412323,0.34615384615384615,0.8269230769230769,0.42857142857142855,0.8571428571428571,0.0032725424859373687
232,1.6316266059875488,1.5032625198364258,0.25,0.8269230769230769,0.5714285714285714,0.8571428571428571,0.00323510081308076
233,1.5819432735443115,1.534532904624939,0.38461538461538464,0.8269230769230769,0.2857142857142857,0.8571428571428571,0.0031974777650980737
234,1.5388516783714294,1.5581141710281372,0.38461538461538464,0.8269230769230769,0.21428571428571427,0.8571428571428571,0.003159682624913432
235,1.5628470182418823,1.5761975049972534,0.3269230769230769,0.8269230769230769,0.21428571428571427,0.8571428571428571,0.0031217247179121366
236,1.6175344586372375,1.574252724647522,0.38461538461538464,0.8269230769230769,0.21428571428571427,0.8571428571428571,0.0030836134096397638
237,1.6739100217819214,1.6088134050369263,0.2692307692307692,0.8269230769230769,0.21428571428571427,0.8571428571428571,0.0030453581034913567
238,1.6195314526557922,1.6242327690124512,0.3269230769230769,0.8269230769230769,0.21428571428571427,0.8571428571428571,0.0030069682383912816
239,1.565583884716034,1.608274221420288,0.40384615384615385,0.8269230769230769,0.21428571428571427,0.8571428571428571,0.002968453286464312
240,1.615472674369812,1.597302794456482,0.3269230769230769,0.8269230769230769,0.21428571428571427,0.8571428571428571,0.0029298227506985236
241,1.5949329137802124,1.580625295639038,0.4423076923076923,0.8269230769230769,0.21428571428571427,0.8571428571428571,0.0028910861626005773
242,1.5947765707969666,1.5714271068572998,0.3269230769230769,0.8269230769230769,0.21428571428571427,0.8571428571428571,0.0028522530798439573
243,1.494066298007965,1.5605299472808838,0.38461538461538464,0.8269230769230769,0.21428571428571427,0.8571428571428571,0.002813333083910761
244,1.640291452407837,1.547444224357605,0.28846153846153844,0.8269230769230769,0.21428571428571427,0.8571428571428571,0.0027743357777276134
245,1.6131294965744019,1.5405352115631104,0.38461538461538464,0.8269230769230769,0.21428571428571427,0.8571428571428571,0.002735270783296286
246,1.6190871000289917,1.5365092754364014,0.25,0.8269230769230769,0.21428571428571427,0.8571428571428571,0.0026961477393196128
247,1.6300115585327148,1.5411629676818848,0.36538461538461536,0.8269230769230769,0.21428571428571427,0.8571428571428571,0.0026569762988232835
248,1.4971222281455994,1.5365386009216309,0.4423076923076923,0.8269230769230769,0.21428571428571427,0.8571428571428571,0.0026177661267741065
249,1.5797080993652344,1.5389273166656494,0.36538461538461536,0.8269230769230769,0.21428571428571427,0.8571428571428571,0.0025785268976953207
250,1.5411524772644043,1.5417498350143433,0.36538461538461536,0.8269230769230769,0.21428571428571427,0.8571428571428571,0.002539268293279552
251,1.5288792848587036,1.5437297821044922,0.4423076923076923,0.8269230769230769,0.21428571428571427,0.8571428571428571,0.0025
252,1.5861852765083313,1.5406625270843506,0.40384615384615385,0.8269230769230769,0.21428571428571427,0.8571428571428571,0.002460731706720449
253,1.614288091659546,1.5413841009140015,0.28846153846153844,0.8269230769230769,0.21428571428571427,0.8571428571428571,0.0024214731023046794
254,1.5777079463005066,1.5411179065704346,0.36538461538461536,0.8269230769230769,0.21428571428571427,0.8571428571428571,0.0023822338732258936
255,1.5873143076896667,1.5415542125701904,0.34615384615384615,0.8269230769230769,0.21428571428571427,0.8571428571428571,0.0023430237011767166
256,1.6194268465042114,1.5402905941009521,0.36538461538461536,0.8269230769230769,0.21428571428571427,0.8571428571428571,0.002303852260680388
257,1.5391183495521545,1.5377922058105469,0.34615384615384615,0.8269230769230769,0.21428571428571427,0.8571428571428571,0.002264729216703714
258,1.545468807220459,1.544079303741455,0.28846153846153844,0.8269230769230769,0.21428571428571427,0.8571428571428571,0.0022256642222723867
259,1.5315586924552917,1.5358482599258423,0.4423076923076923,0.8269230769230769,0.21428571428571427,0.8571428571428571,0.0021866669160892395
260,1.5802394151687622,1.5360181331634521,0.40384615384615385,0.8269230769230769,0.2857142857142857,0.8571428571428571,0.002147746920156044
261,1.6206169724464417,1.529050350189209,0.21153846153846154,0.8269230769230769,0.2857142857142857,0.8571428571428571,0.002108913837399423
262,1.5268994569778442,1.5321073532104492,0.36538461538461536,0.8269230769230769,0.2857142857142857,0.8571428571428571,0.002070177249301476
263,1.5144577622413635,1.5319101810455322,0.4423076923076923,0.8269230769230769,0.21428571428571427,0.8571428571428571,0.0020315467135356884
264,1.5938602089881897,1.5342750549316406,0.3076923076923077,0.8269230769230769,0.21428571428571427,0.8571428571428571,0.001993031761608719
265,1.653825044631958,1.52986478805542,0.3076923076923077,0.8269230769230769,0.21428571428571427,0.8571428571428571,0.0019546418965086442
266,1.6337094902992249,1.531095027923584,0.3269230769230769,0.8269230769230769,0.21428571428571427,0.8571428571428571,0.0019163865903602361
267,1.5974736213684082,1.532542109489441,0.28846153846153844,0.8269230769230769,0.21428571428571427,0.8571428571428571,0.0018782752820878628
268,1.5822439193725586,1.5319736003875732,0.3269230769230769,0.8269230769230769,0.21428571428571427,0.8571428571428571,0.0018403173750865679
269,1.5355321764945984,1.5297147035598755,0.28846153846153844,0.8269230769230769,0.21428571428571427,0.8571428571428571,0.001802522234901927
270,1.6167653799057007,1.533722996711731,0.15384615384615385,0.8269230769230769,0.21428571428571427,0.8571428571428571,0.0017648991869192404
271,1.5435524582862854,1.5356054306030273,0.40384615384615385,0.8269230769230769,0.21428571428571427,0.8571428571428571,0.0017274575140626323
272,1.5664016604423523,1.5065165758132935,0.38461538461538464,0.8269230769230769,0.21428571428571427,0.8571428571428571,0.0016902064545046263
273,1.6023357510566711,1.5343469381332397,0.36538461538461536,0.8269230769230769,0.21428571428571427,0.8571428571428571,0.0016531551993867715
274,1.6019518375396729,1.5320367813110352,0.3076923076923077,0.8269230769230769,0.21428571428571427,0.8571428571428571,0.0016163128905518577
275,1.5405487418174744,1.531907558441162,0.2692307692307692,0.8269230769230769,0.21428571428571427,0.8571428571428571,0.0015796886182883059
276,1.5689622163772583,1.5336027145385742,0.3269230769230769,0.8269230769230769,0.21428571428571427,0.8571428571428571,0.0015432914190872762
277,1.5556583404541016,1.5312106609344482,0.4230769230769231,0.8269230769230769,0.21428571428571427,0.8571428571428571,0.0015071302734130482
278,1.554195761680603,1.5278899669647217,0.46153846153846156,0.8269230769230769,0.21428571428571427,0.8571428571428571,0.001471214103487228
279,1.5620906949043274,1.5250424146652222,0.38461538461538464,0.8269230769230769,0.21428571428571427,0.8571428571428571,0.0014355517710873183
280,1.5801287293434143,1.5260670185089111,0.38461538461538464,0.8269230769230769,0.21428571428571427,0.8571428571428571,0.001400152075360212
281,1.5206711292266846,1.5249292850494385,0.28846153846153844,0.8269230769230769,0.21428571428571427,0.8571428571428571,0.0013650237506511332
282,1.5888595581054688,1.5249912738800049,0.3269230769230769,0.8269230769230769,0.21428571428571427,0.8571428571428571,0.001330175464348567
283,1.5278661847114563,1.5220404863357544,0.34615384615384615,0.8269230769230769,0.21428571428571427,0.8571428571428571,0.0012956158147457114
284,1.5923377871513367,1.5226844549179077,0.36538461538461536,0.8269230769230769,0.2857142857142857,0.8571428571428571,0.001261353328918981
285,1.5596786737442017,1.5139449834823608,0.38461538461538464,0.8269230769230769,0.2857142857142857,0.8571428571428571,0.0012273964606240718
286,1.5709174871444702,1.5211460590362549,0.34615384615384615,0.8269230769230769,0.2857142857142857,0.8571428571428571,0.001193753588210128
287,1.5965455770492554,1.5202085971832275,0.3269230769230769,0.8269230769230769,0.35714285714285715,0.8571428571428571,0.0011604330125525079
288,1.5410047769546509,1.523430347442627,0.4423076923076923,0.8269230769230769,0.35714285714285715,0.8571428571428571,0.0011274429550046702
289,1.6111751198768616,1.5217382907867432,0.25,0.8269230769230769,0.35714285714285715,0.8571428571428571,0.0010947915553696733
290,1.5910357236862183,1.5196125507354736,0.25,0.8269230769230769,0.35714285714285715,0.8571428571428571,0.0010624868698918036
291,1.5958821177482605,1.5215767621994019,0.2692307692307692,0.8269230769230769,0.35714285714285715,0.8571428571428571,0.0010305368692688174
292,1.5611496567726135,1.520652174949646,0.28846153846153844,0.8269230769230769,0.21428571428571427,0.8571428571428571,0.0009989494366852902
293,1.5783074498176575,1.5232566595077515,0.2692307692307692,0.8269230769230769,0.21428571428571427,0.8571428571428571,0.0009677323658675585
294,1.5710322260856628,1.5287781953811646,0.3076923076923077,0.8269230769230769,0.21428571428571427,0.8571428571428571,0.000936893359160737
295,1.611074686050415,1.5279244184494019,0.3269230769230769,0.8269230769230769,0.21428571428571427,0.8571428571428571,0.0009064400256282757
296,1.5240679383277893,1.5325791835784912,0.3269230769230769,0.8269230769230769,0.21428571428571427,0.8571428571428571,0.0008763798791745412
297,1.6130409836769104,1.5342832803726196,0.3269230769230769,0.8269230769230769,0.21428571428571427,0.8571428571428571,0.0008467203366908707
298,1.6055383086204529,1.5343916416168213,0.2692307692307692,0.8269230769230769,0.21428571428571427,0.8571428571428571,0.0008174687162255665
299,1.6087504625320435,1.534676432609558,0.28846153846153844,0.8269230769230769,0.21428571428571427,0.8571428571428571,0.0007886322351782782
300,1.5906246900558472,1.5338821411132812,0.3076923076923077,0.8269230769230769,0.21428571428571427,0.8571428571428571,0.0007602180085192142
301,1.601458191871643,1.5358637571334839,0.40384615384615385,0.8269230769230769,0.21428571428571427,0.8571428571428571,0.0007322330470336313
302,1.580626368522644,1.5380499362945557,0.34615384615384615,0.8269230769230769,0.21428571428571427,0.8571428571428571,0.0007046842555920282
303,1.5214853286743164,1.480320930480957,0.4423076923076923,0.8269230769230769,0.21428571428571427,0.8571428571428571,0.0006775784314464717
304,1.6226574778556824,1.541944980621338,0.4230769230769231,0.8269230769230769,0.21428571428571427,0.8571428571428571,0.0006509222625534758
305,1.568561315536499,1.537176251411438,0.3076923076923077,0.8269230769230769,0.21428571428571427,0.8571428571428571,0.0006247223259238514
306,1.6231068968772888,1.538747787475586,0.3076923076923077,0.8269230769230769,0.21428571428571427,0.8571428571428571,0.0005989850859999227
307,1.565131962299347,1.5512053966522217,0.36538461538461536,0.8269230769230769,0.21428571428571427,0.8571428571428571,0.0005737168930605272
308,1.528222918510437,1.5408176183700562,0.4230769230769231,0.8269230769230769,0.21428571428571427,0.8571428571428571,0.000548923981654176
309,1.5742740631103516,1.5435723066329956,0.3269230769230769,0.8269230769230769,0.21428571428571427,0.8571428571428571,0.000524612469060774
310,1.5560466051101685,1.5536715984344482,0.28846153846153844,0.8269230769230769,0.21428571428571427,0.8571428571428571,0.0005007883537822738
311,1.5684260129928589,1.5560427904129028,0.3076923076923077,0.8269230769230769,0.21428571428571427,0.8571428571428571,0.00047745751406263163
312,1.6031792163848877,1.5440831184387207,0.2692307692307692,0.8269230769230769,0.21428571428571427,0.8571428571428571,0.00045462570643744175
313,1.5613096356391907,1.547229290008545,0.4230769230769231,0.8269230769230769,0.21428571428571427,0.8571428571428571,0.000432298564313596
314,1.5594165325164795,1.5419714450836182,0.4230769230769231,0.8269230769230769,0.21428571428571427,0.8571428571428571,0.00041048159657932487
315,1.566172480583191,1.5397934913635254,0.4230769230769231,0.8269230769230769,0.21428571428571427,0.8571428571428571,0.00038918018624496285
316,1.5188917517662048,1.5392616987228394,0.36538461538461536,0.8269230769230769,0.21428571428571427,0.8571428571428571,0.00036839958911477014
317,1.5557411313056946,1.5505218505859375,0.38461538461538464,0.8269230769230769,0.21428571428571427,0.8571428571428571,0.0003481449324901406
318,1.6169498562812805,1.5471408367156982,0.38461538461538464,0.8269230769230769,0.21428571428571427,0.8571428571428571,0.0003284212139045217
319,1.595869779586792,1.551007866859436,0.3269230769230769,0.8269230769230769,0.21428571428571427,0.8571428571428571,0.00030923329989034103
320,1.5564082860946655,1.5524365901947021,0.3269230769230769,0.8269230769230769,0.21428571428571427,0.8571428571428571,0.00029058592477826633
321,1.5661563277244568,1.5334640741348267,0.34615384615384615,0.8269230769230769,0.21428571428571427,0.8571428571428571,0.00027248368952908055
322,1.565509021282196,1.5476560592651367,0.36538461538461536,0.8269230769230769,0.21428571428571427,0.8571428571428571,0.00025493106059846116
323,1.489809513092041,1.5564451217651367,0.40384615384615385,0.8269230769230769,0.21428571428571427,0.8571428571428571,0.00023793236883495162
324,1.581441044807434,1.535366415977478,0.38461538461538464,0.8269230769230769,0.21428571428571427,0.8571428571428571,0.00022149180841138732
325,1.5524597764015198,1.5468056201934814,0.38461538461538464,0.8269230769230769,0.21428571428571427,0.8571428571428571,0.0002056134357900477
326,1.551164448261261,1.5503208637237549,0.34615384615384615,0.8269230769230769,0.21428571428571427,0.8571428571428571,0.0001903011687217837
327,1.5740956664085388,1.5428011417388916,0.3269230769230769,0.8269230769230769,0.21428571428571427,0.8571428571428571,0.00017555878527937164
328,1.5407257080078125,1.5402283668518066,0.36538461538461536,0.8269230769230769,0.21428571428571427,0.8571428571428571,0.00016138992292533155
329,1.5288922190666199,1.5485903024673462,0.40384615384615385,0.8269230769230769,0.21428571428571427,0.8571428571428571,0.00014779807761443637
330,1.5753331184387207,1.546816349029541,0.38461538461538464,0.8269230769230769,0.21428571428571427,0.8571428571428571,0.00013478660293113676
331,1.580833375453949,1.5473637580871582,0.4423076923076923,0.8269230769230769,0.21428571428571427,0.8571428571428571,0.00012235870926211617
332,1.6143473982810974,1.5336288213729858,0.34615384615384615,0.8269230769230769,0.21428571428571427,0.8571428571428571,0.0001105174630041747
333,1.5587058663368225,1.5374834537506104,0.38461538461538464,0.8269230769230769,0.21428571428571427,0.8571428571428571,9.926578580764262e-05
334,1.516278862953186,1.5466004610061646,0.34615384615384615,0.8269230769230769,0.21428571428571427,0.8571428571428571,8.860645385550508e-05
335,1.5465627908706665,1.554553747177124,0.40384615384615385,0.8269230769230769,0.21428571428571427,0.8571428571428571,7.854209717842258e-05
336,1.5535529255867004,1.5493345260620117,0.3269230769230769,0.8269230769230769,0.21428571428571427,0.8571428571428571,6.90751990058086e-05
337,1.5666898488998413,1.5374233722686768,0.3076923076923077,0.8269230769230769,0.21428571428571427,0.8571428571428571,6.0208095153131695e-05
338,1.561277151107788,1.5366886854171753,0.40384615384615385,0.8269230769230769,0.21428571428571427,0.8571428571428571,5.194297344558535e-05
339,1.4920971393585205,1.5503429174423218,0.40384615384615385,0.8269230769230769,0.21428571428571427,0.8571428571428571,4.4281873178278196e-05
340,1.5945965647697449,1.5525821447372437,0.3269230769230769,0.8269230769230769,0.21428571428571427,0.8571428571428571,3.7226684613065334e-05
341,1.5872558951377869,1.5542807579040527,0.3076923076923077,0.8269230769230769,0.21428571428571427,0.8571428571428571,3.077914851215585e-05
342,1.6046183109283447,1.5538508892059326,0.3076923076923077,0.8269230769230769,0.21428571428571427,0.8571428571428571,2.4940855708606158e-05
343,1.5088677406311035,1.5414634943008423,0.40384615384615385,0.8269230769230769,0.21428571428571427,0.8571428571428571,1.9713246713805587e-05
344,1.5650948286056519,1.5367887020111084,0.28846153846153844,0.8269230769230769,0.21428571428571427,0.8571428571428571,1.5097611362051012e-05
345,1.5611879229545593,1.5574350357055664,0.3076923076923077,0.8269230769230769,0.21428571428571427,0.8571428571428571,1.109508849230001e-05
346,1.5481094717979431,1.5419062376022339,0.4230769230769231,0.8269230769230769,0.21428571428571427,0.8571428571428571,7.70666566718009e-06
347,1.6208195686340332,1.5482072830200195,0.40384615384615385,0.8269230769230769,0.21428571428571427,0.8571428571428571,4.933178929321102e-06
348,1.550537109375,1.5508146286010742,0.40384615384615385,0.8269230769230769,0.21428571428571427,0.8571428571428571,2.775312595075241e-06
349,1.5715399384498596,1.5466729402542114,0.40384615384615385,0.8269230769230769,0.21428571428571427,0.8571428571428571,1.233599085671e-06
350,1.5861651301383972,1.545366883277893,0.3269230769230769,0.8269230769230769,0.21428571428571427,0.8571428571428571,3.0841879584853074e-07
