epoch,train_loss,val_loss,train_acc_action,train_acc_status,val_acc_action,val_acc_status,learning_rate
1,1.770255982875824,1.7440418004989624,0.3076923076923077,0.8269230769230769,0.42857142857142855,0.8571428571428571,0.0004
2,1.7619190216064453,1.6277577877044678,0.3076923076923077,0.8269230769230769,0.21428571428571427,0.8571428571428571,0.004995066821070679
3,1.5398560762405396,1.5528783798217773,0.36538461538461536,0.8269230769230769,0.21428571428571427,0.8571428571428571,0.004980286753286195
4,1.6009292602539062,1.492884635925293,0.3076923076923077,0.8269230769230769,0.42857142857142855,0.8571428571428571,0.004955718126821722
5,1.5450100898742676,1.5502145290374756,0.3076923076923077,0.8269230769230769,0.21428571428571427,0.8571428571428571,0.004921457902821578
6,1.5784429907798767,1.5776171684265137,0.36538461538461536,0.8269230769230769,0.21428571428571427,0.8571428571428571,0.0048776412907378846
7,1.5876579880714417,1.553398609161377,0.36538461538461536,0.8269230769230769,0.21428571428571427,0.8571428571428571,0.004824441214720628
8,1.534079134464264,1.5403177738189697,0.36538461538461536,0.8269230769230769,0.21428571428571427,0.8571428571428571,0.004762067631165049
9,1.5398552417755127,1.5310450792312622,0.38461538461538464,0.8269230769230769,0.35714285714285715,0.8571428571428571,0.0046907667001096585
10,1.5344526171684265,1.5283420085906982,0.36538461538461536,0.8269230769230769,0.5,0.8571428571428571,0.004610819813755038
11,1.5780699253082275,1.5254237651824951,0.34615384615384615,0.8269230769230769,0.2857142857142857,0.8571428571428571,0.0045225424859373685
12,1.531653344631195,1.4973870515823364,0.34615384615384615,0.8269230769230769,0.2857142857142857,0.8571428571428571,0.004426283106939473
13,1.5483522415161133,1.4625585079193115,0.4230769230769231,0.8269230769230769,0.2857142857142857,0.8571428571428571,0.004322421568553529
14,1.474579393863678,1.5249855518341064,0.4423076923076923,0.8269230769230769,0.21428571428571427,0.8571428571428571,0.004211367764821722
15,1.3942776322364807,1.5903170108795166,0.5,0.8269230769230769,0.21428571428571427,0.8571428571428571,0.004093559974371724
16,1.3947889804840088,1.4865645170211792,0.4423076923076923,0.8269230769230769,0.2857142857142857,0.8571428571428571,0.003969463130731183
17,1.4569746255874634,1.548513650894165,0.4230769230769231,0.8653846153846154,0.21428571428571427,0.8571428571428571,0.0038395669874474914
18,1.6152112483978271,1.5216758251190186,0.36538461538461536,0.8269230769230769,0.2857142857142857,0.8571428571428571,0.0037043841852542883
19,1.5950974225997925,1.517812967300415,0.3076923076923077,0.8269230769230769,0.2857142857142857,0.8571428571428571,0.003564448228912682
20,1.5410306453704834,1.5102267265319824,0.3076923076923077,0.8269230769230769,0.35714285714285715,0.8571428571428571,0.0034203113817116953
21,1.5234635472297668,1.5097553730010986,0.4230769230769231,0.8269230769230769,0.35714285714285715,0.8571428571428571,0.0032725424859373687
22,1.8216909766197205,1.8667302131652832,0.38461538461538464,0.7692307692307693,0.42857142857142855,0.7857142857142857,0.0031217247179121366
23,1.5008147358894348,1.774794340133667,0.4807692307692308,0.8269230769230769,0.21428571428571427,0.7857142857142857,0.002968453286464312
24,1.4548048973083496,1.4937498569488525,0.5,0.8461538461538461,0.2857142857142857,0.8571428571428571,0.002813333083910761
25,1.3740597367286682,1.5731098651885986,0.4423076923076923,0.8846153846153846,0.21428571428571427,0.8571428571428571,0.0026569762988232835
26,1.5864337086677551,1.6050037145614624,0.36538461538461536,0.8269230769230769,0.21428571428571427,0.8571428571428571,0.0025
27,1.426043152809143,1.5904676914215088,0.40384615384615385,0.8653846153846154,0.21428571428571427,0.8571428571428571,0.0023430237011767166
28,1.4755714535713196,1.5902023315429688,0.40384615384615385,0.8653846153846154,0.21428571428571427,0.8571428571428571,0.0021866669160892395
29,1.5664036273956299,1.6058218479156494,0.36538461538461536,0.8269230769230769,0.21428571428571427,0.8571428571428571,0.0020315467135356884
30,1.5694853067398071,1.529292345046997,0.36538461538461536,0.8269230769230769,0.21428571428571427,0.8571428571428571,0.0018782752820878628
31,1.5511810779571533,1.5181350708007812,0.36538461538461536,0.8269230769230769,0.2857142857142857,0.8571428571428571,0.0017274575140626323
32,1.5618764162063599,1.5281912088394165,0.46153846153846156,0.8269230769230769,0.21428571428571427,0.8571428571428571,0.0015796886182883059
33,1.550331175327301,1.509747862815857,0.28846153846153844,0.8269230769230769,0.42857142857142855,0.8571428571428571,0.0014355517710873183
34,1.5122342109680176,1.5176033973693848,0.38461538461538464,0.8269230769230769,0.35714285714285715,0.8571428571428571,0.0012956158147457114
35,1.526600956916809,1.5029127597808838,0.3269230769230769,0.8269230769230769,0.35714285714285715,0.8571428571428571,0.0011604330125525079
36,1.5378891825675964,1.5191282033920288,0.36538461538461536,0.8269230769230769,0.35714285714285715,0.8571428571428571,0.0010305368692688174
37,1.5504539012908936,1.5084471702575684,0.40384615384615385,0.8269230769230769,0.35714285714285715,0.8571428571428571,0.0009064400256282757
38,1.5498396754264832,1.5023834705352783,0.40384615384615385,0.8269230769230769,0.35714285714285715,0.8571428571428571,0.0007886322351782782
39,1.5338115096092224,1.4952950477600098,0.40384615384615385,0.8269230769230769,0.2857142857142857,0.8571428571428571,0.0006775784314464717
40,1.508529007434845,1.549365758895874,0.3269230769230769,0.8269230769230769,0.14285714285714285,0.8571428571428571,0.0005737168930605272
41,1.518545687198639,1.534462571144104,0.40384615384615385,0.8269230769230769,0.35714285714285715,0.8571428571428571,0.00047745751406263163
42,1.5247758626937866,1.5230093002319336,0.46153846153846156,0.8269230769230769,0.21428571428571427,0.8571428571428571,0.00038918018624496285
43,1.5443200469017029,1.5211069583892822,0.4423076923076923,0.8269230769230769,0.2857142857142857,0.8571428571428571,0.00030923329989034103
44,1.5232028365135193,1.5257831811904907,0.46153846153846156,0.8269230769230769,0.2857142857142857,0.8571428571428571,0.00023793236883495162
45,1.5222636461257935,1.4891964197158813,0.34615384615384615,0.8269230769230769,0.2857142857142857,0.8571428571428571,0.00017555878527937164
46,1.5324873328208923,1.5263903141021729,0.38461538461538464,0.8269230769230769,0.21428571428571427,0.8571428571428571,0.00012235870926211617
47,1.5273122787475586,1.5238008499145508,0.4230769230769231,0.8269230769230769,0.14285714285714285,0.8571428571428571,7.854209717842258e-05
48,1.535269320011139,1.4855564832687378,0.40384615384615385,0.8269230769230769,0.2857142857142857,0.8571428571428571,4.4281873178278196e-05
49,1.5013983845710754,1.569063663482666,0.40384615384615385,0.8269230769230769,0.21428571428571427,0.8571428571428571,1.9713246713805587e-05
50,1.5267094373703003,1.5017590522766113,0.38461538461538464,0.8269230769230769,0.21428571428571427,0.8571428571428571,4.933178929321102e-06
51,1.5304714441299438,1.5347223281860352,0.38461538461538464,0.8269230769230769,0.35714285714285715,0.8571428571428571,0.005
52,1.4888151288032532,1.510366439819336,0.4807692307692308,0.8269230769230769,0.35714285714285715,0.8571428571428571,0.0049987664009143295
53,1.4485421180725098,1.4638280868530273,0.4230769230769231,0.8269230769230769,0.42857142857142855,0.8571428571428571,0.004995066821070679
54,1.4574970602989197,1.5964725017547607,0.46153846153846156,0.8269230769230769,0.2857142857142857,0.8571428571428571,0.0049889049115077
55,1.665036916732788,1.7772517204284668,0.3076923076923077,0.8269230769230769,0.21428571428571427,0.8571428571428571,0.004980286753286195
56,1.5381051301956177,1.4752483367919922,0.34615384615384615,0.8269230769230769,0.35714285714285715,0.8571428571428571,0.0049692208514878445
57,1.4214820265769958,1.7305710315704346,0.4423076923076923,0.8269230769230769,0.21428571428571427,0.8571428571428571,0.004955718126821722
58,1.338089108467102,1.6339101791381836,0.5,0.8269230769230769,0.21428571428571427,0.8571428571428571,0.004939791904846869
59,1.3564900159835815,1.5323103666305542,0.4423076923076923,0.8269230769230769,0.35714285714285715,0.8571428571428571,0.004921457902821578
60,1.272020936012268,1.9789628982543945,0.4423076923076923,0.8269230769230769,0.14285714285714285,0.8571428571428571,0.004900734214192358
61,1.4571959376335144,1.810898780822754,0.38461538461538464,0.8269230769230769,0.2857142857142857,0.8571428571428571,0.0048776412907378846
62,1.5403743982315063,1.6425024271011353,0.36538461538461536,0.8269230769230769,0.42857142857142855,0.8571428571428571,0.004852201922385564
63,1.6734105944633484,1.6151823997497559,0.3269230769230769,0.8269230769230769,0.21428571428571427,0.8571428571428571,0.004824441214720628
64,1.5814630389213562,1.5374077558517456,0.36538461538461536,0.8269230769230769,0.21428571428571427,0.8571428571428571,0.0047943865642099525
65,1.5091485381126404,1.5147864818572998,0.34615384615384615,0.8269230769230769,0.2857142857142857,0.8571428571428571,0.004762067631165049
66,1.5409875512123108,1.6214582920074463,0.34615384615384615,0.8269230769230769,0.35714285714285715,0.8571428571428571,0.00472751631047092
67,1.5035582780838013,1.6302026510238647,0.3269230769230769,0.8269230769230769,0.35714285714285715,0.8571428571428571,0.0046907667001096585
68,1.5609867572784424,1.605565071105957,0.3269230769230769,0.8269230769230769,0.35714285714285715,0.8571428571428571,0.0046518550675098596
69,1.571327269077301,1.593338966369629,0.38461538461538464,0.8269230769230769,0.2857142857142857,0.8571428571428571,0.004610819813755038
70,1.549687385559082,1.5952444076538086,0.40384615384615385,0.8269230769230769,0.21428571428571427,0.8571428571428571,0.004567701435686404
71,1.50099515914917,1.563359022140503,0.38461538461538464,0.8269230769230769,0.21428571428571427,0.8571428571428571,0.0045225424859373685
72,1.5146775245666504,1.5572905540466309,0.36538461538461536,0.8269230769230769,0.21428571428571427,0.8571428571428571,0.0044753875309392266
73,1.5280184745788574,1.5437623262405396,0.36538461538461536,0.8269230769230769,0.21428571428571427,0.8571428571428571,0.004426283106939473
74,1.4992188215255737,1.5241615772247314,0.36538461538461536,0.8269230769230769,0.21428571428571427,0.8571428571428571,0.004375277674076149
75,1.595382273197174,1.5272588729858398,0.36538461538461536,0.8269230769230769,0.21428571428571427,0.8571428571428571,0.004322421568553529
76,1.4383822083473206,1.5360565185546875,0.40384615384615385,0.8269230769230769,0.21428571428571427,0.8571428571428571,0.004267766952966369
77,1.4849788546562195,1.5149312019348145,0.4807692307692308,0.8269230769230769,0.2857142857142857,0.8571428571428571,0.004211367764821722
78,1.3809792399406433,1.5320830345153809,0.5,0.8269230769230769,0.21428571428571427,0.7857142857142857,0.00415327966330913
79,1.4779026508331299,1.650351881980896,0.38461538461538464,0.7884615384615384,0.35714285714285715,0.7857142857142857,0.004093559974371724
80,1.4770013093948364,1.5510032176971436,0.4807692307692308,0.8846153846153846,0.42857142857142855,0.7857142857142857,0.004032267634132442
81,1.404898762702942,1.5011972188949585,0.4423076923076923,0.8461538461538461,0.35714285714285715,0.8571428571428571,0.003969463130731183
82,1.4404202699661255,1.5865458250045776,0.40384615384615385,0.8461538461538461,0.35714285714285715,0.8571428571428571,0.003905208444630327
83,1.3250259757041931,1.5743516683578491,0.5,0.8269230769230769,0.21428571428571427,0.8571428571428571,0.0038395669874474914
84,1.2692309021949768,1.6853978633880615,0.46153846153846156,0.8846153846153846,0.14285714285714285,0.8571428571428571,0.0037726035393759283
85,1.3516182899475098,1.8082687854766846,0.46153846153846156,0.8653846153846154,0.21428571428571427,0.7857142857142857,0.0037043841852542883
86,1.1320610642433167,1.8804240226745605,0.5,0.9807692307692307,0.14285714285714285,0.7142857142857143,0.003634976249348867
87,1.2337645292282104,1.9650112390518188,0.4230769230769231,0.9038461538461539,0.21428571428571427,0.7142857142857143,0.003564448228912682
88,1.3106061220169067,2.035254955291748,0.46153846153846156,0.8653846153846154,0.21428571428571427,0.7142857142857143,0.003492869726586951
89,1.5174646377563477,2.0591492652893066,0.38461538461538464,0.8269230769230769,0.21428571428571427,0.7142857142857143,0.0034203113817116953
90,1.2112149596214294,1.7704365253448486,0.4807692307692308,0.9230769230769231,0.21428571428571427,0.8571428571428571,0.0033468448006132292
91,1.238446831703186,2.1730387210845947,0.4807692307692308,0.8846153846153846,0.21428571428571427,0.7142857142857143,0.0032725424859373687
92,1.4030184149742126,1.5738295316696167,0.5,0.9038461538461539,0.21428571428571427,0.7857142857142857,0.0031974777650980737
93,1.1805075407028198,1.697573184967041,0.5192307692307693,0.9230769230769231,0.2857142857142857,0.7857142857142857,0.0031217247179121366
94,1.3605191111564636,2.0268948078155518,0.36538461538461536,0.8846153846153846,0.2857142857142857,0.6428571428571429,0.0030453581034913567
95,1.658810555934906,1.359920859336853,0.46153846153846156,0.7307692307692307,0.2857142857142857,0.9285714285714286,0.002968453286464312
96,1.7375836372375488,1.301480770111084,0.36538461538461536,0.6923076923076923,0.5,0.8571428571428571,0.0028910861626005773
97,1.4580824375152588,1.4349892139434814,0.4423076923076923,0.7884615384615384,0.6428571428571429,0.8571428571428571,0.002813333083910761
98,1.246272623538971,1.3703761100769043,0.46153846153846156,0.8653846153846154,0.42857142857142855,0.8571428571428571,0.002735270783296286
99,1.33668452501297,1.6330558061599731,0.46153846153846156,0.8461538461538461,0.35714285714285715,0.8571428571428571,0.0026569762988232835
100,1.502501904964447,1.7171953916549683,0.3269230769230769,0.8269230769230769,0.2857142857142857,0.8571428571428571,0.0025785268976953207
101,1.3611590266227722,1.6313915252685547,0.4423076923076923,0.8269230769230769,0.35714285714285715,0.8571428571428571,0.0025
102,1.4091151356697083,1.5445518493652344,0.5192307692307693,0.8269230769230769,0.2857142857142857,0.8571428571428571,0.0024214731023046794
103,1.377039909362793,1.6387001276016235,0.5384615384615384,0.8269230769230769,0.21428571428571427,0.8571428571428571,0.0023430237011767166
104,1.382185161113739,1.5628762245178223,0.4230769230769231,0.8269230769230769,0.35714285714285715,0.8571428571428571,0.002264729216703714
105,1.370723307132721,1.5443893671035767,0.46153846153846156,0.8269230769230769,0.21428571428571427,0.8571428571428571,0.0021866669160892395
106,1.346817970275879,1.544127345085144,0.4230769230769231,0.8269230769230769,0.2857142857142857,0.8571428571428571,0.002108913837399423
107,1.281612515449524,1.6470446586608887,0.46153846153846156,0.8269230769230769,0.2857142857142857,0.8571428571428571,0.0020315467135356884
108,1.3595862984657288,1.4781320095062256,0.38461538461538464,0.8461538461538461,0.2857142857142857,0.9285714285714286,0.0019546418965086442
109,1.420067846775055,1.5977445840835571,0.38461538461538464,0.8269230769230769,0.21428571428571427,0.9285714285714286,0.0018782752820878628
110,1.3225138783454895,1.4903175830841064,0.5192307692307693,0.9038461538461539,0.2857142857142857,0.8571428571428571,0.001802522234901927
111,1.3441681265830994,1.4991087913513184,0.46153846153846156,0.8461538461538461,0.5,0.8571428571428571,0.0017274575140626323
112,1.2873199582099915,1.8259143829345703,0.4807692307692308,0.8653846153846154,0.2857142857142857,0.8571428571428571,0.0016531551993867715
113,1.2205018401145935,1.696311116218567,0.5384615384615384,0.8653846153846154,0.2857142857142857,0.7857142857142857,0.0015796886182883059
114,1.3978092074394226,1.7640923261642456,0.34615384615384615,0.8846153846153846,0.2857142857142857,0.7857142857142857,0.0015071302734130482
115,1.3812640309333801,1.3500314950942993,0.4230769230769231,0.8076923076923077,0.5,0.9285714285714286,0.0014355517710873183
116,1.3838422894477844,1.4969823360443115,0.5,0.8461538461538461,0.35714285714285715,0.8571428571428571,0.0013650237506511332
117,1.2979536056518555,1.5206396579742432,0.40384615384615385,0.9423076923076923,0.35714285714285715,0.8571428571428571,0.0012956158147457114
118,1.3826028108596802,1.5930392742156982,0.38461538461538464,0.9038461538461539,0.5,0.8571428571428571,0.0012273964606240718
119,1.3170769810676575,1.4771922826766968,0.5192307692307693,0.7884615384615384,0.35714285714285715,0.7857142857142857,0.0011604330125525079
120,1.4081703424453735,1.483719825744629,0.5,0.8846153846153846,0.2857142857142857,0.9285714285714286,0.0010947915553696733
121,1.3718334436416626,1.9307305812835693,0.40384615384615385,0.8269230769230769,0.21428571428571427,0.8571428571428571,0.0010305368692688174
122,1.287750005722046,1.4908922910690308,0.4230769230769231,0.9038461538461539,0.5714285714285714,0.8571428571428571,0.0009677323658675585
123,1.3103170990943909,1.4260324239730835,0.5,0.8653846153846154,0.42857142857142855,0.8571428571428571,0.0009064400256282757
124,1.3160930275917053,1.428369164466858,0.4423076923076923,0.8653846153846154,0.42857142857142855,0.8571428571428571,0.0008467203366908707
125,1.2549880743026733,1.7737351655960083,0.4807692307692308,0.9038461538461539,0.35714285714285715,0.7857142857142857,0.0007886322351782782
126,1.3137138485908508,1.732311725616455,0.40384615384615385,0.8846153846153846,0.21428571428571427,0.8571428571428571,0.0007322330470336313
127,1.2451356649398804,1.4808650016784668,0.5,0.9038461538461539,0.2857142857142857,0.9285714285714286,0.0006775784314464717
128,1.2770482897758484,1.6877374649047852,0.5576923076923077,0.9038461538461539,0.14285714285714285,0.8571428571428571,0.0006247223259238514
129,1.2537590861320496,1.436538577079773,0.5769230769230769,0.9230769230769231,0.2857142857142857,0.9285714285714286,0.0005737168930605272
130,1.2934877276420593,1.5233324766159058,0.46153846153846156,0.9038461538461539,0.35714285714285715,0.7857142857142857,0.000524612469060774
131,1.3445469737052917,1.6538782119750977,0.5,0.8076923076923077,0.35714285714285715,0.8571428571428571,0.00047745751406263163
132,1.3130311965942383,1.8034343719482422,0.5192307692307693,0.8846153846153846,0.14285714285714285,0.7857142857142857,0.000432298564313596
133,1.2642123699188232,1.874730110168457,0.5192307692307693,0.9423076923076923,0.21428571428571427,0.7857142857142857,0.00038918018624496285
134,1.29360032081604,1.516941785812378,0.4807692307692308,0.8846153846153846,0.42857142857142855,0.9285714285714286,0.0003481449324901406
135,1.2667047381401062,1.5927629470825195,0.4230769230769231,0.9230769230769231,0.2857142857142857,0.8571428571428571,0.00030923329989034103
136,1.3682411909103394,1.427166223526001,0.46153846153846156,0.8653846153846154,0.2857142857142857,0.8571428571428571,0.00027248368952908055
137,1.3039829730987549,1.7606775760650635,0.5384615384615384,0.9423076923076923,0.21428571428571427,0.8571428571428571,0.00023793236883495162
138,1.2205199599266052,1.5960280895233154,0.5192307692307693,0.9038461538461539,0.2857142857142857,0.7857142857142857,0.0002056134357900477
139,1.2814116477966309,1.7321321964263916,0.46153846153846156,0.9038461538461539,0.21428571428571427,0.8571428571428571,0.00017555878527937164
140,1.3978184461593628,1.7369118928909302,0.38461538461538464,0.8653846153846154,0.21428571428571427,0.7857142857142857,0.00014779807761443637
141,1.2878550291061401,1.5031871795654297,0.4230769230769231,0.8653846153846154,0.42857142857142855,0.8571428571428571,0.00012235870926211617
142,1.2231014966964722,1.5368976593017578,0.5384615384615384,0.9230769230769231,0.35714285714285715,0.8571428571428571,9.926578580764262e-05
143,1.2623103857040405,1.467094898223877,0.5192307692307693,0.9230769230769231,0.42857142857142855,0.9285714285714286,7.854209717842258e-05
144,1.270396113395691,1.533084750175476,0.5,0.8846153846153846,0.42857142857142855,0.8571428571428571,6.0208095153131695e-05
145,1.209303379058838,1.5327134132385254,0.5,0.9423076923076923,0.35714285714285715,0.8571428571428571,4.4281873178278196e-05
146,1.2297409176826477,1.790827989578247,0.46153846153846156,0.9423076923076923,0.35714285714285715,0.8571428571428571,3.077914851215585e-05
147,1.2280678153038025,1.4878408908843994,0.46153846153846156,0.9230769230769231,0.21428571428571427,0.8571428571428571,1.9713246713805587e-05
148,1.3234886527061462,1.681391954421997,0.4807692307692308,0.8653846153846154,0.2857142857142857,0.8571428571428571,1.109508849230001e-05
149,1.392991065979004,1.8582472801208496,0.4230769230769231,0.8461538461538461,0.2857142857142857,0.8571428571428571,4.933178929321102e-06
150,1.334002137184143,1.6774158477783203,0.46153846153846156,0.8269230769230769,0.2857142857142857,0.8571428571428571,1.233599085671e-06
151,1.3020656108856201,1.5297768115997314,0.38461538461538464,0.9038461538461539,0.5,0.7857142857142857,0.005
152,1.1720386147499084,1.3040952682495117,0.46153846153846156,0.9038461538461539,0.5,0.9285714285714286,0.004999691581204151
153,1.2878093719482422,1.7321321964263916,0.40384615384615385,0.9230769230769231,0.35714285714285715,0.8571428571428571,0.0049987664009143295
154,1.2597476840019226,1.5333430767059326,0.40384615384615385,0.9615384615384616,0.5,0.8571428571428571,0.004997224687404925
155,1.440106987953186,1.5251294374465942,0.46153846153846156,0.8461538461538461,0.5,0.8571428571428571,0.004995066821070679
156,1.3417970538139343,1.4353350400924683,0.40384615384615385,0.8461538461538461,0.35714285714285715,0.7857142857142857,0.00499229333433282
157,1.216107189655304,1.3972607851028442,0.5,0.8653846153846154,0.5,0.8571428571428571,0.0049889049115077
158,1.3314533829689026,1.5478835105895996,0.4807692307692308,0.9038461538461539,0.2857142857142857,0.7857142857142857,0.004984902388637949
159,1.215104579925537,1.9210293292999268,0.4807692307692308,0.9423076923076923,0.21428571428571427,0.8571428571428571,0.004980286753286195
160,1.1896320581436157,2.293627977371216,0.4807692307692308,0.9230769230769231,0.21428571428571427,0.7142857142857143,0.004975059144291394
161,1.2998836636543274,1.5450553894042969,0.40384615384615385,0.8461538461538461,0.42857142857142855,0.8571428571428571,0.0049692208514878445
162,1.2873138189315796,1.614493727684021,0.34615384615384615,0.9230769230769231,0.6428571428571429,0.7857142857142857,0.004962773315386935
163,1.6839526891708374,1.924605369567871,0.34615384615384615,0.75,0.21428571428571427,0.7857142857142857,0.004955718126821722
164,1.3496612906455994,1.7012567520141602,0.40384615384615385,0.8653846153846154,0.2857142857142857,0.8571428571428571,0.0049480570265544145
165,1.2550964951515198,1.5387394428253174,0.5384615384615384,0.9038461538461539,0.2857142857142857,0.8571428571428571,0.004939791904846869
166,1.2547410130500793,1.5893266201019287,0.5,0.8269230769230769,0.21428571428571427,0.8571428571428571,0.004930924800994192
167,1.3138216733932495,1.469486117362976,0.46153846153846156,0.8846153846153846,0.2857142857142857,0.7857142857142857,0.004921457902821578
168,1.2935149669647217,1.4499598741531372,0.46153846153846156,0.9038461538461539,0.21428571428571427,0.8571428571428571,0.004911393546144495
169,1.206955373287201,1.3707013130187988,0.5192307692307693,0.9423076923076923,0.2857142857142857,0.9285714285714286,0.004900734214192358
170,1.2084296345710754,1.4315894842147827,0.46153846153846156,0.9230769230769231,0.42857142857142855,0.8571428571428571,0.004889482536995825
171,1.2387709021568298,1.407028079032898,0.4423076923076923,0.9423076923076923,0.2857142857142857,0.8571428571428571,0.0048776412907378846
172,1.1364091038703918,1.6193625926971436,0.4807692307692308,0.9038461538461539,0.2857142857142857,0.7857142857142857,0.004865213397068863
173,1.0401424765586853,1.7868549823760986,0.4807692307692308,0.9807692307692307,0.21428571428571427,0.7857142857142857,0.004852201922385564
174,1.1231104135513306,1.703867793083191,0.4807692307692308,0.9423076923076923,0.21428571428571427,0.8571428571428571,0.004838610077074669
175,1.2811356782913208,1.8281710147857666,0.4230769230769231,0.8846153846153846,0.21428571428571427,0.8571428571428571,0.004824441214720628
176,1.107494831085205,1.931457281112671,0.5192307692307693,0.9615384615384616,0.21428571428571427,0.8571428571428571,0.004809698831278217
177,1.1172965168952942,2.1302754878997803,0.5576923076923077,0.9615384615384616,0.35714285714285715,0.7857142857142857,0.0047943865642099525
178,1.167972981929779,1.8205260038375854,0.46153846153846156,0.9230769230769231,0.35714285714285715,0.7142857142857143,0.004778508191588613
179,1.281888723373413,1.9663243293762207,0.4423076923076923,0.9423076923076923,0.2857142857142857,0.8571428571428571,0.004762067631165049
180,1.1076918840408325,1.3917086124420166,0.4423076923076923,0.9615384615384616,0.5714285714285714,0.9285714285714286,0.004745068939401539
181,1.2369407415390015,1.6041367053985596,0.5192307692307693,0.9230769230769231,0.35714285714285715,0.8571428571428571,0.00472751631047092
182,1.3660092949867249,1.51746666431427,0.36538461538461536,0.9230769230769231,0.42857142857142855,0.9285714285714286,0.004709414075221734
183,1.2327487468719482,1.6116251945495605,0.5192307692307693,0.9230769230769231,0.2857142857142857,0.8571428571428571,0.0046907667001096585
184,1.2592421770095825,1.9671351909637451,0.4807692307692308,0.9423076923076923,0.2857142857142857,0.7857142857142857,0.004671578786095479
185,1.2460623979568481,1.6572259664535522,0.46153846153846156,0.9230769230769231,0.2857142857142857,0.8571428571428571,0.0046518550675098596
186,1.2747341394424438,1.8527495861053467,0.46153846153846156,0.9230769230769231,0.21428571428571427,0.8571428571428571,0.004631600410885231
187,1.2149160504341125,1.735986590385437,0.46153846153846156,0.9423076923076923,0.21428571428571427,0.8571428571428571,0.004610819813755038
188,1.2483333349227905,1.8176085948944092,0.46153846153846156,0.9038461538461539,0.2857142857142857,0.8571428571428571,0.004589518403420676
189,1.2830722332000732,1.503438949584961,0.5961538461538461,0.8846153846153846,0.42857142857142855,0.8571428571428571,0.004567701435686404
190,1.157220482826233,1.5567028522491455,0.5384615384615384,0.9230769230769231,0.5,0.7142857142857143,0.004545374293562558
191,1.0218783020973206,1.3264484405517578,0.4807692307692308,0.9807692307692307,0.5,0.9285714285714286,0.0045225424859373685
192,1.190520167350769,1.862005352973938,0.5384615384615384,0.9423076923076923,0.42857142857142855,0.6428571428571429,0.004499211646217727
193,1.3976821303367615,1.2976312637329102,0.40384615384615385,0.8846153846153846,0.42857142857142855,0.9285714285714286,0.0044753875309392266
194,1.150711178779602,1.7490992546081543,0.5,0.9423076923076923,0.35714285714285715,0.7857142857142857,0.004451076018345824
195,1.1679012775421143,1.8978040218353271,0.5192307692307693,0.9615384615384616,0.2857142857142857,0.8571428571428571,0.004426283106939473
196,1.1845878958702087,1.4799330234527588,0.4807692307692308,0.9230769230769231,0.5714285714285714,0.8571428571428571,0.004401014914000078
197,1.1954556703567505,1.5322202444076538,0.5,0.9807692307692307,0.5714285714285714,0.8571428571428571,0.004375277674076149
198,1.2250202298164368,1.7898668050765991,0.5,0.8846153846153846,0.42857142857142855,0.8571428571428571,0.004349077737446524
199,1.0494440793991089,1.3429771661758423,0.5769230769230769,0.9615384615384616,0.42857142857142855,0.9285714285714286,0.004322421568553529
200,1.2202573418617249,1.7640506029129028,0.5961538461538461,0.9038461538461539,0.2857142857142857,0.7857142857142857,0.004295315744407973
201,0.9372337162494659,1.391605019569397,0.5769230769230769,0.9807692307692307,0.2857142857142857,0.9285714285714286,0.004267766952966369
202,1.1860374212265015,1.640355110168457,0.40384615384615385,0.9423076923076923,0.2857142857142857,0.7857142857142857,0.004239781991480785
203,1.1362172961235046,1.8062771558761597,0.4807692307692308,0.9038461538461539,0.14285714285714285,0.8571428571428571,0.004211367764821722
204,1.0867031812667847,1.7379934787750244,0.5192307692307693,0.9230769230769231,0.5,0.7857142857142857,0.004182531283774433
205,1.2297444939613342,1.3968313932418823,0.6538461538461539,0.8846153846153846,0.5714285714285714,0.8571428571428571,0.00415327966330913
206,1.1044915318489075,2.3057355880737305,0.6153846153846154,0.9615384615384616,0.21428571428571427,0.7857142857142857,0.00412362012082546
207,1.2228822708129883,1.5441385507583618,0.4423076923076923,0.9423076923076923,0.42857142857142855,0.8571428571428571,0.004093559974371724
208,1.0922953486442566,1.2494419813156128,0.5961538461538461,0.9423076923076923,0.42857142857142855,0.9285714285714286,0.004063106640839263
209,1.058252066373825,1.6869847774505615,0.6153846153846154,0.9423076923076923,0.2857142857142857,0.8571428571428571,0.004032267634132442
210,0.8970209360122681,1.7607516050338745,0.6730769230769231,0.9807692307692307,0.5,0.8571428571428571,0.004001050563314711
211,1.296488881111145,1.7450342178344727,0.5384615384615384,0.8846153846153846,0.5,0.8571428571428571,0.003969463130731183
212,0.9725527465343475,1.5842034816741943,0.5961538461538461,0.9615384615384616,0.5,0.8571428571428571,0.003937513130108197
213,1.1385357975959778,1.807120680809021,0.5769230769230769,0.9038461538461539,0.42857142857142855,0.7857142857142857,0.003905208444630327
214,1.0075256526470184,1.8910434246063232,0.6153846153846154,0.9615384615384616,0.42857142857142855,0.8571428571428571,0.0038725570449953295
215,1.127626895904541,1.4753696918487549,0.5769230769230769,0.9423076923076923,0.35714285714285715,0.9285714285714286,0.0038395669874474914
216,0.9722441732883453,1.077224612236023,0.7115384615384616,0.9615384615384616,0.5714285714285714,0.9285714285714286,0.0038062464117898723
217,1.1487927436828613,1.5778189897537231,0.5961538461538461,0.9615384615384616,0.21428571428571427,0.8571428571428571,0.0037726035393759283
218,1.3212065696716309,1.5013797283172607,0.4807692307692308,0.9230769230769231,0.5714285714285714,0.9285714285714286,0.003738646671081019
219,1.0528700649738312,1.0920840501785278,0.5961538461538461,0.9615384615384616,0.5714285714285714,0.9285714285714286,0.0037043841852542883
220,0.9491698443889618,1.6147112846374512,0.5576923076923077,0.9807692307692307,0.5,0.8571428571428571,0.0036698245356514337
221,0.8836813867092133,1.9257875680923462,0.7307692307692307,0.9807692307692307,0.42857142857142855,0.7857142857142857,0.003634976249348867
222,1.0145559012889862,1.5910309553146362,0.6538461538461539,0.9423076923076923,0.42857142857142855,0.8571428571428571,0.0035998479246397877
223,1.061744213104248,2.194610357284546,0.6346153846153846,0.9423076923076923,0.42857142857142855,0.7142857142857143,0.003564448228912682
224,1.053480178117752,1.7054001092910767,0.6346153846153846,0.9230769230769231,0.42857142857142855,0.8571428571428571,0.0035287858965127724
225,1.3580336570739746,1.7419368028640747,0.5384615384615384,0.8653846153846154,0.5,0.8571428571428571,0.003492869726586951
226,1.0479658246040344,2.063124179840088,0.5961538461538461,0.9423076923076923,0.2857142857142857,0.7857142857142857,0.003456708580912725
227,0.8915583491325378,1.770392656326294,0.7115384615384616,0.9807692307692307,0.42857142857142855,0.7857142857142857,0.0034203113817116953
228,0.9933216869831085,1.0580672025680542,0.6346153846153846,0.9423076923076923,0.5,0.9285714285714286,0.003383687109448143
229,1.0183705985546112,1.466541051864624,0.6538461538461539,0.9423076923076923,0.5,0.9285714285714286,0.0033468448006132292
230,0.9694336652755737,1.20216703414917,0.6346153846153846,0.9423076923076923,0.5714285714285714,0.9285714285714286,0.003309793545495374
231,1.0871266722679138,1.7492660284042358,0.6153846153846154,0.9038461538461539,0.35714285714285715,0.8571428571428571,0.0032725424859373687
232,1.087271273136139,1.2672083377838135,0.6346153846153846,0.9230769230769231,0.5,0.8571428571428571,0.00323510081308076
233,1.063421905040741,1.7503888607025146,0.6153846153846154,0.9615384615384616,0.42857142857142855,0.7857142857142857,0.0031974777650980737
234,0.9464423954486847,1.5391743183135986,0.6346153846153846,0.9807692307692307,0.5714285714285714,0.8571428571428571,0.003159682624913432
235,0.996683269739151,1.4788570404052734,0.5769230769230769,0.9423076923076923,0.5,0.8571428571428571,0.0031217247179121366
236,1.0051841735839844,1.2626960277557373,0.6153846153846154,0.9615384615384616,0.42857142857142855,0.8571428571428571,0.0030836134096397638
237,0.9867701232433319,1.2835477590560913,0.6153846153846154,0.9807692307692307,0.42857142857142855,0.8571428571428571,0.0030453581034913567
238,0.9782463312149048,1.9722188711166382,0.6346153846153846,0.9423076923076923,0.2857142857142857,0.8571428571428571,0.0030069682383912816
239,1.0432462096214294,1.4189499616622925,0.6730769230769231,0.9038461538461539,0.6428571428571429,0.7857142857142857,0.002968453286464312
240,0.9083837270736694,1.775535225868225,0.5961538461538461,1.0,0.42857142857142855,0.7857142857142857,0.0029298227506985236
241,1.0046330690383911,1.5876312255859375,0.6346153846153846,0.9423076923076923,0.35714285714285715,0.8571428571428571,0.0028910861626005773
242,0.9761525690555573,1.4432719945907593,0.6923076923076923,0.9423076923076923,0.5,0.8571428571428571,0.0028522530798439573
243,1.0354048311710358,1.4966884851455688,0.6538461538461539,0.9423076923076923,0.5714285714285714,0.8571428571428571,0.002813333083910761
244,1.089194506406784,1.2617466449737549,0.6538461538461539,0.9615384615384616,0.5,0.9285714285714286,0.0027743357777276134
245,0.9511843323707581,1.218817949295044,0.6923076923076923,0.9615384615384616,0.5,0.8571428571428571,0.002735270783296286
246,0.9177384674549103,1.7710251808166504,0.6923076923076923,0.9423076923076923,0.42857142857142855,0.8571428571428571,0.0026961477393196128
247,0.9736422598361969,2.22721791267395,0.5769230769230769,0.9807692307692307,0.2857142857142857,0.7857142857142857,0.0026569762988232835
248,1.0480751693248749,1.2264251708984375,0.6346153846153846,0.9038461538461539,0.6428571428571429,0.9285714285714286,0.0026177661267741065
249,1.0149884819984436,1.5479164123535156,0.5961538461538461,0.9807692307692307,0.5,0.8571428571428571,0.0025785268976953207
250,1.0083844661712646,1.3481796979904175,0.7692307692307693,0.9230769230769231,0.5714285714285714,0.9285714285714286,0.002539268293279552
251,1.02594792842865,1.6094019412994385,0.6923076923076923,0.9230769230769231,0.42857142857142855,0.7857142857142857,0.0025
252,0.9362145364284515,1.7823173999786377,0.6538461538461539,0.9807692307692307,0.42857142857142855,0.8571428571428571,0.002460731706720449
253,1.0804016590118408,1.5035157203674316,0.5769230769230769,0.9615384615384616,0.5714285714285714,0.8571428571428571,0.0024214731023046794
254,1.0963457822799683,1.6227941513061523,0.6153846153846154,0.9423076923076923,0.42857142857142855,0.8571428571428571,0.0023822338732258936
255,1.0240771174430847,1.4721137285232544,0.6153846153846154,0.9423076923076923,0.5,0.8571428571428571,0.0023430237011767166
256,1.218035876750946,1.7539823055267334,0.5576923076923077,0.9230769230769231,0.42857142857142855,0.8571428571428571,0.002303852260680388
257,1.1438338160514832,1.5232144594192505,0.5384615384615384,0.9230769230769231,0.5,0.7857142857142857,0.002264729216703714
258,0.9389043748378754,1.8342496156692505,0.6538461538461539,0.9807692307692307,0.42857142857142855,0.7857142857142857,0.0022256642222723867
259,1.0614920854568481,1.7041773796081543,0.7115384615384616,0.9615384615384616,0.42857142857142855,0.7857142857142857,0.0021866669160892395
260,0.8280614018440247,1.5163542032241821,0.7115384615384616,0.9807692307692307,0.42857142857142855,0.9285714285714286,0.002147746920156044
261,0.9105079174041748,1.7811410427093506,0.6538461538461539,0.9807692307692307,0.5,0.7857142857142857,0.002108913837399423
262,1.0417707562446594,1.8845514059066772,0.6730769230769231,0.9230769230769231,0.42857142857142855,0.7857142857142857,0.002070177249301476
263,0.8256256282329559,1.6067662239074707,0.6923076923076923,1.0,0.5,0.8571428571428571,0.0020315467135356884
264,0.9784915447235107,1.5404720306396484,0.6346153846153846,0.9038461538461539,0.5,0.8571428571428571,0.001993031761608719
265,1.197952687740326,1.8058385848999023,0.5192307692307693,0.9038461538461539,0.42857142857142855,0.8571428571428571,0.0019546418965086442
266,0.9642391800880432,1.6620323657989502,0.6730769230769231,0.9423076923076923,0.35714285714285715,0.8571428571428571,0.0019163865903602361
267,0.9172721803188324,1.6112366914749146,0.5961538461538461,0.9807692307692307,0.42857142857142855,0.8571428571428571,0.0018782752820878628
268,0.9597892165184021,1.1236515045166016,0.6730769230769231,0.9615384615384616,0.5714285714285714,0.8571428571428571,0.0018403173750865679
269,1.0641993880271912,1.339238166809082,0.6346153846153846,0.9423076923076923,0.5714285714285714,0.9285714285714286,0.001802522234901927
270,1.021564245223999,1.7482876777648926,0.6153846153846154,0.9615384615384616,0.42857142857142855,0.7857142857142857,0.0017648991869192404
271,1.1179857850074768,1.4372934103012085,0.5769230769230769,0.9230769230769231,0.5,0.8571428571428571,0.0017274575140626323
272,1.1355145573616028,1.4303110837936401,0.6346153846153846,0.8846153846153846,0.35714285714285715,0.9285714285714286,0.0016902064545046263
273,1.1676945090293884,1.4662296772003174,0.5384615384615384,0.8846153846153846,0.42857142857142855,0.8571428571428571,0.0016531551993867715
274,1.0830122232437134,1.6338136196136475,0.6153846153846154,0.8653846153846154,0.35714285714285715,0.8571428571428571,0.0016163128905518577
275,0.9976871311664581,1.4408669471740723,0.6730769230769231,0.9423076923076923,0.5,0.8571428571428571,0.0015796886182883059
276,0.9423313736915588,1.1576917171478271,0.6538461538461539,0.9423076923076923,0.5714285714285714,0.9285714285714286,0.0015432914190872762
277,0.8509478569030762,1.1307528018951416,0.6730769230769231,0.9807692307692307,0.5714285714285714,1.0,0.0015071302734130482
278,0.9874611496925354,1.1227959394454956,0.6346153846153846,0.9807692307692307,0.5714285714285714,0.9285714285714286,0.001471214103487228
279,1.0169806480407715,1.6327528953552246,0.6538461538461539,0.9423076923076923,0.5,0.7857142857142857,0.0014355517710873183
280,0.881541907787323,1.231725811958313,0.6923076923076923,0.9807692307692307,0.5714285714285714,0.8571428571428571,0.001400152075360212
281,0.977948009967804,2.036722183227539,0.6923076923076923,0.9423076923076923,0.42857142857142855,0.7142857142857143,0.0013650237506511332
282,1.0393028259277344,2.11291241645813,0.5769230769230769,0.9038461538461539,0.42857142857142855,0.7142857142857143,0.001330175464348567
283,0.9258798658847809,1.7544312477111816,0.6346153846153846,0.9807692307692307,0.5714285714285714,0.8571428571428571,0.0012956158147457114
284,0.8983281552791595,1.4578490257263184,0.6153846153846154,0.9807692307692307,0.5,0.9285714285714286,0.001261353328918981
285,0.8855913281440735,2.0804214477539062,0.7115384615384616,0.9807692307692307,0.42857142857142855,0.7857142857142857,0.0012273964606240718
286,0.7972331941127777,1.8187235593795776,0.7307692307692307,0.9807692307692307,0.5714285714285714,0.7857142857142857,0.001193753588210128
287,0.8360710144042969,1.501454472541809,0.7307692307692307,0.9615384615384616,0.5714285714285714,0.9285714285714286,0.0011604330125525079
288,0.9800089597702026,1.7127459049224854,0.6346153846153846,0.9230769230769231,0.42857142857142855,0.8571428571428571,0.0011274429550046702
289,1.1312425136566162,1.3334274291992188,0.6153846153846154,0.9038461538461539,0.5,0.8571428571428571,0.0010947915553696733
290,0.8784598708152771,1.624447226524353,0.6923076923076923,0.9615384615384616,0.5714285714285714,0.9285714285714286,0.0010624868698918036
291,0.8816987872123718,1.5287247896194458,0.6730769230769231,0.9423076923076923,0.42857142857142855,0.9285714285714286,0.0010305368692688174
292,0.9577098190784454,1.5392240285873413,0.6730769230769231,0.9423076923076923,0.42857142857142855,0.8571428571428571,0.0009989494366852902
293,0.9937871098518372,1.8433260917663574,0.5961538461538461,0.8846153846153846,0.2857142857142857,0.7857142857142857,0.0009677323658675585
294,1.0432660281658173,1.387386441230774,0.5384615384615384,0.9423076923076923,0.5714285714285714,0.8571428571428571,0.000936893359160737
295,0.8010949194431305,1.5464006662368774,0.6730769230769231,1.0,0.5,0.9285714285714286,0.0009064400256282757
296,0.8176062405109406,1.3503124713897705,0.7307692307692307,0.9807692307692307,0.5,0.9285714285714286,0.0008763798791745412
297,0.9806602895259857,1.2371711730957031,0.6346153846153846,0.9230769230769231,0.5,0.9285714285714286,0.0008467203366908707
298,0.815975159406662,1.8537733554840088,0.7307692307692307,0.9423076923076923,0.42857142857142855,0.7857142857142857,0.0008174687162255665
299,0.9569772183895111,1.487452745437622,0.6153846153846154,0.9615384615384616,0.5,0.9285714285714286,0.0007886322351782782
300,0.8817858099937439,2.170955181121826,0.6346153846153846,0.9615384615384616,0.42857142857142855,0.7857142857142857,0.0007602180085192142
301,0.835379958152771,1.3102900981903076,0.7115384615384616,0.9807692307692307,0.6428571428571429,0.7857142857142857,0.0007322330470336313
302,1.0164699852466583,1.5108366012573242,0.6346153846153846,0.9230769230769231,0.5,0.9285714285714286,0.0007046842555920282
303,0.781987190246582,1.9574733972549438,0.7115384615384616,0.9807692307692307,0.5,0.7857142857142857,0.0006775784314464717
304,0.7562631666660309,1.3824362754821777,0.7115384615384616,1.0,0.5714285714285714,0.8571428571428571,0.0006509222625534758
305,0.7910416722297668,1.3877589702606201,0.7307692307692307,0.9807692307692307,0.5,0.8571428571428571,0.0006247223259238514
306,0.8836343586444855,1.753515362739563,0.6346153846153846,0.9807692307692307,0.42857142857142855,0.8571428571428571,0.0005989850859999227
307,0.9212904572486877,1.325541615486145,0.6730769230769231,0.9230769230769231,0.5714285714285714,0.7857142857142857,0.0005737168930605272
308,0.817917674779892,1.6206016540527344,0.6538461538461539,1.0,0.42857142857142855,0.9285714285714286,0.000548923981654176
309,0.824141800403595,1.7909674644470215,0.6730769230769231,0.9615384615384616,0.5714285714285714,0.8571428571428571,0.000524612469060774
310,0.8130532503128052,1.887824296951294,0.6730769230769231,0.9807692307692307,0.42857142857142855,0.8571428571428571,0.0005007883537822738
311,1.1408525705337524,1.0207841396331787,0.6346153846153846,0.8846153846153846,0.6428571428571429,0.9285714285714286,0.00047745751406263163
312,0.736644983291626,1.6936321258544922,0.7307692307692307,1.0,0.5,0.8571428571428571,0.00045462570643744175
313,0.845701277256012,1.2086708545684814,0.6538461538461539,0.9807692307692307,0.5,0.9285714285714286,0.000432298564313596
314,0.8739161789417267,1.3454853296279907,0.6346153846153846,0.9807692307692307,0.5,0.9285714285714286,0.00041048159657932487
315,0.7342827916145325,1.5508427619934082,0.6730769230769231,0.9807692307692307,0.5,0.9285714285714286,0.00038918018624496285
316,0.9135901033878326,1.4710490703582764,0.6730769230769231,0.9038461538461539,0.5,0.9285714285714286,0.00036839958911477014
317,0.8246660232543945,1.9321088790893555,0.7115384615384616,0.9615384615384616,0.35714285714285715,0.7857142857142857,0.0003481449324901406
318,0.9225289523601532,1.490925669670105,0.7115384615384616,0.9230769230769231,0.2857142857142857,0.8571428571428571,0.0003284212139045217
319,0.9361611306667328,1.376609444618225,0.5769230769230769,0.9615384615384616,0.5,0.9285714285714286,0.00030923329989034103
320,0.8145073652267456,1.708747386932373,0.6730769230769231,0.9615384615384616,0.42857142857142855,0.8571428571428571,0.00029058592477826633
321,0.7212081849575043,1.835829496383667,0.75,0.9807692307692307,0.35714285714285715,0.7857142857142857,0.00027248368952908055
322,0.7971071898937225,1.371462345123291,0.6923076923076923,0.9615384615384616,0.6428571428571429,0.9285714285714286,0.00025493106059846116
323,0.9095678627490997,1.361997365951538,0.6346153846153846,0.9423076923076923,0.42857142857142855,0.8571428571428571,0.00023793236883495162
324,0.9885058999061584,1.7712712287902832,0.6538461538461539,0.9615384615384616,0.42857142857142855,0.8571428571428571,0.00022149180841138732
325,0.8376349806785583,1.2893894910812378,0.6346153846153846,0.9615384615384616,0.5714285714285714,0.9285714285714286,0.0002056134357900477
326,0.9176945984363556,1.394186019897461,0.6538461538461539,0.9615384615384616,0.42857142857142855,0.8571428571428571,0.0001903011687217837
327,1.072437047958374,1.3255870342254639,0.6153846153846154,0.9423076923076923,0.5714285714285714,0.9285714285714286,0.00017555878527937164
328,0.8393383324146271,1.7207977771759033,0.6730769230769231,0.9615384615384616,0.42857142857142855,0.7857142857142857,0.00016138992292533155
329,0.8782856166362762,1.7058227062225342,0.6730769230769231,0.9230769230769231,0.42857142857142855,0.7857142857142857,0.00014779807761443637
330,0.7990899682044983,1.4597198963165283,0.7115384615384616,0.9615384615384616,0.5,0.8571428571428571,0.00013478660293113676
331,0.7593298256397247,1.1896123886108398,0.7115384615384616,0.9807692307692307,0.6428571428571429,0.9285714285714286,0.00012235870926211617
332,0.6988880336284637,1.305976152420044,0.8269230769230769,0.9615384615384616,0.5714285714285714,0.9285714285714286,0.0001105174630041747
333,0.6909855902194977,1.6339614391326904,0.6923076923076923,1.0,0.5,0.8571428571428571,9.926578580764262e-05
334,1.0138778388500214,1.3058011531829834,0.6923076923076923,0.9230769230769231,0.5,0.9285714285714286,8.860645385550508e-05
335,0.9527480006217957,2.1494884490966797,0.6730769230769231,0.9423076923076923,0.2857142857142857,0.7857142857142857,7.854209717842258e-05
336,1.121000200510025,1.1505229473114014,0.6153846153846154,0.9615384615384616,0.5,0.9285714285714286,6.90751990058086e-05
337,1.0050407350063324,1.7207255363464355,0.6346153846153846,0.9423076923076923,0.35714285714285715,0.7857142857142857,6.0208095153131695e-05
338,1.0266535878181458,1.95481276512146,0.5961538461538461,0.9615384615384616,0.42857142857142855,0.8571428571428571,5.194297344558535e-05
339,0.9209879040718079,1.8554129600524902,0.6730769230769231,0.9615384615384616,0.5,0.7857142857142857,4.4281873178278196e-05
340,0.8720959722995758,1.3464678525924683,0.7115384615384616,0.9615384615384616,0.5,0.9285714285714286,3.7226684613065334e-05
341,0.7650450766086578,1.7621560096740723,0.6538461538461539,0.9807692307692307,0.42857142857142855,0.8571428571428571,3.077914851215585e-05
342,0.8422216773033142,1.9464962482452393,0.7115384615384616,0.9615384615384616,0.35714285714285715,0.8571428571428571,2.4940855708606158e-05
343,0.9853944480419159,1.1947206258773804,0.6923076923076923,0.9423076923076923,0.5,0.9285714285714286,1.9713246713805587e-05
344,1.0347929298877716,0.8407901525497437,0.6538461538461539,0.9615384615384616,0.7142857142857143,1.0,1.5097611362051012e-05
345,0.875807523727417,1.7232842445373535,0.6923076923076923,0.9423076923076923,0.35714285714285715,0.8571428571428571,1.109508849230001e-05
346,0.9631115198135376,1.1692142486572266,0.6730769230769231,0.9038461538461539,0.5714285714285714,0.9285714285714286,7.70666566718009e-06
347,0.8356953561306,0.9334037899971008,0.6538461538461539,0.9807692307692307,0.7142857142857143,1.0,4.933178929321102e-06
348,0.9939433932304382,1.1920634508132935,0.5769230769230769,0.9615384615384616,0.42857142857142855,0.9285714285714286,2.775312595075241e-06
349,0.7538277506828308,1.4282231330871582,0.7115384615384616,1.0,0.5,0.9285714285714286,1.233599085671e-06
350,0.815922349691391,1.7596259117126465,0.7115384615384616,0.9615384615384616,0.5,0.8571428571428571,3.0841879584853074e-07
351,1.176853895187378,1.6079940795898438,0.6346153846153846,0.9038461538461539,0.42857142857142855,0.8571428571428571,0.005
352,1.091452419757843,1.9246189594268799,0.6153846153846154,0.8846153846153846,0.5,0.8571428571428571,0.004999922894111975
353,1.012136548757553,1.4267408847808838,0.6153846153846154,0.9038461538461539,0.35714285714285715,0.8571428571428571,0.004999691581204151
354,0.9754297137260437,2.0605385303497314,0.6538461538461539,0.9423076923076923,0.35714285714285715,0.8571428571428571,0.004999306075545002
355,0.9507796466350555,1.7384332418441772,0.6538461538461539,0.9615384615384616,0.35714285714285715,0.9285714285714286,0.0049987664009143295
356,0.9911079406738281,1.391249418258667,0.6153846153846154,0.9807692307692307,0.6428571428571429,0.8571428571428571,0.004998072590601808
357,0.9942343533039093,1.755159854888916,0.6153846153846154,0.9230769230769231,0.42857142857142855,0.8571428571428571,0.004997224687404925
358,0.9445650279521942,2.051852226257324,0.6153846153846154,0.9423076923076923,0.42857142857142855,0.7857142857142857,0.004996222743626345
359,0.9458775520324707,1.3774851560592651,0.6346153846153846,0.9423076923076923,0.42857142857142855,0.8571428571428571,0.004995066821070679
360,0.971178412437439,1.9123555421829224,0.5961538461538461,0.9615384615384616,0.42857142857142855,0.7857142857142857,0.004993756991040675
361,0.969774603843689,1.4137569665908813,0.6923076923076923,0.9615384615384616,0.5,0.8571428571428571,0.00499229333433282
362,0.9359526932239532,1.7146310806274414,0.6923076923076923,0.9807692307692307,0.5,0.8571428571428571,0.004990675941232353
363,1.2662948966026306,1.51497220993042,0.5961538461538461,0.9423076923076923,0.42857142857142855,0.9285714285714286,0.0049889049115077
364,0.7995567619800568,2.0491859912872314,0.7115384615384616,0.9807692307692307,0.35714285714285715,0.8571428571428571,0.004986980354404316
365,0.9944940805435181,1.4411746263504028,0.6153846153846154,0.9230769230769231,0.5,0.8571428571428571,0.004984902388637949
366,1.0132745206356049,1.807821273803711,0.6538461538461539,0.9230769230769231,0.5,0.7857142857142857,0.0049826711423873165
367,0.9741307199001312,0.9236758351325989,0.6538461538461539,0.9423076923076923,0.6428571428571429,1.0,0.004980286753286195
368,0.8178725242614746,1.37582528591156,0.6923076923076923,0.9807692307692307,0.5714285714285714,0.9285714285714286,0.0049777493684149375
369,1.1481528878211975,1.223646640777588,0.6538461538461539,0.9038461538461539,0.5714285714285714,0.9285714285714286,0.004975059144291394
370,0.9000251591205597,1.6008965969085693,0.6538461538461539,0.9807692307692307,0.42857142857142855,0.8571428571428571,0.004972216246861262
371,1.3233961462974548,1.5183104276657104,0.6538461538461539,0.8461538461538461,0.35714285714285715,0.8571428571428571,0.0049692208514878445
372,0.9347397089004517,1.6680500507354736,0.7115384615384616,0.9423076923076923,0.5,0.8571428571428571,0.004966073142941238
373,0.8585880398750305,1.6234009265899658,0.7115384615384616,0.9615384615384616,0.5,0.8571428571428571,0.004962773315386935
374,1.0286709070205688,1.868516445159912,0.5961538461538461,0.9423076923076923,0.35714285714285715,0.8571428571428571,0.00495932157237384
375,1.061975508928299,1.9830464124679565,0.6923076923076923,0.9423076923076923,0.2857142857142857,0.8571428571428571,0.004955718126821722
376,1.1499864161014557,1.797868013381958,0.5961538461538461,0.9230769230769231,0.42857142857142855,0.8571428571428571,0.004951963201008076
377,1.0488680303096771,1.6501985788345337,0.5769230769230769,0.8846153846153846,0.5,0.8571428571428571,0.0049480570265544145
378,1.0062659978866577,1.2627627849578857,0.6346153846153846,0.9615384615384616,0.6428571428571429,0.8571428571428571,0.004943999844411977
379,1.0999969244003296,1.545236349105835,0.5192307692307693,0.9423076923076923,0.5,0.8571428571428571,0.004939791904846869
380,1.0567055344581604,1.2994866371154785,0.6346153846153846,0.9230769230769231,0.5714285714285714,0.8571428571428571,0.004935433467424624
381,1.0114507973194122,1.0489529371261597,0.6538461538461539,0.9615384615384616,0.5714285714285714,1.0,0.004930924800994192
382,1.0222081243991852,1.670083999633789,0.6730769230769231,0.9615384615384616,0.5714285714285714,0.8571428571428571,0.004926266183671356
383,1.207346796989441,1.5575242042541504,0.5384615384615384,0.9230769230769231,0.42857142857142855,0.8571428571428571,0.004921457902821578
384,0.971649557352066,1.747063159942627,0.6923076923076923,0.9038461538461539,0.5,0.7857142857142857,0.004916500255042268
385,0.8402690887451172,1.8301968574523926,0.7307692307692307,0.9615384615384616,0.42857142857142855,0.8571428571428571,0.004911393546144495
386,0.9633972346782684,1.6405308246612549,0.6346153846153846,0.9230769230769231,0.5,0.8571428571428571,0.004906138091134118
387,0.8665449321269989,1.465794324874878,0.6346153846153846,1.0,0.5,0.7857142857142857,0.004900734214192358
388,1.0886602103710175,1.4162367582321167,0.6923076923076923,0.9038461538461539,0.42857142857142855,0.8571428571428571,0.004895182248655799
389,1.0955972373485565,1.6841890811920166,0.6923076923076923,0.9230769230769231,0.42857142857142855,0.8571428571428571,0.004889482536995825
390,1.063973605632782,1.9582006931304932,0.5961538461538461,0.9038461538461539,0.5,0.7857142857142857,0.004883635430797503
391,1.035037636756897,1.650057077407837,0.6153846153846154,0.9230769230769231,0.5,0.8571428571428571,0.0048776412907378846
392,1.06208074092865,1.604126214981079,0.6538461538461539,0.9230769230769231,0.42857142857142855,0.8571428571428571,0.0048715004865637615
393,0.8552856147289276,1.8700671195983887,0.7307692307692307,0.9807692307692307,0.5,0.8571428571428571,0.004865213397068863
394,0.8617801368236542,1.617617130279541,0.7307692307692307,1.0,0.42857142857142855,0.7857142857142857,0.004858780410070484
395,0.9063399136066437,1.535691261291504,0.6538461538461539,0.9423076923076923,0.5,0.7857142857142857,0.004852201922385564
396,0.8180051147937775,1.4039011001586914,0.75,0.9807692307692307,0.5,0.9285714285714286,0.00484547833980621
397,0.9991156458854675,1.8588961362838745,0.6153846153846154,0.9423076923076923,0.42857142857142855,0.7857142857142857,0.004838610077074669
398,0.9175636172294617,1.5432846546173096,0.7307692307692307,0.9230769230769231,0.5714285714285714,0.9285714285714286,0.004831597557857736
399,0.8868535161018372,1.5949338674545288,0.6538461538461539,1.0,0.5,0.7857142857142857,0.004824441214720628
400,1.0736323297023773,1.3990039825439453,0.6730769230769231,0.9230769230769231,0.5,0.9285714285714286,0.0048171414891003015
401,0.8632330894470215,1.8169736862182617,0.6538461538461539,0.9807692307692307,0.5714285714285714,0.8571428571428571,0.004809698831278217
402,0.9230886697769165,2.2512331008911133,0.6346153846153846,0.9423076923076923,0.35714285714285715,0.7142857142857143,0.004802113700352566
403,1.1198627650737762,1.4725286960601807,0.5384615384615384,0.9038461538461539,0.42857142857142855,0.8571428571428571,0.0047943865642099525
404,1.0585306286811829,1.648041009902954,0.5961538461538461,0.9230769230769231,0.35714285714285715,0.8571428571428571,0.004786517899496534
405,0.85591059923172,1.3112027645111084,0.6538461538461539,0.9807692307692307,0.5,0.8571428571428571,0.004778508191588613
406,0.896340399980545,1.4434577226638794,0.7115384615384616,0.9615384615384616,0.5,0.8571428571428571,0.0047703579345627035
407,0.9885486364364624,2.1053900718688965,0.7307692307692307,0.9230769230769231,0.42857142857142855,0.7142857142857143,0.004762067631165049
408,0.9257055222988129,1.765464186668396,0.6153846153846154,0.9615384615384616,0.42857142857142855,0.7857142857142857,0.004753637792780614
409,0.944863885641098,1.4377652406692505,0.7115384615384616,0.9615384615384616,0.42857142857142855,0.9285714285714286,0.004745068939401539
410,1.2518565654754639,1.2059202194213867,0.6153846153846154,0.8846153846153846,0.5,0.9285714285714286,0.0047363615995950625
411,1.057367742061615,1.6335433721542358,0.5961538461538461,0.9230769230769231,0.42857142857142855,0.8571428571428571,0.00472751631047092
412,0.9028638601303101,1.5959343910217285,0.7115384615384616,0.9615384615384616,0.42857142857142855,0.8571428571428571,0.004718533617648208
413,0.8585324287414551,1.0626578330993652,0.6730769230769231,0.9423076923076923,0.6428571428571429,1.0,0.004709414075221734
414,1.1155601143836975,1.9372568130493164,0.5576923076923077,0.9423076923076923,0.42857142857142855,0.7857142857142857,0.00470015824572783
415,1.3006389737129211,1.6697640419006348,0.5384615384615384,0.8846153846153846,0.5,0.8571428571428571,0.0046907667001096585
416,0.8194545805454254,1.918337106704712,0.6923076923076923,0.9807692307692307,0.5,0.8571428571428571,0.004681240017681993
417,1.0759096145629883,1.4407743215560913,0.5769230769230769,0.9230769230769231,0.42857142857142855,0.9285714285714286,0.004671578786095479
418,0.9540120959281921,1.2157654762268066,0.6538461538461539,0.9423076923076923,0.5,0.9285714285714286,0.004661783601300388
419,0.8924403786659241,1.81133234500885,0.7307692307692307,0.9230769230769231,0.42857142857142855,0.7857142857142857,0.0046518550675098596
420,0.8936760425567627,1.3037209510803223,0.75,0.9038461538461539,0.5714285714285714,0.9285714285714286,0.004641793797162625
421,1.0479878783226013,1.5570945739746094,0.6730769230769231,0.9230769230769231,0.5,0.7857142857142857,0.004631600410885231
422,0.8791254758834839,1.5165057182312012,0.6730769230769231,0.9807692307692307,0.5714285714285714,0.8571428571428571,0.004621275537453759
423,0.9262912273406982,1.90817129611969,0.6538461538461539,0.9615384615384616,0.42857142857142855,0.7857142857142857,0.004610819813755038
424,0.8689543008804321,1.225909948348999,0.6730769230769231,0.9807692307692307,0.5714285714285714,0.9285714285714286,0.004600233884747355
425,0.8678476810455322,1.6193674802780151,0.7307692307692307,0.9807692307692307,0.42857142857142855,0.9285714285714286,0.004589518403420676
426,0.8368286788463593,1.7252757549285889,0.7115384615384616,0.9807692307692307,0.35714285714285715,0.7857142857142857,0.004578674030756363
427,1.1083820462226868,1.627830982208252,0.6346153846153846,0.9423076923076923,0.5,0.8571428571428571,0.004567701435686404
428,0.8083319664001465,1.7396987676620483,0.6923076923076923,0.9615384615384616,0.5,0.8571428571428571,0.00455660129505215
429,0.9361732006072998,1.550203800201416,0.6153846153846154,0.9615384615384616,0.5,0.8571428571428571,0.004545374293562558
430,1.116732895374298,2.26051926612854,0.6153846153846154,0.9423076923076923,0.35714285714285715,0.7142857142857143,0.004534021123751968
431,0.7995941936969757,1.3133087158203125,0.6730769230769231,0.9807692307692307,0.6428571428571429,0.8571428571428571,0.0045225424859373685
432,0.8954647481441498,1.3617496490478516,0.6346153846153846,0.9807692307692307,0.6428571428571429,0.9285714285714286,0.004510939088175211
433,0.7412417829036713,1.3297311067581177,0.7307692307692307,1.0,0.5714285714285714,0.9285714285714286,0.004499211646217727
434,0.9017688632011414,1.6283997297286987,0.7115384615384616,0.9807692307692307,0.5,0.9285714285714286,0.004487360883468775
435,0.7487392127513885,1.9792205095291138,0.75,0.9615384615384616,0.42857142857142855,0.7857142857142857,0.0044753875309392266
436,1.037352442741394,1.5040229558944702,0.7115384615384616,0.9423076923076923,0.5714285714285714,0.9285714285714286,0.004463292327201863
437,1.099772959947586,1.613276720046997,0.6923076923076923,0.9423076923076923,0.5,0.8571428571428571,0.004451076018345824
438,0.9271240532398224,1.594320297241211,0.6346153846153846,0.9615384615384616,0.5,0.9285714285714286,0.004438739357930587
439,1.0791535675525665,1.3648126125335693,0.6538461538461539,0.9230769230769231,0.5714285714285714,0.8571428571428571,0.004426283106939473
440,0.9205065369606018,1.2612465620040894,0.6730769230769231,0.9615384615384616,0.6428571428571429,0.8571428571428571,0.00441370803373272
441,0.9688152372837067,1.2959647178649902,0.6346153846153846,0.9230769230769231,0.6428571428571429,0.9285714285714286,0.004401014914000078
442,1.1205900609493256,1.6558724641799927,0.5961538461538461,0.9615384615384616,0.5,0.8571428571428571,0.004388204530712959
443,0.8228773772716522,2.1041371822357178,0.7307692307692307,0.9807692307692307,0.35714285714285715,0.7142857142857143,0.004375277674076149
444,0.9085067212581635,1.685963749885559,0.6730769230769231,0.9615384615384616,0.42857142857142855,0.8571428571428571,0.004362235141479055
445,0.895462155342102,1.6776301860809326,0.6346153846153846,1.0,0.5714285714285714,0.8571428571428571,0.004349077737446524
446,0.8953824043273926,1.638225793838501,0.6538461538461539,0.9230769230769231,0.5714285714285714,0.7857142857142857,0.004335806273589214
447,0.9569593369960785,1.779249906539917,0.6730769230769231,0.9230769230769231,0.35714285714285715,0.8571428571428571,0.004322421568553529
448,0.9008485972881317,1.148611307144165,0.6538461538461539,0.9423076923076923,0.5714285714285714,0.8571428571428571,0.004308924447971123
449,0.8494392037391663,1.6741399765014648,0.6730769230769231,0.9807692307692307,0.42857142857142855,0.8571428571428571,0.004295315744407973
450,0.7935702204704285,1.6283190250396729,0.75,0.9423076923076923,0.42857142857142855,0.8571428571428571,0.004281596297313013
451,0.9426706433296204,1.3807672262191772,0.6153846153846154,0.9615384615384616,0.5714285714285714,0.8571428571428571,0.004267766952966369
452,0.7700321078300476,1.6802475452423096,0.75,0.9807692307692307,0.5714285714285714,0.7857142857142857,0.00425382856442714
453,1.1864229440689087,1.668320655822754,0.6730769230769231,0.9230769230769231,0.5,0.8571428571428571,0.004239781991480785
454,1.0922477841377258,1.3588815927505493,0.6346153846153846,0.8846153846153846,0.5714285714285714,0.7857142857142857,0.004225628100586093
455,0.7357445657253265,1.3062748908996582,0.7307692307692307,1.0,0.5714285714285714,0.9285714285714286,0.004211367764821722
456,0.9533373713493347,0.9313644170761108,0.6923076923076923,0.9230769230769231,0.6428571428571429,1.0,0.004197001863832355
457,0.8900373578071594,1.7584611177444458,0.6730769230769231,0.9807692307692307,0.5714285714285714,0.8571428571428571,0.004182531283774433
458,0.889881432056427,1.2146214246749878,0.6730769230769231,0.9807692307692307,0.5,0.9285714285714286,0.0041679569172615
459,0.8204681575298309,1.6765050888061523,0.6346153846153846,0.9807692307692307,0.5714285714285714,0.8571428571428571,0.00415327966330913
460,0.751083642244339,1.9155027866363525,0.75,0.9807692307692307,0.5,0.8571428571428571,0.004138500427279485
461,1.040600836277008,1.5558264255523682,0.5961538461538461,0.9230769230769231,0.35714285714285715,0.8571428571428571,0.00412362012082546
462,0.7761351764202118,1.8573668003082275,0.7307692307692307,0.9423076923076923,0.5,0.7857142857142857,0.004108639661834447
463,0.8732873201370239,1.3040924072265625,0.6730769230769231,0.9807692307692307,0.5714285714285714,0.8571428571428571,0.004093559974371724
464,0.6783411800861359,1.658684492111206,0.7307692307692307,0.9423076923076923,0.42857142857142855,0.8571428571428571,0.004078381988623444
465,0.6724147498607635,1.7917081117630005,0.75,0.9807692307692307,0.35714285714285715,0.8571428571428571,0.004063106640839263
466,0.8604697287082672,1.652144432067871,0.6730769230769231,0.9038461538461539,0.5,0.8571428571428571,0.004047734873274585
467,0.8121582865715027,1.124890685081482,0.6730769230769231,1.0,0.5714285714285714,1.0,0.004032267634132442
468,0.6765267848968506,1.70475435256958,0.7884615384615384,0.9615384615384616,0.5,0.8571428571428571,0.004016705877504999
469,0.6980338096618652,1.897839069366455,0.7692307692307693,0.9807692307692307,0.42857142857142855,0.7857142857142857,0.004001050563314711
470,0.8257736265659332,1.5262385606765747,0.6923076923076923,0.9807692307692307,0.5,0.9285714285714286,0.003985302657255096
471,0.8184110820293427,1.7250409126281738,0.7115384615384616,0.9615384615384616,0.5,0.7857142857142857,0.003969463130731183
472,0.7930710911750793,1.9062957763671875,0.7307692307692307,0.9807692307692307,0.5714285714285714,0.8571428571428571,0.003953532960799576
473,0.8013705611228943,2.164138078689575,0.6923076923076923,0.9807692307692307,0.5,0.7857142857142857,0.003937513130108197
474,0.7160886228084564,1.7580373287200928,0.7692307692307693,0.9615384615384616,0.5714285714285714,0.8571428571428571,0.0039214046268356605
475,1.0721746981143951,1.3925423622131348,0.6730769230769231,0.9423076923076923,0.5714285714285714,0.9285714285714286,0.003905208444630327
476,0.7564650475978851,1.8116216659545898,0.6730769230769231,1.0,0.5,0.9285714285714286,0.003888925582549006
477,0.7192806005477905,1.4825185537338257,0.6538461538461539,0.9807692307692307,0.5714285714285714,0.9285714285714286,0.0038725570449953295
478,0.8463602364063263,1.6445748805999756,0.7115384615384616,0.9615384615384616,0.5714285714285714,0.9285714285714286,0.003856103841657797
479,1.1064748764038086,2.5258450508117676,0.7115384615384616,0.9038461538461539,0.35714285714285715,0.7857142857142857,0.0038395669874474914
480,0.9345609545707703,1.3885140419006348,0.6730769230769231,0.9615384615384616,0.5,0.9285714285714286,0.0038229475024354766
481,0.8734259605407715,1.3291471004486084,0.7115384615384616,0.9807692307692307,0.5,0.8571428571428571,0.0038062464117898723
482,0.802025556564331,1.136584758758545,0.6923076923076923,1.0,0.6428571428571429,0.9285714285714286,0.0037894647457126186
483,0.752129077911377,1.2969236373901367,0.6923076923076923,0.9807692307692307,0.6428571428571429,0.8571428571428571,0.0037726035393759283
484,1.013318955898285,2.0520691871643066,0.7307692307692307,0.9230769230769231,0.5714285714285714,0.7142857142857143,0.0037556638328584313
485,1.1109319031238556,1.547412633895874,0.7115384615384616,0.9038461538461539,0.5714285714285714,0.8571428571428571,0.003738646671081019
486,0.996789276599884,0.8443815112113953,0.6538461538461539,0.9230769230769231,0.6428571428571429,1.0,0.003721553103742388
487,0.9678991138935089,1.5832830667495728,0.6538461538461539,0.9038461538461539,0.5,0.8571428571428571,0.0037043841852542883
488,0.8699702620506287,1.6557700634002686,0.7115384615384616,0.9423076923076923,0.5,0.8571428571428571,0.003687140974676486
489,0.7452377080917358,1.0342446565628052,0.75,0.9807692307692307,0.6428571428571429,0.9285714285714286,0.0036698245356514337
490,0.9645518660545349,1.8173545598983765,0.75,0.9038461538461539,0.5,0.8571428571428571,0.0036524359363386562
491,0.8852298855781555,2.1846401691436768,0.7115384615384616,0.9615384615384616,0.35714285714285715,0.7857142857142857,0.003634976249348867
492,1.072054386138916,1.5254896879196167,0.6538461538461539,0.9038461538461539,0.5,0.8571428571428571,0.003617446551677803
493,0.8494390547275543,1.4237366914749146,0.6923076923076923,0.9615384615384616,0.5714285714285714,0.9285714285714286,0.0035998479246397877
494,0.8132707476615906,0.943205714225769,0.6730769230769231,0.9807692307692307,0.6428571428571429,0.8571428571428571,0.003582181453801035
495,0.8193647265434265,1.1292665004730225,0.6923076923076923,0.9615384615384616,0.7857142857142857,0.9285714285714286,0.003564448228912682
496,0.8994597494602203,1.4235687255859375,0.6730769230769231,0.9230769230769231,0.5714285714285714,0.9285714285714286,0.0035466493438435706
497,0.8284428715705872,1.2888069152832031,0.7307692307692307,0.9615384615384616,0.5714285714285714,0.9285714285714286,0.0035287858965127724
498,0.6266764402389526,0.8037171363830566,0.7884615384615384,1.0,0.7142857142857143,0.9285714285714286,0.0035108589888218624
499,0.8489727675914764,1.440295696258545,0.6730769230769231,0.9615384615384616,0.5714285714285714,0.8571428571428571,0.003492869726586951
500,0.891487330198288,1.4845552444458008,0.5961538461538461,0.9423076923076923,0.5,0.7857142857142857,0.003474819219470471
501,0.7761666774749756,1.4509979486465454,0.6923076923076923,0.9423076923076923,0.5714285714285714,0.8571428571428571,0.003456708580912725
502,0.8284500539302826,1.5580177307128906,0.6730769230769231,0.9230769230769231,0.5,0.7857142857142857,0.003438538928063208
503,0.7416830956935883,1.3713903427124023,0.75,0.9423076923076923,0.6428571428571429,0.9285714285714286,0.0034203113817116953
504,0.7299046218395233,1.382020115852356,0.7115384615384616,0.9615384615384616,0.5714285714285714,0.9285714285714286,0.0034020270662191046
505,0.9831886291503906,1.099500060081482,0.6538461538461539,0.9615384615384616,0.7142857142857143,0.8571428571428571,0.003383687109448143
506,0.7829098701477051,1.222089171409607,0.6346153846153846,0.9615384615384616,0.5714285714285714,0.8571428571428571,0.0033652926426937326
507,0.9032405912876129,1.3027129173278809,0.6923076923076923,0.9230769230769231,0.6428571428571429,0.9285714285714286,0.0033468448006132292
508,0.5279399901628494,1.2817071676254272,0.7692307692307693,1.0,0.6428571428571429,0.8571428571428571,0.0033283447211564276
509,0.9111632108688354,1.1962864398956299,0.6923076923076923,0.9615384615384616,0.6428571428571429,0.9285714285714286,0.003309793545495374
510,0.9366123080253601,1.382417917251587,0.6923076923076923,0.9230769230769231,0.5,0.9285714285714286,0.0032911924179539653
511,1.0710682272911072,1.566420555114746,0.6538461538461539,0.9038461538461539,0.5714285714285714,0.8571428571428571,0.0032725424859373687
512,0.8299617171287537,1.2106389999389648,0.75,0.9423076923076923,0.6428571428571429,0.8571428571428571,0.00325384489986124
513,0.5534782409667969,1.5372060537338257,0.7692307692307693,0.9807692307692307,0.6428571428571429,0.8571428571428571,0.00323510081308076
514,0.9183982610702515,1.4672319889068604,0.7115384615384616,0.9230769230769231,0.5714285714285714,0.7857142857142857,0.003216311381819496
515,0.8165617883205414,1.0553944110870361,0.6923076923076923,0.9423076923076923,0.6428571428571429,0.9285714285714286,0.0031974777650980737
516,0.7457204461097717,1.714385986328125,0.7307692307692307,0.9423076923076923,0.5714285714285714,0.7857142857142857,0.0031786011246626865
517,0.6509212255477905,1.221451759338379,0.75,0.9807692307692307,0.5714285714285714,0.8571428571428571,0.003159682624913432
518,0.7071227729320526,1.3602049350738525,0.75,0.9807692307692307,0.6428571428571429,0.8571428571428571,0.0031407234328324914
519,0.6159800440073013,1.4086298942565918,0.7884615384615384,0.9615384615384616,0.5,0.9285714285714286,0.0031217247179121366
520,0.8569200336933136,1.1575989723205566,0.7115384615384616,0.9615384615384616,0.6428571428571429,0.9285714285714286,0.003102687652082597
521,0.7638923823833466,2.0364632606506348,0.7692307692307693,0.9230769230769231,0.35714285714285715,0.7857142857142857,0.0030836134096397638
522,0.9029986262321472,1.3617300987243652,0.7307692307692307,0.9230769230769231,0.6428571428571429,0.8571428571428571,0.0030645031671727597
523,0.7597612142562866,1.3105093240737915,0.7692307692307693,0.9423076923076923,0.5,0.8571428571428571,0.0030453581034913567
524,0.6940625905990601,1.50826895236969,0.75,0.9615384615384616,0.5714285714285714,0.8571428571428571,0.003026179399553265
525,0.6235174536705017,1.3774456977844238,0.8461538461538461,0.9615384615384616,0.6428571428571429,0.8571428571428571,0.0030069682383912816
526,0.729861855506897,0.5969858765602112,0.75,0.9807692307692307,0.7857142857142857,1.0,0.002987725805040321
527,0.8660456538200378,1.1687579154968262,0.6923076923076923,0.9423076923076923,0.7142857142857143,0.8571428571428571,0.002968453286464312
528,0.7014870345592499,1.3321254253387451,0.7307692307692307,0.9807692307692307,0.6428571428571429,0.8571428571428571,0.0029491518714829814
529,0.6801107227802277,1.6879974603652954,0.7692307692307693,0.9615384615384616,0.5714285714285714,0.7857142857142857,0.0029298227506985236
530,0.7082927525043488,1.4200682640075684,0.6923076923076923,1.0,0.5714285714285714,0.7857142857142857,0.0029104671164221574
531,0.7091437578201294,1.0812991857528687,0.75,0.9615384615384616,0.6428571428571429,0.9285714285714286,0.0028910861626005773
532,0.5687527656555176,1.8293561935424805,0.7884615384615384,0.9807692307692307,0.5714285714285714,0.7857142857142857,0.002871681084742308
533,0.6483664512634277,0.9419800043106079,0.7307692307692307,1.0,0.7857142857142857,0.9285714285714286,0.0028522530798439573
534,0.8621938228607178,0.6727807521820068,0.6923076923076923,0.9423076923076923,0.7857142857142857,0.8571428571428571,0.0028328033463163814
535,0.7915583252906799,0.9803992509841919,0.75,0.9615384615384616,0.6428571428571429,0.9285714285714286,0.002813333083910761
536,0.9832545220851898,0.65108323097229,0.6923076923076923,0.9230769230769231,0.7857142857142857,1.0,0.0027938434936445942
537,0.8334919810295105,1.0433229207992554,0.75,0.9038461538461539,0.7142857142857143,0.9285714285714286,0.0027743357777276134
538,0.7984848916530609,1.0266190767288208,0.7115384615384616,0.9423076923076923,0.7142857142857143,0.9285714285714286,0.0027548111394876252
539,0.6773414611816406,1.403111457824707,0.7692307692307693,0.9615384615384616,0.6428571428571429,0.8571428571428571,0.002735270783296286
540,0.7407475113868713,1.190535545349121,0.7307692307692307,0.9423076923076923,0.6428571428571429,0.9285714285714286,0.0027157159144948085
541,0.9429421722888947,1.6198362112045288,0.6730769230769231,0.9423076923076923,0.5714285714285714,0.7857142857142857,0.0026961477393196128
542,1.0840411186218262,1.826986312866211,0.6538461538461539,0.9038461538461539,0.5,0.7857142857142857,0.002676567464827917
543,0.8135824501514435,1.5088979005813599,0.7307692307692307,0.9230769230769231,0.5,0.9285714285714286,0.0026569762988232835
544,0.8864613175392151,1.5767558813095093,0.7307692307692307,0.9423076923076923,0.5714285714285714,0.8571428571428571,0.0026373754497811147
545,0.6946499347686768,1.4705140590667725,0.7307692307692307,0.9423076923076923,0.5714285714285714,0.8571428571428571,0.0026177661267741065
546,0.8225203454494476,1.0484040975570679,0.7115384615384616,0.9615384615384616,0.6428571428571429,0.9285714285714286,0.0025981495393976716
547,0.7961637377738953,1.0517418384552002,0.75,0.9615384615384616,0.6428571428571429,0.9285714285714286,0.0025785268976953207
548,0.6344398558139801,1.0149645805358887,0.7884615384615384,0.9807692307692307,0.7142857142857143,0.9285714285714286,0.002558899412084026
549,0.8689860701560974,1.0590623617172241,0.7307692307692307,0.9423076923076923,0.7142857142857143,0.8571428571428571,0.002539268293279552
550,0.7003697752952576,1.871962070465088,0.7692307692307693,0.9423076923076923,0.5714285714285714,0.7857142857142857,0.002519634752221778
551,0.5907126367092133,1.8014181852340698,0.7307692307692307,1.0,0.5,0.7857142857142857,0.0025
552,0.8452937602996826,1.4285993576049805,0.6923076923076923,0.9038461538461539,0.6428571428571429,0.7857142857142857,0.002480365247778222
553,0.9150592684745789,1.4147545099258423,0.6923076923076923,0.9423076923076923,0.5714285714285714,0.8571428571428571,0.002460731706720449
554,0.7164098620414734,1.5410857200622559,0.6730769230769231,0.9615384615384616,0.6428571428571429,0.8571428571428571,0.0024411005879159745
555,0.9153640866279602,0.6810819506645203,0.6346153846153846,0.9423076923076923,0.7857142857142857,1.0,0.0024214731023046794
556,0.6197120845317841,1.6371662616729736,0.7884615384615384,0.9615384615384616,0.5,0.7857142857142857,0.0024018504606023285
557,0.694467306137085,1.5418716669082642,0.7115384615384616,0.9807692307692307,0.42857142857142855,0.9285714285714286,0.0023822338732258936
558,0.7262577414512634,1.3827009201049805,0.75,0.9615384615384616,0.6428571428571429,0.8571428571428571,0.0023626245502188863
559,0.7324232757091522,1.276342511177063,0.7307692307692307,0.9807692307692307,0.6428571428571429,0.9285714285714286,0.0023430237011767166
560,0.7692513465881348,1.4173839092254639,0.6730769230769231,0.9807692307692307,0.6428571428571429,0.8571428571428571,0.0023234325351720836
561,0.7180202603340149,1.8402676582336426,0.7692307692307693,0.9423076923076923,0.42857142857142855,0.8571428571428571,0.002303852260680388
562,0.8772520124912262,1.0536818504333496,0.7115384615384616,0.9615384615384616,0.6428571428571429,0.8571428571428571,0.002284284085505192
563,0.7231658101081848,0.9484057426452637,0.7692307692307693,0.9807692307692307,0.7142857142857143,0.8571428571428571,0.002264729216703714
564,0.8481712341308594,1.2426769733428955,0.6923076923076923,0.9615384615384616,0.5,0.8571428571428571,0.002245188860512375
565,0.7062239646911621,1.9932668209075928,0.75,0.9807692307692307,0.5,0.7857142857142857,0.0022256642222723867
566,0.6871494799852371,0.7850340604782104,0.75,0.9615384615384616,0.7142857142857143,0.9285714285714286,0.0022061565063554063
567,0.8013685643672943,1.4847075939178467,0.7307692307692307,0.9615384615384616,0.5714285714285714,0.7857142857142857,0.0021866669160892395
568,0.8273428082466125,1.300684928894043,0.75,0.9423076923076923,0.5714285714285714,0.9285714285714286,0.0021671966536836195
569,0.8772070705890656,1.0914841890335083,0.7307692307692307,0.9615384615384616,0.6428571428571429,0.9285714285714286,0.002147746920156044
570,0.7935162782669067,1.2225810289382935,0.7307692307692307,0.9615384615384616,0.5714285714285714,0.8571428571428571,0.0021283189152576927
571,0.6871839165687561,1.6056981086730957,0.7307692307692307,0.9615384615384616,0.5,0.8571428571428571,0.002108913837399423
572,0.7883547246456146,1.8726434707641602,0.75,0.9230769230769231,0.5714285714285714,0.7142857142857143,0.0020895328835778423
573,0.8428711593151093,1.2336922883987427,0.75,0.9423076923076923,0.6428571428571429,0.9285714285714286,0.002070177249301476
574,0.7730441689491272,1.6846309900283813,0.7115384615384616,0.9230769230769231,0.5714285714285714,0.8571428571428571,0.0020508481285170187
575,0.8529850542545319,1.3568317890167236,0.7115384615384616,0.9615384615384616,0.5714285714285714,0.9285714285714286,0.0020315467135356884
576,0.714252769947052,1.477097749710083,0.7884615384615384,0.9615384615384616,0.6428571428571429,0.8571428571428571,0.0020122741949596796
577,0.690619558095932,1.0095605850219727,0.7307692307692307,1.0,0.6428571428571429,0.8571428571428571,0.001993031761608719
578,0.5441578924655914,1.2411223649978638,0.7884615384615384,0.9615384615384616,0.7857142857142857,0.7857142857142857,0.0019738206004467364
579,0.7362574636936188,1.4731242656707764,0.75,0.9615384615384616,0.6428571428571429,0.8571428571428571,0.0019546418965086442
580,0.7320999503135681,1.4596309661865234,0.75,0.9615384615384616,0.7142857142857143,0.7857142857142857,0.0019354968328272415
581,0.740361362695694,1.2138235569000244,0.75,0.9423076923076923,0.6428571428571429,0.9285714285714286,0.0019163865903602361
582,0.7841079831123352,2.0291748046875,0.7115384615384616,0.9615384615384616,0.6428571428571429,0.7142857142857143,0.0018973123479174032
583,0.7208686769008636,1.2789102792739868,0.75,0.9615384615384616,0.6428571428571429,0.9285714285714286,0.0018782752820878628
584,0.5412648618221283,0.976076066493988,0.7884615384615384,1.0,0.7142857142857143,0.9285714285714286,0.0018592765671675083
585,0.598938912153244,0.6738823652267456,0.7884615384615384,0.9615384615384616,0.7142857142857143,1.0,0.0018403173750865679
586,0.7045849859714508,0.493945449590683,0.7115384615384616,0.9615384615384616,0.7857142857142857,1.0,0.0018213988753373145
587,0.6300970911979675,1.192401647567749,0.7692307692307693,0.9615384615384616,0.6428571428571429,0.9285714285714286,0.001802522234901927
588,0.5970464646816254,1.5993565320968628,0.75,1.0,0.5714285714285714,0.7857142857142857,0.0017836886181805045
589,0.9928507208824158,1.09425950050354,0.6538461538461539,0.8846153846153846,0.5714285714285714,0.9285714285714286,0.0017648991869192404
590,0.8992782235145569,1.3292808532714844,0.6346153846153846,0.9423076923076923,0.6428571428571429,0.9285714285714286,0.0017461551001387615
591,0.864369809627533,1.03952956199646,0.7115384615384616,0.9423076923076923,0.7142857142857143,0.9285714285714286,0.0017274575140626323
592,0.7050068080425262,1.6628154516220093,0.6923076923076923,0.9615384615384616,0.5,0.8571428571428571,0.0017088075820460348
593,0.615103006362915,1.731656789779663,0.7692307692307693,0.9807692307692307,0.5714285714285714,0.7857142857142857,0.0016902064545046263
594,0.6609345078468323,1.007361650466919,0.7884615384615384,0.9807692307692307,0.7142857142857143,0.9285714285714286,0.0016716552788435723
595,0.7846005856990814,1.7443914413452148,0.75,0.9230769230769231,0.42857142857142855,0.8571428571428571,0.0016531551993867715
596,0.9281955659389496,1.4575254917144775,0.7692307692307693,0.9230769230769231,0.5,0.8571428571428571,0.0016347073573062677
597,0.7387480139732361,0.857644259929657,0.7115384615384616,0.9615384615384616,0.6428571428571429,1.0,0.0016163128905518577
598,0.6762458384037018,1.1550016403198242,0.7692307692307693,0.9615384615384616,0.6428571428571429,0.9285714285714286,0.001597972933780896
599,1.013322800397873,1.2780680656433105,0.7115384615384616,0.9230769230769231,0.6428571428571429,0.9285714285714286,0.0015796886182883059
600,0.5880922377109528,1.0764129161834717,0.7884615384615384,0.9807692307692307,0.7142857142857143,0.9285714285714286,0.0015614610719367928
601,0.6192337870597839,1.4839558601379395,0.7307692307692307,1.0,0.5,0.8571428571428571,0.0015432914190872762
602,0.6448792517185211,1.4104958772659302,0.7884615384615384,0.9807692307692307,0.5714285714285714,0.8571428571428571,0.0015251807805295291
603,0.5121907740831375,1.793109655380249,0.8461538461538461,0.9807692307692307,0.6428571428571429,0.7857142857142857,0.0015071302734130482
604,0.5844366550445557,2.0559210777282715,0.7884615384615384,0.9615384615384616,0.42857142857142855,0.7857142857142857,0.0014891410111781377
605,0.6239126324653625,1.106992244720459,0.75,1.0,0.7142857142857143,0.9285714285714286,0.001471214103487228
606,0.5985033512115479,1.3597768545150757,0.7692307692307693,1.0,0.5714285714285714,0.8571428571428571,0.0014533506561564295
607,0.8536007702350616,0.5113999247550964,0.75,0.9230769230769231,0.7857142857142857,1.0,0.0014355517710873183
608,0.638996347784996,1.5009856224060059,0.75,0.9807692307692307,0.6428571428571429,0.8571428571428571,0.0014178185461989651
609,0.6841102242469788,1.1013013124465942,0.7692307692307693,1.0,0.6428571428571429,0.8571428571428571,0.001400152075360212
610,0.514767974615097,1.47862708568573,0.8076923076923077,1.0,0.6428571428571429,0.8571428571428571,0.0013825534483221974
611,0.8473841547966003,1.3198280334472656,0.7115384615384616,0.9615384615384616,0.6428571428571429,0.8571428571428571,0.0013650237506511332
612,0.8260006010532379,1.3352797031402588,0.6730769230769231,0.9423076923076923,0.6428571428571429,0.8571428571428571,0.0013475640636613445
613,0.7067387998104095,1.1355876922607422,0.6923076923076923,0.9807692307692307,0.6428571428571429,0.8571428571428571,0.001330175464348567
614,0.7136123180389404,1.2948851585388184,0.7115384615384616,0.9615384615384616,0.6428571428571429,0.9285714285714286,0.0013128590253235128
615,0.6789309084415436,1.054128885269165,0.75,0.9423076923076923,0.7857142857142857,0.8571428571428571,0.0012956158147457114
616,0.538417398929596,1.0575309991836548,0.8076923076923077,1.0,0.7142857142857143,0.9285714285714286,0.0012784468962576123
617,0.5967439711093903,1.0729597806930542,0.75,0.9807692307692307,0.6428571428571429,0.8571428571428571,0.001261353328918981
618,0.48368801176548004,1.4219682216644287,0.8076923076923077,1.0,0.6428571428571429,0.7857142857142857,0.0012443361671415688
619,0.6466034203767776,1.044061541557312,0.7692307692307693,0.9807692307692307,0.6428571428571429,0.8571428571428571,0.0012273964606240718
620,0.759655773639679,1.0830990076065063,0.6923076923076923,0.9423076923076923,0.7142857142857143,0.9285714285714286,0.0012105352542873815
621,0.6114789694547653,1.3913819789886475,0.7307692307692307,0.9807692307692307,0.5714285714285714,0.8571428571428571,0.001193753588210128
622,0.6709357798099518,1.0863468647003174,0.7115384615384616,0.9615384615384616,0.6428571428571429,0.9285714285714286,0.001177052497564524
623,0.661741316318512,1.30239737033844,0.6923076923076923,0.9807692307692307,0.5714285714285714,0.9285714285714286,0.0011604330125525079
624,0.6242250800132751,0.5395001769065857,0.7307692307692307,0.9615384615384616,0.7857142857142857,1.0,0.0011438961583422028
625,0.6336924880743027,1.2997291088104248,0.6923076923076923,0.9807692307692307,0.5714285714285714,0.8571428571428571,0.0011274429550046702
626,0.6607906222343445,1.0128295421600342,0.7115384615384616,0.9615384615384616,0.7142857142857143,0.9285714285714286,0.0011110744174509942
627,0.7274176776409149,0.8795639872550964,0.7307692307692307,0.9615384615384616,0.6428571428571429,1.0,0.0010947915553696733
628,0.6962211728096008,1.0795764923095703,0.75,0.9423076923076923,0.6428571428571429,0.9285714285714286,0.00107859537316434
629,0.5321738123893738,1.3671566247940063,0.8076923076923077,0.9615384615384616,0.6428571428571429,0.7857142857142857,0.0010624868698918036
630,0.6012586951255798,1.1501109600067139,0.7692307692307693,1.0,0.6428571428571429,0.9285714285714286,0.0010464670392004236
631,0.515358030796051,1.1371815204620361,0.7692307692307693,1.0,0.7142857142857143,0.9285714285714286,0.0010305368692688174
632,0.6946702003479004,0.9949405193328857,0.75,0.9615384615384616,0.5,0.8571428571428571,0.001014697342744904
633,0.5606102496385574,1.0182275772094727,0.7884615384615384,1.0,0.7142857142857143,0.9285714285714286,0.0009989494366852902
634,0.7254325449466705,1.9157832860946655,0.75,0.9423076923076923,0.5,0.8571428571428571,0.0009832941224950005
635,0.5826279520988464,1.7573682069778442,0.7692307692307693,0.9807692307692307,0.5714285714285714,0.8571428571428571,0.0009677323658675585
636,0.9211152791976929,1.3050367832183838,0.7115384615384616,0.9230769230769231,0.6428571428571429,0.8571428571428571,0.0009522651267254149
637,0.6883412301540375,0.6246426105499268,0.7307692307692307,0.9807692307692307,0.7142857142857143,0.9285714285714286,0.000936893359160737
638,0.5596882700920105,1.6842254400253296,0.75,0.9807692307692307,0.5,0.8571428571428571,0.0009216180113765558
639,0.7367803454399109,2.115121603012085,0.75,0.9615384615384616,0.5,0.7857142857142857,0.0009064400256282757
640,0.4789202958345413,1.0055649280548096,0.8269230769230769,0.9807692307692307,0.6428571428571429,0.8571428571428571,0.0008913603381655527
641,0.506491020321846,1.471298098564148,0.8076923076923077,0.9807692307692307,0.6428571428571429,0.8571428571428571,0.0008763798791745412
642,0.6495351791381836,0.7708986401557922,0.75,0.9230769230769231,0.5714285714285714,0.9285714285714286,0.0008614995727205155
643,0.4892858564853668,0.7988131642341614,0.8269230769230769,0.9807692307692307,0.6428571428571429,0.9285714285714286,0.0008467203366908707
644,0.5265327394008636,0.9654940366744995,0.8461538461538461,1.0,0.7142857142857143,0.9285714285714286,0.0008320430827385011
645,0.46196921169757843,0.9935663938522339,0.8076923076923077,1.0,0.5714285714285714,1.0,0.0008174687162255665
646,0.643397256731987,1.8205831050872803,0.75,0.9807692307692307,0.5,0.7142857142857143,0.0008029981361676453
647,0.946327418088913,1.4796335697174072,0.6730769230769231,0.9615384615384616,0.6428571428571429,0.8571428571428571,0.0007886322351782782
648,0.6095474064350128,0.6272296905517578,0.8269230769230769,0.9807692307692307,0.7142857142857143,0.9285714285714286,0.0007743718994139071
649,0.6755357086658478,0.656567394733429,0.7307692307692307,0.9807692307692307,0.7142857142857143,0.9285714285714286,0.0007602180085192142
650,0.9645408689975739,1.021627426147461,0.7115384615384616,0.9423076923076923,0.7142857142857143,0.8571428571428571,0.0007461714355728608
651,0.5572829693555832,1.2187950611114502,0.7307692307692307,1.0,0.6428571428571429,0.9285714285714286,0.0007322330470336313
652,0.7441911697387695,1.0669255256652832,0.75,0.9807692307692307,0.7142857142857143,0.9285714285714286,0.0007184037026869869
653,0.7262641191482544,0.9788703322410583,0.7307692307692307,0.9615384615384616,0.7142857142857143,0.9285714285714286,0.0007046842555920282
654,0.7428759038448334,1.4044134616851807,0.7115384615384616,0.9615384615384616,0.5714285714285714,0.9285714285714286,0.0006910755520288772
655,0.49259620904922485,1.6122127771377563,0.75,1.0,0.7142857142857143,0.7857142857142857,0.0006775784314464717
656,0.5980169773101807,1.1953697204589844,0.75,0.9807692307692307,0.7142857142857143,0.9285714285714286,0.0006641937264107861
657,0.7002174258232117,0.5597476959228516,0.75,0.9615384615384616,0.7857142857142857,0.9285714285714286,0.0006509222625534758
658,0.8720010817050934,1.8707642555236816,0.6923076923076923,0.9230769230769231,0.5714285714285714,0.7857142857142857,0.0006377648585209451
659,0.5746836960315704,1.4986786842346191,0.7692307692307693,1.0,0.7142857142857143,0.8571428571428571,0.0006247223259238514
660,0.802615761756897,1.380821943283081,0.7307692307692307,0.9615384615384616,0.6428571428571429,0.9285714285714286,0.0006117954692870411
661,0.5937188863754272,1.071473479270935,0.7692307692307693,0.9807692307692307,0.7142857142857143,0.8571428571428571,0.0005989850859999227
662,0.6525184512138367,1.4006787538528442,0.75,0.9615384615384616,0.6428571428571429,0.8571428571428571,0.0005862919662672797
663,0.7489911615848541,0.7704158425331116,0.75,0.9615384615384616,0.7142857142857143,1.0,0.0005737168930605272
664,0.7237986922264099,1.420102596282959,0.7692307692307693,0.9615384615384616,0.5714285714285714,0.8571428571428571,0.0005612606420694141
665,0.6888837516307831,1.7353394031524658,0.7884615384615384,0.9807692307692307,0.5,0.8571428571428571,0.000548923981654176
666,0.6381767094135284,1.3242446184158325,0.7307692307692307,0.9807692307692307,0.6428571428571429,0.7857142857142857,0.0005367076727981376
667,0.5588795691728592,1.5414962768554688,0.7884615384615384,0.9615384615384616,0.5714285714285714,0.8571428571428571,0.000524612469060774
668,0.5856479108333588,1.6230742931365967,0.8076923076923077,0.9807692307692307,0.6428571428571429,0.8571428571428571,0.0005126391165312249
669,0.6501195728778839,1.6849570274353027,0.7307692307692307,0.9615384615384616,0.5714285714285714,0.7857142857142857,0.0005007883537822738
670,0.935897558927536,1.1870436668395996,0.6538461538461539,0.9230769230769231,0.7142857142857143,0.8571428571428571,0.0004890609118247888
671,0.7206816673278809,1.0935046672821045,0.7307692307692307,0.9807692307692307,0.7142857142857143,0.9285714285714286,0.00047745751406263163
672,0.6668379902839661,0.9557565450668335,0.7692307692307693,0.9807692307692307,0.5714285714285714,0.9285714285714286,0.0004659788762480327
673,0.7312165200710297,1.1725435256958008,0.7115384615384616,0.9615384615384616,0.7142857142857143,0.9285714285714286,0.00045462570643744175
674,0.660602331161499,1.3315808773040771,0.7307692307692307,0.9807692307692307,0.6428571428571429,0.8571428571428571,0.00044339870494785076
675,0.6903968155384064,1.6186165809631348,0.6923076923076923,0.9807692307692307,0.6428571428571429,0.8571428571428571,0.000432298564313596
676,0.7914560735225677,0.8706298470497131,0.7307692307692307,0.9423076923076923,0.6428571428571429,0.9285714285714286,0.00042132596924363745
677,0.7569981813430786,0.657385528087616,0.6923076923076923,0.9615384615384616,0.7142857142857143,1.0,0.00041048159657932487
678,0.5318957716226578,1.1647589206695557,0.7884615384615384,0.9807692307692307,0.6428571428571429,0.9285714285714286,0.00039976611525264523
679,1.0785622298717499,1.400742530822754,0.7115384615384616,0.8846153846153846,0.6428571428571429,0.8571428571428571,0.00038918018624496285
680,0.5843423455953598,1.3165903091430664,0.7307692307692307,0.9615384615384616,0.5714285714285714,0.9285714285714286,0.00037872446254624104
681,0.5455706715583801,1.1004183292388916,0.8076923076923077,0.9807692307692307,0.6428571428571429,0.9285714285714286,0.00036839958911477014
682,0.7466194331645966,1.4159204959869385,0.7692307692307693,0.9230769230769231,0.6428571428571429,0.8571428571428571,0.00035820620283737615
683,0.6497174948453903,0.6757978200912476,0.75,1.0,0.7142857142857143,0.9285714285714286,0.0003481449324901406
684,0.7350571155548096,0.7508023381233215,0.8269230769230769,0.9230769230769231,0.7142857142857143,1.0,0.00033821639869961257
685,0.6895051002502441,1.7440277338027954,0.75,0.9423076923076923,0.5714285714285714,0.8571428571428571,0.0003284212139045217
686,0.730667382478714,1.0556656122207642,0.75,0.9615384615384616,0.6428571428571429,0.9285714285714286,0.00031875998231800765
687,0.9319866597652435,1.2974697351455688,0.6730769230769231,0.9807692307692307,0.5714285714285714,0.9285714285714286,0.00030923329989034103
688,0.5525299906730652,0.9419664144515991,0.7884615384615384,1.0,0.7142857142857143,0.9285714285714286,0.0002998417542721707
689,0.829526424407959,1.251517653465271,0.6923076923076923,0.9423076923076923,0.6428571428571429,0.9285714285714286,0.00029058592477826633
690,0.8908248841762543,1.0267207622528076,0.6538461538461539,0.9423076923076923,0.7142857142857143,0.9285714285714286,0.0002814663823517924
691,0.572777509689331,1.4119582176208496,0.8076923076923077,0.9807692307692307,0.5714285714285714,0.8571428571428571,0.00027248368952908055
692,0.593317061662674,1.7605016231536865,0.7692307692307693,0.9807692307692307,0.5714285714285714,0.7857142857142857,0.000263638400404938
693,0.5808369219303131,1.0514156818389893,0.7884615384615384,0.9807692307692307,0.7142857142857143,0.9285714285714286,0.00025493106059846116
694,0.7218881249427795,0.9611430168151855,0.6923076923076923,0.9807692307692307,0.7857142857142857,0.9285714285714286,0.0002463622072193855
695,0.721308022737503,1.5038448572158813,0.7692307692307693,0.9615384615384616,0.6428571428571429,0.8571428571428571,0.00023793236883495162
696,0.7394371926784515,0.9600210189819336,0.75,0.9615384615384616,0.6428571428571429,0.9285714285714286,0.0002296420654372966
697,0.7893631756305695,1.1440560817718506,0.7115384615384616,0.9807692307692307,0.6428571428571429,0.9285714285714286,0.00022149180841138732
698,0.5751218795776367,1.1014611721038818,0.8269230769230769,0.9423076923076923,0.7142857142857143,0.9285714285714286,0.00021348210050346596
699,0.6008583605289459,1.336599588394165,0.7307692307692307,1.0,0.6428571428571429,0.9285714285714286,0.0002056134357900477
700,0.8620235919952393,1.1535248756408691,0.7115384615384616,0.9423076923076923,0.5714285714285714,0.9285714285714286,0.00019788629964743453
701,0.5603142082691193,0.9636980295181274,0.7884615384615384,0.9807692307692307,0.7142857142857143,0.9285714285714286,0.0001903011687217837
702,0.5303911864757538,1.0017112493515015,0.7692307692307693,1.0,0.7142857142857143,0.7857142857142857,0.00018285851089969803
703,0.6548389196395874,1.5836725234985352,0.7115384615384616,0.9807692307692307,0.6428571428571429,0.8571428571428571,0.00017555878527937164
704,0.7331154346466064,1.147385597229004,0.7884615384615384,0.9807692307692307,0.6428571428571429,0.9285714285714286,0.00016840244214226503
705,0.555406779050827,1.3473074436187744,0.7307692307692307,1.0,0.7142857142857143,0.7857142857142857,0.00016138992292533155
706,0.6314012110233307,1.0633803606033325,0.7884615384615384,0.9807692307692307,0.5714285714285714,0.9285714285714286,0.00015452166019378987
707,0.634733647108078,1.3258945941925049,0.7692307692307693,0.9807692307692307,0.7857142857142857,0.8571428571428571,0.00014779807761443637
708,0.6084815561771393,1.533011555671692,0.7692307692307693,0.9807692307692307,0.5714285714285714,0.8571428571428571,0.00014121958992951628
709,0.5423011183738708,1.0364441871643066,0.7884615384615384,0.9807692307692307,0.6428571428571429,0.8571428571428571,0.00013478660293113676
710,0.7763229608535767,1.023330807685852,0.7115384615384616,0.9423076923076923,0.7142857142857143,0.9285714285714286,0.00012849951343623877
711,0.6549702286720276,2.5442638397216797,0.7307692307692307,0.9615384615384616,0.42857142857142855,0.7142857142857143,0.00012235870926211617
712,0.7948935329914093,1.6030986309051514,0.75,0.9038461538461539,0.7142857142857143,0.7857142857142857,0.000116364569202497
713,0.7093085646629333,1.180344581604004,0.7884615384615384,0.9807692307692307,0.7857142857142857,0.8571428571428571,0.0001105174630041747
714,0.6605721712112427,1.051220417022705,0.8076923076923077,0.9038461538461539,0.7142857142857143,0.9285714285714286,0.00010481775134420197
715,0.5944470763206482,1.4637932777404785,0.7307692307692307,0.9615384615384616,0.42857142857142855,0.9285714285714286,9.926578580764262e-05
716,0.6494310200214386,1.3351702690124512,0.7307692307692307,0.9615384615384616,0.5714285714285714,0.8571428571428571,9.386190886588181e-05
717,0.7620912194252014,1.174208641052246,0.75,0.9230769230769231,0.5714285714285714,0.9285714285714286,8.860645385550508e-05
718,0.7306088507175446,1.3974895477294922,0.7115384615384616,1.0,0.6428571428571429,0.8571428571428571,8.349974495773182e-05
719,0.46950580179691315,1.7358603477478027,0.8076923076923077,1.0,0.5714285714285714,0.8571428571428571,7.854209717842258e-05
720,0.5909127444028854,1.1727979183197021,0.75,0.9423076923076923,0.6428571428571429,0.8571428571428571,7.373381632864385e-05
721,0.6494378745555878,2.0852162837982178,0.7692307692307693,0.9423076923076923,0.42857142857142855,0.7857142857142857,6.90751990058086e-05
722,0.6683714091777802,0.5423802733421326,0.7884615384615384,0.9423076923076923,0.7857142857142857,0.9285714285714286,6.456653257537664e-05
723,0.8532470166683197,1.373666763305664,0.6923076923076923,0.9230769230769231,0.5,0.9285714285714286,6.0208095153131695e-05
724,0.5594143271446228,1.1714894771575928,0.7884615384615384,0.9807692307692307,0.5714285714285714,0.9285714285714286,5.6000155588023516e-05
725,0.8261434137821198,1.8943560123443604,0.7115384615384616,0.9230769230769231,0.5714285714285714,0.7857142857142857,5.194297344558535e-05
726,0.7378515005111694,1.6185829639434814,0.7115384615384616,0.9615384615384616,0.6428571428571429,0.7857142857142857,4.8036798991923925e-05
727,0.6161211431026459,1.6753425598144531,0.7692307692307693,0.9615384615384616,0.5714285714285714,0.8571428571428571,4.4281873178278196e-05
728,0.7993188798427582,1.2289189100265503,0.6346153846153846,0.9423076923076923,0.6428571428571429,0.9285714285714286,4.067842762616042e-05
729,0.38409341871738434,1.1359201669692993,0.8461538461538461,0.9807692307692307,0.6428571428571429,0.9285714285714286,3.7226684613065334e-05
730,0.6019465327262878,0.8790013194084167,0.7884615384615384,0.9807692307692307,0.7142857142857143,0.9285714285714286,3.392685705876142e-05
731,0.45799534022808075,1.4623732566833496,0.8076923076923077,0.9807692307692307,0.5,0.8571428571428571,3.077914851215585e-05
732,0.6925607323646545,0.9312576651573181,0.7115384615384616,0.9230769230769231,0.6428571428571429,0.9285714285714286,2.778375313873871e-05
733,0.5273907780647278,2.094193458557129,0.8076923076923077,1.0,0.5714285714285714,0.7857142857142857,2.4940855708606158e-05
734,0.6453573703765869,1.2252728939056396,0.75,1.0,0.6428571428571429,0.8571428571428571,2.2250631585063185e-05
735,0.5874013006687164,0.9845167994499207,0.75,0.9807692307692307,0.5714285714285714,0.9285714285714286,1.9713246713805587e-05
736,0.4937497675418854,1.1128169298171997,0.7884615384615384,1.0,0.6428571428571429,0.9285714285714286,1.732885761268427e-05
737,0.5599534958600998,1.4857501983642578,0.7692307692307693,1.0,0.5714285714285714,0.8571428571428571,1.5097611362051012e-05
738,0.7918683588504791,1.4531714916229248,0.7115384615384616,0.9230769230769231,0.5714285714285714,0.8571428571428571,1.3019645595683804e-05
739,0.48021551966667175,0.6007992029190063,0.7307692307692307,1.0,0.7857142857142857,0.9285714285714286,1.109508849230001e-05
740,0.5201570242643356,1.11006760597229,0.8461538461538461,0.9615384615384616,0.7857142857142857,0.8571428571428571,9.324058767646859e-06
741,0.58454729616642,1.1446518898010254,0.8076923076923077,0.9807692307692307,0.7142857142857143,0.9285714285714286,7.70666566718009e-06
742,0.4701313227415085,2.533626079559326,0.8269230769230769,0.9807692307692307,0.5,0.7142857142857143,6.2430089593248915e-06
743,0.7101164162158966,1.3530843257904053,0.7692307692307693,0.9615384615384616,0.7142857142857143,0.8571428571428571,4.933178929321102e-06
744,0.6824258863925934,1.6442725658416748,0.7307692307692307,0.9807692307692307,0.6428571428571429,0.8571428571428571,3.7772563736551692e-06
745,0.7228181660175323,1.1190974712371826,0.7307692307692307,0.9423076923076923,0.6428571428571429,0.9285714285714286,2.775312595075241e-06
746,0.6461783945560455,1.6643626689910889,0.7884615384615384,0.9615384615384616,0.6428571428571429,0.7857142857142857,1.927409398192748e-06
747,0.5174022614955902,1.3879423141479492,0.7884615384615384,1.0,0.5,0.9285714285714286,1.233599085671e-06
748,0.5167624056339264,1.446191430091858,0.7884615384615384,0.9807692307692307,0.6428571428571429,0.8571428571428571,6.939244549986068e-07
