epoch,train_loss,val_loss,train_acc_action,train_acc_status,val_acc_action,val_acc_status,learning_rate
1,1.8256776332855225,1.8360466957092285,0.36538461538461536,0.17307692307692307,0.21428571428571427,0.14285714285714285,0.0004
2,1.8185302019119263,1.8282417058944702,0.38461538461538464,0.19230769230769232,0.21428571428571427,0.14285714285714285,0.0004
3,1.8140767812728882,1.821234941482544,0.38461538461538464,0.17307692307692307,0.21428571428571427,0.14285714285714285,0.0004
4,1.8050847053527832,1.81367826461792,0.36538461538461536,0.2692307692307692,0.21428571428571427,0.14285714285714285,0.0004
5,1.7901857495307922,1.8057925701141357,0.36538461538461536,0.38461538461538464,0.21428571428571427,0.8571428571428571,0.0004
6,1.7890142798423767,1.797199010848999,0.36538461538461536,0.5384615384615384,0.21428571428571427,0.8571428571428571,0.0004
7,1.7728379964828491,1.7871793508529663,0.38461538461538464,0.6730769230769231,0.21428571428571427,0.8571428571428571,0.0004
8,1.757226049900055,1.7752529382705688,0.36538461538461536,0.75,0.21428571428571427,0.8571428571428571,0.0004
9,1.737878441810608,1.760187029838562,0.40384615384615385,0.7884615384615384,0.21428571428571427,0.8571428571428571,0.0004
10,1.7228338122367859,1.7401015758514404,0.34615384615384615,0.8076923076923077,0.21428571428571427,0.8571428571428571,0.0004
11,1.7128463387489319,1.711626410484314,0.36538461538461536,0.8269230769230769,0.21428571428571427,0.8571428571428571,0.0004
12,1.6621955037117004,1.67020845413208,0.40384615384615385,0.8269230769230769,0.21428571428571427,0.8571428571428571,0.0004
13,1.6408218741416931,1.626936912536621,0.38461538461538464,0.8269230769230769,0.35714285714285715,0.8571428571428571,0.0004
14,1.6720182299613953,1.6273910999298096,0.21153846153846154,0.8269230769230769,0.35714285714285715,0.8571428571428571,0.0004
15,1.6893876791000366,1.6286059617996216,0.28846153846153844,0.8269230769230769,0.35714285714285715,0.8571428571428571,0.0004
16,1.6897292137145996,1.6194937229156494,0.2692307692307692,0.8269230769230769,0.35714285714285715,0.8571428571428571,0.0004
17,1.5819592475891113,1.6079740524291992,0.36538461538461536,0.8269230769230769,0.21428571428571427,0.8571428571428571,0.0004
18,1.6180168390274048,1.6003119945526123,0.28846153846153844,0.8269230769230769,0.21428571428571427,0.8571428571428571,0.0004
19,1.6380255222320557,1.595792293548584,0.4230769230769231,0.8269230769230769,0.21428571428571427,0.8571428571428571,0.0004
20,1.5863754749298096,1.5927963256835938,0.34615384615384615,0.8269230769230769,0.21428571428571427,0.8571428571428571,0.0004
21,1.6003597974777222,1.5891668796539307,0.2692307692307692,0.8269230769230769,0.21428571428571427,0.8571428571428571,0.0004
22,1.5839980244636536,1.5850019454956055,0.3076923076923077,0.8269230769230769,0.21428571428571427,0.8571428571428571,0.0004
23,1.6458817720413208,1.5806905031204224,0.4230769230769231,0.8269230769230769,0.21428571428571427,0.8571428571428571,0.0004
24,1.5913106203079224,1.5762407779693604,0.38461538461538464,0.8269230769230769,0.21428571428571427,0.8571428571428571,0.0004
25,1.6417242884635925,1.5716381072998047,0.3269230769230769,0.8269230769230769,0.21428571428571427,0.8571428571428571,0.0004
26,1.6198161840438843,1.566036581993103,0.3076923076923077,0.8269230769230769,0.21428571428571427,0.8571428571428571,0.0004
27,1.577217936515808,1.5606803894042969,0.3076923076923077,0.8269230769230769,0.21428571428571427,0.8571428571428571,0.0004
28,1.5742619633674622,1.5555459260940552,0.34615384615384615,0.8269230769230769,0.21428571428571427,0.8571428571428571,0.0004
29,1.6307622194290161,1.5502374172210693,0.3269230769230769,0.8269230769230769,0.21428571428571427,0.8571428571428571,0.0004
30,1.6389800310134888,1.5470359325408936,0.2692307692307692,0.8269230769230769,0.21428571428571427,0.8571428571428571,0.0004
31,1.650756061077118,1.544830083847046,0.25,0.8269230769230769,0.21428571428571427,0.8571428571428571,0.0004
32,1.5472263097763062,1.5421206951141357,0.34615384615384615,0.8269230769230769,0.21428571428571427,0.8571428571428571,0.0004
33,1.5200368165969849,1.5392495393753052,0.34615384615384615,0.8269230769230769,0.21428571428571427,0.8571428571428571,0.0004
34,1.658416986465454,1.5376770496368408,0.28846153846153844,0.8269230769230769,0.21428571428571427,0.8571428571428571,0.0004
35,1.6134949922561646,1.5370231866836548,0.4423076923076923,0.8269230769230769,0.21428571428571427,0.8571428571428571,0.0004
36,1.6009395718574524,1.5372822284698486,0.3269230769230769,0.8269230769230769,0.21428571428571427,0.8571428571428571,0.0004
37,1.6410133242607117,1.5379958152770996,0.25,0.8269230769230769,0.21428571428571427,0.8571428571428571,0.0004
38,1.5642900466918945,1.539127230644226,0.3269230769230769,0.8269230769230769,0.21428571428571427,0.8571428571428571,0.0004
39,1.59819096326828,1.5399543046951294,0.36538461538461536,0.8269230769230769,0.21428571428571427,0.8571428571428571,0.0004
40,1.6229718923568726,1.5413386821746826,0.28846153846153844,0.8269230769230769,0.21428571428571427,0.8571428571428571,0.0004
41,1.5783559679985046,1.5431172847747803,0.3076923076923077,0.8269230769230769,0.21428571428571427,0.8571428571428571,0.0004
42,1.6013927459716797,1.5434187650680542,0.3269230769230769,0.8269230769230769,0.21428571428571427,0.8571428571428571,0.0004
43,1.615364909172058,1.5439430475234985,0.25,0.8269230769230769,0.21428571428571427,0.8571428571428571,0.0004
44,1.6228690147399902,1.544201135635376,0.23076923076923078,0.8269230769230769,0.21428571428571427,0.8571428571428571,0.0004
45,1.5853509902954102,1.545032262802124,0.3269230769230769,0.8269230769230769,0.21428571428571427,0.8571428571428571,0.0004
46,1.6308863162994385,1.545058012008667,0.2692307692307692,0.8269230769230769,0.21428571428571427,0.8571428571428571,0.0004
47,1.5615863800048828,1.5448479652404785,0.36538461538461536,0.8269230769230769,0.21428571428571427,0.8571428571428571,0.0004
48,1.576347529888153,1.5440337657928467,0.46153846153846156,0.8269230769230769,0.21428571428571427,0.8571428571428571,0.0004
49,1.6379808187484741,1.544617772102356,0.3076923076923077,0.8269230769230769,0.21428571428571427,0.8571428571428571,0.0004
50,1.6151016354560852,1.5451010465621948,0.3269230769230769,0.8269230769230769,0.21428571428571427,0.8571428571428571,0.0004
51,1.5827595591545105,1.545151948928833,0.40384615384615385,0.8269230769230769,0.21428571428571427,0.8571428571428571,0.0004
52,1.5633867383003235,1.5451807975769043,0.4423076923076923,0.8269230769230769,0.21428571428571427,0.8571428571428571,0.0004
53,1.5729835033416748,1.5451141595840454,0.36538461538461536,0.8269230769230769,0.21428571428571427,0.8571428571428571,0.0004
54,1.6293944716453552,1.545111894607544,0.40384615384615385,0.8269230769230769,0.21428571428571427,0.8571428571428571,0.0004
55,1.67519873380661,1.5455453395843506,0.34615384615384615,0.8269230769230769,0.21428571428571427,0.8571428571428571,0.0004
56,1.5980984568595886,1.5466705560684204,0.36538461538461536,0.8269230769230769,0.21428571428571427,0.8571428571428571,0.0004
57,1.5971022248268127,1.5488152503967285,0.3076923076923077,0.8269230769230769,0.21428571428571427,0.8571428571428571,0.0004
58,1.5827060341835022,1.5497448444366455,0.3269230769230769,0.8269230769230769,0.21428571428571427,0.8571428571428571,0.0004
59,1.607948660850525,1.5504734516143799,0.34615384615384615,0.8269230769230769,0.21428571428571427,0.8571428571428571,0.0004
60,1.622031331062317,1.5519903898239136,0.23076923076923078,0.8269230769230769,0.21428571428571427,0.8571428571428571,0.0004
61,1.551201581954956,1.5518200397491455,0.4423076923076923,0.8269230769230769,0.21428571428571427,0.8571428571428571,0.0004
62,1.5409342050552368,1.55051589012146,0.34615384615384615,0.8269230769230769,0.21428571428571427,0.8571428571428571,0.0004
63,1.625485599040985,1.5482443571090698,0.36538461538461536,0.8269230769230769,0.21428571428571427,0.8571428571428571,0.0004
64,1.634828507900238,1.5467567443847656,0.28846153846153844,0.8269230769230769,0.21428571428571427,0.8571428571428571,0.0004
65,1.6145814657211304,1.545138955116272,0.36538461538461536,0.8269230769230769,0.21428571428571427,0.8571428571428571,0.0004
66,1.5610714554786682,1.5433440208435059,0.36538461538461536,0.8269230769230769,0.21428571428571427,0.8571428571428571,0.0004
67,1.6465951204299927,1.5427011251449585,0.3076923076923077,0.8269230769230769,0.21428571428571427,0.8571428571428571,0.0004
68,1.569910705089569,1.5419714450836182,0.3076923076923077,0.8269230769230769,0.21428571428571427,0.8571428571428571,0.0004
69,1.5976016521453857,1.5411347150802612,0.3269230769230769,0.8269230769230769,0.21428571428571427,0.8571428571428571,0.0004
70,1.5865138173103333,1.5395886898040771,0.38461538461538464,0.8269230769230769,0.21428571428571427,0.8571428571428571,0.0004
71,1.543847918510437,1.5394232273101807,0.36538461538461536,0.8269230769230769,0.21428571428571427,0.8571428571428571,0.0004
72,1.6092641949653625,1.5382925271987915,0.38461538461538464,0.8269230769230769,0.21428571428571427,0.8571428571428571,0.0004
73,1.6338623762130737,1.538262963294983,0.3269230769230769,0.8269230769230769,0.21428571428571427,0.8571428571428571,0.0004
74,1.5854249596595764,1.5394293069839478,0.3269230769230769,0.8269230769230769,0.21428571428571427,0.8571428571428571,0.0004
75,1.5546478033065796,1.5402518510818481,0.4807692307692308,0.8269230769230769,0.21428571428571427,0.8571428571428571,0.0004
76,1.6287610530853271,1.5416450500488281,0.28846153846153844,0.8269230769230769,0.21428571428571427,0.8571428571428571,0.0004
77,1.5773602724075317,1.5431175231933594,0.40384615384615385,0.8269230769230769,0.21428571428571427,0.8571428571428571,0.0004
78,1.6303836703300476,1.5450403690338135,0.34615384615384615,0.8269230769230769,0.21428571428571427,0.8571428571428571,0.0004
79,1.5440472960472107,1.5466513633728027,0.40384615384615385,0.8269230769230769,0.21428571428571427,0.8571428571428571,0.0004
80,1.6313172578811646,1.5488572120666504,0.2692307692307692,0.8269230769230769,0.21428571428571427,0.8571428571428571,0.0004
81,1.5912175178527832,1.5509488582611084,0.36538461538461536,0.8269230769230769,0.21428571428571427,0.8571428571428571,0.0004
82,1.6047542691230774,1.55265474319458,0.34615384615384615,0.8269230769230769,0.21428571428571427,0.8571428571428571,0.0004
83,1.5573501586914062,1.5541553497314453,0.40384615384615385,0.8269230769230769,0.21428571428571427,0.8571428571428571,0.0004
84,1.5770352482795715,1.555396318435669,0.34615384615384615,0.8269230769230769,0.21428571428571427,0.8571428571428571,0.0004
85,1.5579445958137512,1.555276870727539,0.34615384615384615,0.8269230769230769,0.21428571428571427,0.8571428571428571,0.0004
86,1.550816833972931,1.5544030666351318,0.3076923076923077,0.8269230769230769,0.21428571428571427,0.8571428571428571,0.0004
87,1.6650347709655762,1.5537067651748657,0.25,0.8269230769230769,0.21428571428571427,0.8571428571428571,0.0004
88,1.5784215927124023,1.553371787071228,0.36538461538461536,0.8269230769230769,0.21428571428571427,0.8571428571428571,0.0004
89,1.6301279067993164,1.552195429801941,0.28846153846153844,0.8269230769230769,0.21428571428571427,0.8571428571428571,0.0004
90,1.5692124962806702,1.550704836845398,0.4230769230769231,0.8269230769230769,0.21428571428571427,0.8571428571428571,0.0004
91,1.5556443929672241,1.54805588722229,0.38461538461538464,0.8269230769230769,0.21428571428571427,0.8571428571428571,0.0004
92,1.5942275524139404,1.5461230278015137,0.38461538461538464,0.8269230769230769,0.21428571428571427,0.8571428571428571,0.0004
93,1.5754103660583496,1.5444819927215576,0.38461538461538464,0.8269230769230769,0.21428571428571427,0.8571428571428571,0.0004
94,1.6506247520446777,1.5428030490875244,0.28846153846153844,0.8269230769230769,0.21428571428571427,0.8571428571428571,0.0004
95,1.6364574432373047,1.5423442125320435,0.3269230769230769,0.8269230769230769,0.21428571428571427,0.8571428571428571,0.0004
96,1.5581826567649841,1.541609287261963,0.3269230769230769,0.8269230769230769,0.21428571428571427,0.8571428571428571,0.0004
97,1.5749708414077759,1.5411691665649414,0.36538461538461536,0.8269230769230769,0.21428571428571427,0.8571428571428571,0.0004
98,1.645652413368225,1.5409959554672241,0.28846153846153844,0.8269230769230769,0.21428571428571427,0.8571428571428571,0.0004
99,1.5748496651649475,1.5423061847686768,0.3269230769230769,0.8269230769230769,0.21428571428571427,0.8571428571428571,0.0004
100,1.6485363245010376,1.5426385402679443,0.28846153846153844,0.8269230769230769,0.21428571428571427,0.8571428571428571,0.0004
101,1.5825738310813904,1.5431264638900757,0.40384615384615385,0.8269230769230769,0.21428571428571427,0.8571428571428571,0.0004
102,1.6284338235855103,1.5431885719299316,0.3269230769230769,0.8269230769230769,0.21428571428571427,0.8571428571428571,0.0004
103,1.5680075287818909,1.5435361862182617,0.46153846153846156,0.8269230769230769,0.21428571428571427,0.8571428571428571,0.0004
104,1.5730822682380676,1.542804479598999,0.28846153846153844,0.8269230769230769,0.21428571428571427,0.8571428571428571,0.0004
105,1.5849083065986633,1.5419394969940186,0.2692307692307692,0.8269230769230769,0.21428571428571427,0.8571428571428571,0.0004
106,1.5981744527816772,1.5404813289642334,0.2692307692307692,0.8269230769230769,0.21428571428571427,0.8571428571428571,0.0004
107,1.5729466080665588,1.5389835834503174,0.3076923076923077,0.8269230769230769,0.21428571428571427,0.8571428571428571,0.0004
108,1.5672718286514282,1.5377240180969238,0.3076923076923077,0.8269230769230769,0.21428571428571427,0.8571428571428571,0.0004
109,1.5766453742980957,1.5356546640396118,0.38461538461538464,0.8269230769230769,0.21428571428571427,0.8571428571428571,0.0004
110,1.596716582775116,1.5335578918457031,0.3076923076923077,0.8269230769230769,0.21428571428571427,0.8571428571428571,0.0004
111,1.6022854447364807,1.531596302986145,0.40384615384615385,0.8269230769230769,0.21428571428571427,0.8571428571428571,0.0004
112,1.5342353582382202,1.5303964614868164,0.4230769230769231,0.8269230769230769,0.21428571428571427,0.8571428571428571,0.0004
113,1.641143798828125,1.5300848484039307,0.40384615384615385,0.8269230769230769,0.21428571428571427,0.8571428571428571,0.0004
114,1.5692955255508423,1.530531644821167,0.38461538461538464,0.8269230769230769,0.21428571428571427,0.8571428571428571,0.0004
115,1.4857117533683777,1.5314403772354126,0.46153846153846156,0.8269230769230769,0.21428571428571427,0.8571428571428571,0.0004
116,1.600054144859314,1.5319013595581055,0.4230769230769231,0.8269230769230769,0.21428571428571427,0.8571428571428571,0.0004
117,1.6141002178192139,1.5329487323760986,0.40384615384615385,0.8269230769230769,0.21428571428571427,0.8571428571428571,0.0004
118,1.577378749847412,1.533517837524414,0.36538461538461536,0.8269230769230769,0.21428571428571427,0.8571428571428571,0.0004
119,1.6028385162353516,1.5349481105804443,0.28846153846153844,0.8269230769230769,0.21428571428571427,0.8571428571428571,0.0004
120,1.6163734197616577,1.5356159210205078,0.28846153846153844,0.8269230769230769,0.21428571428571427,0.8571428571428571,0.0004
121,1.5495012998580933,1.5367313623428345,0.3076923076923077,0.8269230769230769,0.21428571428571427,0.8571428571428571,0.0004
122,1.568254828453064,1.536576747894287,0.5,0.8269230769230769,0.21428571428571427,0.8571428571428571,0.0004
123,1.6063511967658997,1.5368865728378296,0.23076923076923078,0.8269230769230769,0.21428571428571427,0.8571428571428571,0.0004
124,1.6049370169639587,1.537463665008545,0.36538461538461536,0.8269230769230769,0.21428571428571427,0.8571428571428571,0.0004
125,1.6053972244262695,1.537967324256897,0.34615384615384615,0.8269230769230769,0.21428571428571427,0.8571428571428571,0.0004
126,1.5556434988975525,1.5391677618026733,0.2692307692307692,0.8269230769230769,0.21428571428571427,0.8571428571428571,0.0004
127,1.5445242524147034,1.5398187637329102,0.4230769230769231,0.8269230769230769,0.21428571428571427,0.8571428571428571,0.0004
128,1.5658884644508362,1.5397546291351318,0.25,0.8269230769230769,0.21428571428571427,0.8571428571428571,0.0004
129,1.6034296751022339,1.539553165435791,0.40384615384615385,0.8269230769230769,0.21428571428571427,0.8571428571428571,0.0004
130,1.6208406686782837,1.5396955013275146,0.40384615384615385,0.8269230769230769,0.21428571428571427,0.8571428571428571,0.0004
131,1.5574408173561096,1.5397989749908447,0.38461538461538464,0.8269230769230769,0.21428571428571427,0.8571428571428571,0.0004
132,1.6124767661094666,1.5401973724365234,0.3076923076923077,0.8269230769230769,0.21428571428571427,0.8571428571428571,0.0004
133,1.5789410471916199,1.540764570236206,0.38461538461538464,0.8269230769230769,0.21428571428571427,0.8571428571428571,0.0004
134,1.546080231666565,1.5408848524093628,0.40384615384615385,0.8269230769230769,0.21428571428571427,0.8571428571428571,0.0004
135,1.560727298259735,1.5412602424621582,0.36538461538461536,0.8269230769230769,0.21428571428571427,0.8571428571428571,0.0004
136,1.5488066673278809,1.5421429872512817,0.21153846153846154,0.8269230769230769,0.21428571428571427,0.8571428571428571,0.0004
137,1.5942240953445435,1.5439053773880005,0.38461538461538464,0.8269230769230769,0.21428571428571427,0.8571428571428571,0.0004
138,1.6342464089393616,1.545504093170166,0.28846153846153844,0.8269230769230769,0.21428571428571427,0.8571428571428571,0.0004
139,1.558651864528656,1.5468153953552246,0.36538461538461536,0.8269230769230769,0.21428571428571427,0.8571428571428571,0.0004
140,1.6154863238334656,1.5480051040649414,0.2692307692307692,0.8269230769230769,0.21428571428571427,0.8571428571428571,0.0004
141,1.5469632148742676,1.548803687095642,0.40384615384615385,0.8269230769230769,0.21428571428571427,0.8571428571428571,0.0004
142,1.581564724445343,1.5488307476043701,0.40384615384615385,0.8269230769230769,0.21428571428571427,0.8571428571428571,0.0004
143,1.5416984558105469,1.5488994121551514,0.40384615384615385,0.8269230769230769,0.21428571428571427,0.8571428571428571,0.0004
144,1.5940201878547668,1.5486512184143066,0.28846153846153844,0.8269230769230769,0.21428571428571427,0.8571428571428571,0.0004
145,1.6541390419006348,1.548658013343811,0.28846153846153844,0.8269230769230769,0.21428571428571427,0.8571428571428571,0.0004
146,1.5346771478652954,1.5487539768218994,0.2692307692307692,0.8269230769230769,0.21428571428571427,0.8571428571428571,0.0004
147,1.5857223272323608,1.5487240552902222,0.3269230769230769,0.8269230769230769,0.21428571428571427,0.8571428571428571,0.0004
148,1.5653356313705444,1.5486986637115479,0.36538461538461536,0.8269230769230769,0.21428571428571427,0.8571428571428571,0.0004
149,1.5630679726600647,1.5481841564178467,0.28846153846153844,0.8269230769230769,0.21428571428571427,0.8571428571428571,0.0004
150,1.5916692614555359,1.5475683212280273,0.46153846153846156,0.8269230769230769,0.21428571428571427,0.8571428571428571,0.0004
151,1.5599798560142517,1.5469732284545898,0.38461538461538464,0.8269230769230769,0.21428571428571427,0.8571428571428571,0.0004
152,1.5883285999298096,1.5462182760238647,0.36538461538461536,0.8269230769230769,0.21428571428571427,0.8571428571428571,0.0004
153,1.635815441608429,1.545125961303711,0.25,0.8269230769230769,0.21428571428571427,0.8571428571428571,0.0004
154,1.5073072910308838,1.544327974319458,0.40384615384615385,0.8269230769230769,0.21428571428571427,0.8571428571428571,0.0004
155,1.5462806224822998,1.5433639287948608,0.28846153846153844,0.8269230769230769,0.21428571428571427,0.8571428571428571,0.0004
156,1.563515067100525,1.5421133041381836,0.25,0.8269230769230769,0.21428571428571427,0.8571428571428571,0.0004
157,1.6312012672424316,1.5407891273498535,0.2692307692307692,0.8269230769230769,0.21428571428571427,0.8571428571428571,0.0004
158,1.5494838953018188,1.5405712127685547,0.34615384615384615,0.8269230769230769,0.21428571428571427,0.8571428571428571,0.0004
159,1.610293447971344,1.5401183366775513,0.28846153846153844,0.8269230769230769,0.21428571428571427,0.8571428571428571,0.0004
160,1.5505821108818054,1.540290117263794,0.3269230769230769,0.8269230769230769,0.21428571428571427,0.8571428571428571,0.0004
161,1.5779948830604553,1.540698528289795,0.34615384615384615,0.8269230769230769,0.21428571428571427,0.8571428571428571,0.0004
162,1.5794987678527832,1.5410740375518799,0.36538461538461536,0.8269230769230769,0.21428571428571427,0.8571428571428571,0.0004
163,1.59854656457901,1.5424485206604004,0.28846153846153844,0.8269230769230769,0.21428571428571427,0.8571428571428571,0.0004
164,1.5998730063438416,1.5432093143463135,0.2692307692307692,0.8269230769230769,0.21428571428571427,0.8571428571428571,0.0004
165,1.5860717296600342,1.5437651872634888,0.28846153846153844,0.8269230769230769,0.21428571428571427,0.8571428571428571,0.0004
166,1.580066442489624,1.5446085929870605,0.28846153846153844,0.8269230769230769,0.21428571428571427,0.8571428571428571,0.0004
167,1.5764379501342773,1.545039415359497,0.28846153846153844,0.8269230769230769,0.21428571428571427,0.8571428571428571,0.0004
168,1.5235228538513184,1.5452666282653809,0.36538461538461536,0.8269230769230769,0.21428571428571427,0.8571428571428571,0.0004
169,1.5510773658752441,1.5447453260421753,0.40384615384615385,0.8269230769230769,0.21428571428571427,0.8571428571428571,0.0004
170,1.579160988330841,1.543728232383728,0.34615384615384615,0.8269230769230769,0.21428571428571427,0.8571428571428571,0.0004
171,1.5540932416915894,1.5428942441940308,0.38461538461538464,0.8269230769230769,0.21428571428571427,0.8571428571428571,0.0004
172,1.639748752117157,1.5426132678985596,0.34615384615384615,0.8269230769230769,0.21428571428571427,0.8571428571428571,0.0004
173,1.5699180960655212,1.5425821542739868,0.34615384615384615,0.8269230769230769,0.21428571428571427,0.8571428571428571,0.0004
174,1.564658761024475,1.5430465936660767,0.34615384615384615,0.8269230769230769,0.21428571428571427,0.8571428571428571,0.0004
175,1.5669084191322327,1.5432289838790894,0.36538461538461536,0.8269230769230769,0.21428571428571427,0.8571428571428571,0.0004
176,1.5971349477767944,1.5433696508407593,0.34615384615384615,0.8269230769230769,0.21428571428571427,0.8571428571428571,0.0004
177,1.5877854824066162,1.5436558723449707,0.28846153846153844,0.8269230769230769,0.21428571428571427,0.8571428571428571,0.0004
178,1.6381835341453552,1.543807864189148,0.40384615384615385,0.8269230769230769,0.21428571428571427,0.8571428571428571,0.0004
179,1.6466505527496338,1.5447478294372559,0.38461538461538464,0.8269230769230769,0.21428571428571427,0.8571428571428571,0.0004
180,1.6162067651748657,1.5468957424163818,0.3076923076923077,0.8269230769230769,0.21428571428571427,0.8571428571428571,0.0004
181,1.5689332485198975,1.5489174127578735,0.28846153846153844,0.8269230769230769,0.21428571428571427,0.8571428571428571,0.0004
182,1.5716081261634827,1.549719214439392,0.3076923076923077,0.8269230769230769,0.21428571428571427,0.8571428571428571,0.0004
183,1.5971596240997314,1.5506154298782349,0.36538461538461536,0.8269230769230769,0.21428571428571427,0.8571428571428571,0.0004
184,1.578173577785492,1.5505045652389526,0.3076923076923077,0.8269230769230769,0.21428571428571427,0.8571428571428571,0.0004
185,1.6208549737930298,1.5493149757385254,0.28846153846153844,0.8269230769230769,0.21428571428571427,0.8571428571428571,0.0004
186,1.547338843345642,1.5482208728790283,0.3269230769230769,0.8269230769230769,0.21428571428571427,0.8571428571428571,0.0004
187,1.5785593390464783,1.5470188856124878,0.3269230769230769,0.8269230769230769,0.21428571428571427,0.8571428571428571,0.0004
188,1.5653823018074036,1.5449504852294922,0.40384615384615385,0.8269230769230769,0.21428571428571427,0.8571428571428571,0.0004
189,1.560778260231018,1.5432305335998535,0.36538461538461536,0.8269230769230769,0.21428571428571427,0.8571428571428571,0.0004
190,1.5663061141967773,1.5405962467193604,0.34615384615384615,0.8269230769230769,0.21428571428571427,0.8571428571428571,0.0004
191,1.5688924193382263,1.538486361503601,0.38461538461538464,0.8269230769230769,0.21428571428571427,0.8571428571428571,0.0004
192,1.593235969543457,1.5366370677947998,0.3076923076923077,0.8269230769230769,0.21428571428571427,0.8571428571428571,0.0004
193,1.5923810005187988,1.535111427307129,0.40384615384615385,0.8269230769230769,0.21428571428571427,0.8571428571428571,0.0004
194,1.5835256576538086,1.5341242551803589,0.38461538461538464,0.8269230769230769,0.21428571428571427,0.8571428571428571,0.0004
195,1.526812195777893,1.5334211587905884,0.38461538461538464,0.8269230769230769,0.21428571428571427,0.8571428571428571,0.0004
196,1.5782493352890015,1.5329062938690186,0.28846153846153844,0.8269230769230769,0.21428571428571427,0.8571428571428571,0.0004
197,1.546294629573822,1.5323781967163086,0.36538461538461536,0.8269230769230769,0.21428571428571427,0.8571428571428571,0.0004
198,1.5659684538841248,1.5327699184417725,0.2692307692307692,0.8269230769230769,0.21428571428571427,0.8571428571428571,0.0004
199,1.5416741967201233,1.5325653553009033,0.25,0.8269230769230769,0.21428571428571427,0.8571428571428571,0.0004
200,1.5330012440681458,1.5326266288757324,0.46153846153846156,0.8269230769230769,0.21428571428571427,0.8571428571428571,0.0004
201,1.650526762008667,1.5326206684112549,0.36538461538461536,0.8269230769230769,0.21428571428571427,0.8571428571428571,0.0004
202,1.5783893465995789,1.5330653190612793,0.34615384615384615,0.8269230769230769,0.21428571428571427,0.8571428571428571,0.0004
203,1.6122512817382812,1.533431053161621,0.36538461538461536,0.8269230769230769,0.21428571428571427,0.8571428571428571,0.0004
204,1.5646280646324158,1.5341770648956299,0.34615384615384615,0.8269230769230769,0.21428571428571427,0.8571428571428571,0.0004
205,1.5738287568092346,1.5359750986099243,0.36538461538461536,0.8269230769230769,0.21428571428571427,0.8571428571428571,0.0004
206,1.547152042388916,1.537428379058838,0.34615384615384615,0.8269230769230769,0.21428571428571427,0.8571428571428571,0.0004
207,1.6084227561950684,1.5392789840698242,0.34615384615384615,0.8269230769230769,0.21428571428571427,0.8571428571428571,0.0004
208,1.515830636024475,1.5408802032470703,0.4423076923076923,0.8269230769230769,0.21428571428571427,0.8571428571428571,0.0004
209,1.5909226536750793,1.5416420698165894,0.21153846153846154,0.8269230769230769,0.21428571428571427,0.8571428571428571,0.0004
210,1.5819534063339233,1.5424338579177856,0.4230769230769231,0.8269230769230769,0.21428571428571427,0.8571428571428571,0.0004
211,1.6186262369155884,1.5431644916534424,0.3269230769230769,0.8269230769230769,0.21428571428571427,0.8571428571428571,0.0004
212,1.5929714441299438,1.5441800355911255,0.34615384615384615,0.8269230769230769,0.21428571428571427,0.8571428571428571,0.0004
213,1.6069163084030151,1.5447697639465332,0.3076923076923077,0.8269230769230769,0.21428571428571427,0.8571428571428571,0.0004
214,1.6004103422164917,1.5452039241790771,0.36538461538461536,0.8269230769230769,0.21428571428571427,0.8571428571428571,0.0004
215,1.5791165828704834,1.5447331666946411,0.3076923076923077,0.8269230769230769,0.21428571428571427,0.8571428571428571,0.0004
216,1.5310654640197754,1.5454212427139282,0.4230769230769231,0.8269230769230769,0.21428571428571427,0.8571428571428571,0.0004
217,1.5520004034042358,1.5453078746795654,0.34615384615384615,0.8269230769230769,0.21428571428571427,0.8571428571428571,0.0004
218,1.5555729866027832,1.5444332361221313,0.4230769230769231,0.8269230769230769,0.21428571428571427,0.8571428571428571,0.0004
219,1.543457567691803,1.5436755418777466,0.3269230769230769,0.8269230769230769,0.21428571428571427,0.8571428571428571,0.0004
220,1.5838627815246582,1.5428200960159302,0.25,0.8269230769230769,0.21428571428571427,0.8571428571428571,0.0004
221,1.5406944751739502,1.5432074069976807,0.36538461538461536,0.8269230769230769,0.21428571428571427,0.8571428571428571,0.0004
222,1.611395001411438,1.5422546863555908,0.40384615384615385,0.8269230769230769,0.21428571428571427,0.8571428571428571,0.0004
223,1.5607613325119019,1.541799545288086,0.3076923076923077,0.8269230769230769,0.21428571428571427,0.8571428571428571,0.0004
224,1.6530680656433105,1.5415995121002197,0.2692307692307692,0.8269230769230769,0.21428571428571427,0.8571428571428571,0.0004
225,1.6115785837173462,1.5412335395812988,0.3269230769230769,0.8269230769230769,0.21428571428571427,0.8571428571428571,0.0004
226,1.540130078792572,1.5411014556884766,0.36538461538461536,0.8269230769230769,0.21428571428571427,0.8571428571428571,0.0004
227,1.514355182647705,1.5404433012008667,0.28846153846153844,0.8269230769230769,0.21428571428571427,0.8571428571428571,0.0004
228,1.5498228073120117,1.5397025346755981,0.3269230769230769,0.8269230769230769,0.21428571428571427,0.8571428571428571,0.0004
229,1.5659030079841614,1.5386897325515747,0.4230769230769231,0.8269230769230769,0.21428571428571427,0.8571428571428571,0.0004
230,1.5875428915023804,1.5378165245056152,0.40384615384615385,0.8269230769230769,0.21428571428571427,0.8571428571428571,0.0004
231,1.5467343926429749,1.5371185541152954,0.4230769230769231,0.8269230769230769,0.21428571428571427,0.8571428571428571,0.0004
232,1.575908899307251,1.5363948345184326,0.3269230769230769,0.8269230769230769,0.21428571428571427,0.8571428571428571,0.0004
233,1.5532719492912292,1.5359364748001099,0.3269230769230769,0.8269230769230769,0.21428571428571427,0.8571428571428571,0.0004
234,1.5081714391708374,1.5355924367904663,0.4807692307692308,0.8269230769230769,0.21428571428571427,0.8571428571428571,0.0004
235,1.5739237666130066,1.5352795124053955,0.3076923076923077,0.8269230769230769,0.21428571428571427,0.8571428571428571,0.0004
236,1.6142975091934204,1.5350208282470703,0.38461538461538464,0.8269230769230769,0.21428571428571427,0.8571428571428571,0.0004
237,1.5565215349197388,1.5355665683746338,0.3269230769230769,0.8269230769230769,0.21428571428571427,0.8571428571428571,0.0004
238,1.5255994200706482,1.5355651378631592,0.46153846153846156,0.8269230769230769,0.21428571428571427,0.8571428571428571,0.0004
239,1.63566255569458,1.536365270614624,0.28846153846153844,0.8269230769230769,0.21428571428571427,0.8571428571428571,0.0004
240,1.5257899761199951,1.5367577075958252,0.38461538461538464,0.8269230769230769,0.21428571428571427,0.8571428571428571,0.0004
241,1.5535379648208618,1.5371876955032349,0.40384615384615385,0.8269230769230769,0.21428571428571427,0.8571428571428571,0.0004
242,1.56736820936203,1.537508487701416,0.38461538461538464,0.8269230769230769,0.21428571428571427,0.8571428571428571,0.0004
243,1.4714099168777466,1.5373350381851196,0.4423076923076923,0.8269230769230769,0.21428571428571427,0.8571428571428571,0.0004
244,1.5349218845367432,1.5369218587875366,0.34615384615384615,0.8269230769230769,0.21428571428571427,0.8571428571428571,0.0004
245,1.5885380506515503,1.5366973876953125,0.38461538461538464,0.8269230769230769,0.21428571428571427,0.8571428571428571,0.0004
246,1.5614607334136963,1.5363432168960571,0.34615384615384615,0.8269230769230769,0.21428571428571427,0.8571428571428571,0.0004
247,1.6147674322128296,1.535936713218689,0.28846153846153844,0.8269230769230769,0.21428571428571427,0.8571428571428571,0.0004
248,1.6558749079704285,1.5360524654388428,0.36538461538461536,0.8269230769230769,0.21428571428571427,0.8571428571428571,0.0004
249,1.5820429921150208,1.5366437435150146,0.28846153846153844,0.8269230769230769,0.21428571428571427,0.8571428571428571,0.0004
250,1.6233708262443542,1.536989450454712,0.4423076923076923,0.8269230769230769,0.21428571428571427,0.8571428571428571,0.0004
251,1.5470811128616333,1.5374853610992432,0.2692307692307692,0.8269230769230769,0.21428571428571427,0.8571428571428571,0.0004
252,1.5697000622749329,1.5380520820617676,0.3269230769230769,0.8269230769230769,0.21428571428571427,0.8571428571428571,0.0004
253,1.6216987371444702,1.5384615659713745,0.40384615384615385,0.8269230769230769,0.21428571428571427,0.8571428571428571,0.0004
254,1.578658938407898,1.5397917032241821,0.36538461538461536,0.8269230769230769,0.21428571428571427,0.8571428571428571,0.0004
255,1.5652053356170654,1.5404157638549805,0.38461538461538464,0.8269230769230769,0.21428571428571427,0.8571428571428571,0.0004
256,1.6024867296218872,1.5407646894454956,0.40384615384615385,0.8269230769230769,0.21428571428571427,0.8571428571428571,0.0004
257,1.5677976608276367,1.5402292013168335,0.40384615384615385,0.8269230769230769,0.21428571428571427,0.8571428571428571,0.0004
258,1.5391862988471985,1.5403714179992676,0.40384615384615385,0.8269230769230769,0.21428571428571427,0.8571428571428571,0.0004
259,1.5628071427345276,1.5395389795303345,0.34615384615384615,0.8269230769230769,0.21428571428571427,0.8571428571428571,0.0004
260,1.5947588086128235,1.537891149520874,0.28846153846153844,0.8269230769230769,0.21428571428571427,0.8571428571428571,0.0004
261,1.5291795134544373,1.536147952079773,0.40384615384615385,0.8269230769230769,0.21428571428571427,0.8571428571428571,0.0004
262,1.5831444263458252,1.5342515707015991,0.40384615384615385,0.8269230769230769,0.21428571428571427,0.8571428571428571,0.0004
263,1.6084424257278442,1.5325849056243896,0.3269230769230769,0.8269230769230769,0.21428571428571427,0.8571428571428571,0.0004
264,1.64239501953125,1.5309656858444214,0.38461538461538464,0.8269230769230769,0.21428571428571427,0.8571428571428571,0.0004
265,1.5591560006141663,1.5306720733642578,0.38461538461538464,0.8269230769230769,0.21428571428571427,0.8571428571428571,0.0004
266,1.594477355480194,1.5305070877075195,0.38461538461538464,0.8269230769230769,0.21428571428571427,0.8571428571428571,0.0004
267,1.5455673933029175,1.5302507877349854,0.40384615384615385,0.8269230769230769,0.21428571428571427,0.8571428571428571,0.0004
268,1.5779643058776855,1.5301916599273682,0.3269230769230769,0.8269230769230769,0.21428571428571427,0.8571428571428571,0.0004
269,1.5640338063240051,1.529430627822876,0.2692307692307692,0.8269230769230769,0.21428571428571427,0.8571428571428571,0.0004
270,1.611564815044403,1.5299731492996216,0.2692307692307692,0.8269230769230769,0.21428571428571427,0.8571428571428571,0.0004
271,1.541230320930481,1.5305984020233154,0.3269230769230769,0.8269230769230769,0.21428571428571427,0.8571428571428571,0.0004
272,1.563171923160553,1.5320042371749878,0.4423076923076923,0.8269230769230769,0.21428571428571427,0.8571428571428571,0.0004
273,1.48936128616333,1.5327086448669434,0.4230769230769231,0.8269230769230769,0.21428571428571427,0.8571428571428571,0.0004
274,1.5589762926101685,1.5328785181045532,0.36538461538461536,0.8269230769230769,0.21428571428571427,0.8571428571428571,0.0004
275,1.561608076095581,1.533025860786438,0.34615384615384615,0.8269230769230769,0.21428571428571427,0.8571428571428571,0.0004
276,1.5889760255813599,1.5331275463104248,0.25,0.8269230769230769,0.21428571428571427,0.8571428571428571,0.0004
277,1.62074476480484,1.5335853099822998,0.25,0.8269230769230769,0.21428571428571427,0.8571428571428571,0.0004
278,1.5607433915138245,1.5339951515197754,0.28846153846153844,0.8269230769230769,0.21428571428571427,0.8571428571428571,0.0004
279,1.5754851698875427,1.5339884757995605,0.4230769230769231,0.8269230769230769,0.21428571428571427,0.8571428571428571,0.0004
280,1.5386698842048645,1.5341041088104248,0.38461538461538464,0.8269230769230769,0.21428571428571427,0.8571428571428571,0.0004
281,1.526565432548523,1.533949375152588,0.34615384615384615,0.8269230769230769,0.21428571428571427,0.8571428571428571,0.0004
282,1.5298823714256287,1.5330125093460083,0.38461538461538464,0.8269230769230769,0.21428571428571427,0.8571428571428571,0.0004
283,1.5929387211799622,1.532904863357544,0.38461538461538464,0.8269230769230769,0.21428571428571427,0.8571428571428571,0.0004
284,1.6102781891822815,1.5327914953231812,0.23076923076923078,0.8269230769230769,0.21428571428571427,0.8571428571428571,0.0004
285,1.592555046081543,1.5326201915740967,0.3076923076923077,0.8269230769230769,0.21428571428571427,0.8571428571428571,0.0004
286,1.6236620545387268,1.5327205657958984,0.2692307692307692,0.8269230769230769,0.21428571428571427,0.8571428571428571,0.0004
287,1.5516436100006104,1.5330995321273804,0.2692307692307692,0.8269230769230769,0.21428571428571427,0.8571428571428571,0.0004
288,1.5731770396232605,1.5340228080749512,0.34615384615384615,0.8269230769230769,0.21428571428571427,0.8571428571428571,0.0004
289,1.5841758251190186,1.5352269411087036,0.34615384615384615,0.8269230769230769,0.21428571428571427,0.8571428571428571,0.0004
290,1.5914477109909058,1.5362229347229004,0.25,0.8269230769230769,0.21428571428571427,0.8571428571428571,0.0004
291,1.59060537815094,1.5376689434051514,0.34615384615384615,0.8269230769230769,0.21428571428571427,0.8571428571428571,0.0004
292,1.5794915556907654,1.538647174835205,0.38461538461538464,0.8269230769230769,0.21428571428571427,0.8571428571428571,0.0004
293,1.573070764541626,1.5396437644958496,0.4230769230769231,0.8269230769230769,0.21428571428571427,0.8571428571428571,0.0004
294,1.5798113346099854,1.5410224199295044,0.36538461538461536,0.8269230769230769,0.21428571428571427,0.8571428571428571,0.0004
295,1.5487878322601318,1.5418237447738647,0.28846153846153844,0.8269230769230769,0.21428571428571427,0.8571428571428571,0.0004
296,1.5972331762313843,1.5423517227172852,0.34615384615384615,0.8269230769230769,0.21428571428571427,0.8571428571428571,0.0004
297,1.5723469853401184,1.542353630065918,0.2692307692307692,0.8269230769230769,0.21428571428571427,0.8571428571428571,0.0004
298,1.5774258375167847,1.5421520471572876,0.4423076923076923,0.8269230769230769,0.21428571428571427,0.8571428571428571,0.0004
299,1.5851147174835205,1.5416315793991089,0.3269230769230769,0.8269230769230769,0.21428571428571427,0.8571428571428571,0.0004
300,1.5736112594604492,1.5421468019485474,0.25,0.8269230769230769,0.21428571428571427,0.8571428571428571,0.0004
301,1.5730929374694824,1.541829228401184,0.3076923076923077,0.8269230769230769,0.21428571428571427,0.8571428571428571,0.0004
302,1.5815680027008057,1.5412139892578125,0.38461538461538464,0.8269230769230769,0.21428571428571427,0.8571428571428571,0.0004
303,1.5545228123664856,1.5410261154174805,0.3269230769230769,0.8269230769230769,0.21428571428571427,0.8571428571428571,0.0004
304,1.5757326483726501,1.539635419845581,0.36538461538461536,0.8269230769230769,0.21428571428571427,0.8571428571428571,0.0004
305,1.5790855288505554,1.5393610000610352,0.28846153846153844,0.8269230769230769,0.21428571428571427,0.8571428571428571,0.0004
306,1.6179779767990112,1.5383260250091553,0.3076923076923077,0.8269230769230769,0.21428571428571427,0.8571428571428571,0.0004
307,1.5782266855239868,1.5379276275634766,0.3269230769230769,0.8269230769230769,0.21428571428571427,0.8571428571428571,0.0004
308,1.6439061164855957,1.5377390384674072,0.25,0.8269230769230769,0.21428571428571427,0.8571428571428571,0.0004
309,1.5886655449867249,1.537654161453247,0.34615384615384615,0.8269230769230769,0.21428571428571427,0.8571428571428571,0.0004
310,1.5526057481765747,1.5374138355255127,0.34615384615384615,0.8269230769230769,0.21428571428571427,0.8571428571428571,0.0004
311,1.5881587266921997,1.5372682809829712,0.34615384615384615,0.8269230769230769,0.21428571428571427,0.8571428571428571,0.0004
312,1.594717025756836,1.5379793643951416,0.40384615384615385,0.8269230769230769,0.21428571428571427,0.8571428571428571,0.0004
313,1.512797236442566,1.5383695363998413,0.4230769230769231,0.8269230769230769,0.21428571428571427,0.8571428571428571,0.0004
314,1.5743745565414429,1.53838312625885,0.28846153846153844,0.8269230769230769,0.21428571428571427,0.8571428571428571,0.0004
315,1.5769549012184143,1.5389407873153687,0.3076923076923077,0.8269230769230769,0.21428571428571427,0.8571428571428571,0.0004
316,1.5560250282287598,1.5385277271270752,0.36538461538461536,0.8269230769230769,0.21428571428571427,0.8571428571428571,0.0004
317,1.5164408087730408,1.5381296873092651,0.4230769230769231,0.8269230769230769,0.21428571428571427,0.8571428571428571,0.0004
318,1.5482494235038757,1.5373430252075195,0.40384615384615385,0.8269230769230769,0.21428571428571427,0.8571428571428571,0.0004
319,1.5413394570350647,1.5361745357513428,0.36538461538461536,0.8269230769230769,0.21428571428571427,0.8571428571428571,0.0004
320,1.6583791971206665,1.5352575778961182,0.3076923076923077,0.8269230769230769,0.21428571428571427,0.8571428571428571,0.0004
321,1.5716636180877686,1.5356483459472656,0.5,0.8269230769230769,0.21428571428571427,0.8571428571428571,0.0004
322,1.5562130212783813,1.5353078842163086,0.36538461538461536,0.8269230769230769,0.21428571428571427,0.8571428571428571,0.0004
323,1.5719324946403503,1.536034107208252,0.4230769230769231,0.8269230769230769,0.21428571428571427,0.8571428571428571,0.0004
324,1.597555935382843,1.5369231700897217,0.38461538461538464,0.8269230769230769,0.21428571428571427,0.8571428571428571,0.0004
325,1.5728551745414734,1.5367305278778076,0.28846153846153844,0.8269230769230769,0.21428571428571427,0.8571428571428571,0.0004
326,1.5826085805892944,1.5375356674194336,0.36538461538461536,0.8269230769230769,0.21428571428571427,0.8571428571428571,0.0004
327,1.5746078491210938,1.5375232696533203,0.3269230769230769,0.8269230769230769,0.21428571428571427,0.8571428571428571,0.0004
328,1.5940154194831848,1.537766456604004,0.34615384615384615,0.8269230769230769,0.21428571428571427,0.8571428571428571,0.0004
329,1.5690325498580933,1.5377635955810547,0.38461538461538464,0.8269230769230769,0.21428571428571427,0.8571428571428571,0.0004
330,1.5969176292419434,1.5379931926727295,0.2692307692307692,0.8269230769230769,0.21428571428571427,0.8571428571428571,0.0004
331,1.5809226036071777,1.5385403633117676,0.25,0.8269230769230769,0.21428571428571427,0.8571428571428571,0.0004
332,1.5990499258041382,1.5386852025985718,0.34615384615384615,0.8269230769230769,0.21428571428571427,0.8571428571428571,0.0004
333,1.5328550338745117,1.5387485027313232,0.38461538461538464,0.8269230769230769,0.21428571428571427,0.8571428571428571,0.0004
334,1.556393802165985,1.5382534265518188,0.5,0.8269230769230769,0.21428571428571427,0.8571428571428571,0.0004
335,1.5807690024375916,1.537433385848999,0.34615384615384615,0.8269230769230769,0.21428571428571427,0.8571428571428571,0.0004
336,1.545499861240387,1.5379981994628906,0.3076923076923077,0.8269230769230769,0.21428571428571427,0.8571428571428571,0.0004
337,1.5760022401809692,1.5373477935791016,0.4230769230769231,0.8269230769230769,0.21428571428571427,0.8571428571428571,0.0004
338,1.5888581275939941,1.5364222526550293,0.2692307692307692,0.8269230769230769,0.21428571428571427,0.8571428571428571,0.0004
339,1.6015136241912842,1.5360476970672607,0.40384615384615385,0.8269230769230769,0.21428571428571427,0.8571428571428571,0.0004
340,1.5747841000556946,1.5352838039398193,0.28846153846153844,0.8269230769230769,0.21428571428571427,0.8571428571428571,0.0004
341,1.5852407217025757,1.5355937480926514,0.34615384615384615,0.8269230769230769,0.21428571428571427,0.8571428571428571,0.0004
342,1.5571006536483765,1.535547137260437,0.34615384615384615,0.8269230769230769,0.21428571428571427,0.8571428571428571,0.0004
343,1.5503846406936646,1.5353899002075195,0.38461538461538464,0.8269230769230769,0.21428571428571427,0.8571428571428571,0.0004
344,1.6055461168289185,1.535000205039978,0.38461538461538464,0.8269230769230769,0.21428571428571427,0.8571428571428571,0.0004
345,1.550120234489441,1.5352518558502197,0.34615384615384615,0.8269230769230769,0.21428571428571427,0.8571428571428571,0.0004
346,1.5636740326881409,1.5350253582000732,0.36538461538461536,0.8269230769230769,0.21428571428571427,0.8571428571428571,0.0004
347,1.5888044834136963,1.535032033920288,0.40384615384615385,0.8269230769230769,0.21428571428571427,0.8571428571428571,0.0004
348,1.6025311946868896,1.5352306365966797,0.3269230769230769,0.8269230769230769,0.21428571428571427,0.8571428571428571,0.0004
349,1.6126224994659424,1.53550386428833,0.40384615384615385,0.8269230769230769,0.21428571428571427,0.8571428571428571,0.0004
350,1.5229447484016418,1.5355908870697021,0.34615384615384615,0.8269230769230769,0.21428571428571427,0.8571428571428571,0.0004
351,1.5495346784591675,1.535210371017456,0.5,0.8269230769230769,0.21428571428571427,0.8571428571428571,0.0004
352,1.601557970046997,1.534380555152893,0.2692307692307692,0.8269230769230769,0.21428571428571427,0.8571428571428571,0.0004
353,1.5537869930267334,1.5344805717468262,0.36538461538461536,0.8269230769230769,0.21428571428571427,0.8571428571428571,0.0004
354,1.5802186727523804,1.53475022315979,0.21153846153846154,0.8269230769230769,0.21428571428571427,0.8571428571428571,0.0004
355,1.5622875690460205,1.5348639488220215,0.34615384615384615,0.8269230769230769,0.21428571428571427,0.8571428571428571,0.0004
356,1.6060856580734253,1.5355134010314941,0.36538461538461536,0.8269230769230769,0.21428571428571427,0.8571428571428571,0.0004
357,1.5908119678497314,1.5357897281646729,0.34615384615384615,0.8269230769230769,0.21428571428571427,0.8571428571428571,0.0004
358,1.5119088888168335,1.5358490943908691,0.36538461538461536,0.8269230769230769,0.21428571428571427,0.8571428571428571,0.0004
359,1.5667895078659058,1.5355989933013916,0.40384615384615385,0.8269230769230769,0.21428571428571427,0.8571428571428571,0.0004
360,1.5575754046440125,1.535194754600525,0.2692307692307692,0.8269230769230769,0.21428571428571427,0.8571428571428571,0.0004
361,1.5783193111419678,1.5353443622589111,0.3269230769230769,0.8269230769230769,0.21428571428571427,0.8571428571428571,0.0004
362,1.570462167263031,1.5352200269699097,0.38461538461538464,0.8269230769230769,0.21428571428571427,0.8571428571428571,0.0004
363,1.5930331349372864,1.5352672338485718,0.25,0.8269230769230769,0.21428571428571427,0.8571428571428571,0.0004
364,1.5936906933784485,1.5359159708023071,0.28846153846153844,0.8269230769230769,0.21428571428571427,0.8571428571428571,0.0004
365,1.576474368572235,1.535706877708435,0.34615384615384615,0.8269230769230769,0.21428571428571427,0.8571428571428571,0.0004
366,1.5761346817016602,1.535732626914978,0.28846153846153844,0.8269230769230769,0.21428571428571427,0.8571428571428571,0.0004
367,1.5329495072364807,1.5363445281982422,0.3076923076923077,0.8269230769230769,0.21428571428571427,0.8571428571428571,0.0004
368,1.4882175922393799,1.536293625831604,0.4423076923076923,0.8269230769230769,0.21428571428571427,0.8571428571428571,0.0004
369,1.5890762209892273,1.5356453657150269,0.38461538461538464,0.8269230769230769,0.21428571428571427,0.8571428571428571,0.0004
370,1.5774125456809998,1.5357086658477783,0.3269230769230769,0.8269230769230769,0.21428571428571427,0.8571428571428571,0.0004
371,1.5441831350326538,1.5359747409820557,0.3269230769230769,0.8269230769230769,0.21428571428571427,0.8571428571428571,0.0004
372,1.611528754234314,1.5357270240783691,0.36538461538461536,0.8269230769230769,0.21428571428571427,0.8571428571428571,0.0004
373,1.5511285066604614,1.5368726253509521,0.36538461538461536,0.8269230769230769,0.21428571428571427,0.8571428571428571,0.0004
374,1.6008158326148987,1.5374422073364258,0.38461538461538464,0.8269230769230769,0.21428571428571427,0.8571428571428571,0.0004
375,1.578083336353302,1.538687825202942,0.23076923076923078,0.8269230769230769,0.21428571428571427,0.8571428571428571,0.0004
376,1.549476981163025,1.5400731563568115,0.40384615384615385,0.8269230769230769,0.21428571428571427,0.8571428571428571,0.0004
377,1.531369686126709,1.5414944887161255,0.4230769230769231,0.8269230769230769,0.21428571428571427,0.8571428571428571,0.0004
378,1.5581860542297363,1.5424089431762695,0.3076923076923077,0.8269230769230769,0.21428571428571427,0.8571428571428571,0.0004
379,1.5745465159416199,1.54301917552948,0.34615384615384615,0.8269230769230769,0.21428571428571427,0.8571428571428571,0.0004
380,1.576753556728363,1.543944239616394,0.34615384615384615,0.8269230769230769,0.21428571428571427,0.8571428571428571,0.0004
381,1.6185445189476013,1.544548749923706,0.34615384615384615,0.8269230769230769,0.21428571428571427,0.8571428571428571,0.0004
382,1.61886328458786,1.5447373390197754,0.34615384615384615,0.8269230769230769,0.21428571428571427,0.8571428571428571,0.0004
383,1.6243677139282227,1.5456572771072388,0.4230769230769231,0.8269230769230769,0.21428571428571427,0.8571428571428571,0.0004
384,1.5040085315704346,1.5457261800765991,0.38461538461538464,0.8269230769230769,0.21428571428571427,0.8571428571428571,0.0004
385,1.618409812450409,1.5463545322418213,0.40384615384615385,0.8269230769230769,0.21428571428571427,0.8571428571428571,0.0004
386,1.5610472559928894,1.5461556911468506,0.40384615384615385,0.8269230769230769,0.21428571428571427,0.8571428571428571,0.0004
387,1.5487262606620789,1.5456008911132812,0.34615384615384615,0.8269230769230769,0.21428571428571427,0.8571428571428571,0.0004
388,1.6051928997039795,1.544875144958496,0.38461538461538464,0.8269230769230769,0.21428571428571427,0.8571428571428571,0.0004
389,1.5894861221313477,1.543997883796692,0.3076923076923077,0.8269230769230769,0.21428571428571427,0.8571428571428571,0.0004
390,1.5748571157455444,1.5431500673294067,0.3269230769230769,0.8269230769230769,0.21428571428571427,0.8571428571428571,0.0004
391,1.5492534637451172,1.5421868562698364,0.3269230769230769,0.8269230769230769,0.21428571428571427,0.8571428571428571,0.0004
392,1.5957870483398438,1.5411536693572998,0.3076923076923077,0.8269230769230769,0.21428571428571427,0.8571428571428571,0.0004
393,1.5911229848861694,1.5410172939300537,0.3076923076923077,0.8269230769230769,0.21428571428571427,0.8571428571428571,0.0004
394,1.5857166051864624,1.5404167175292969,0.36538461538461536,0.8269230769230769,0.21428571428571427,0.8571428571428571,0.0004
395,1.624721884727478,1.5401344299316406,0.38461538461538464,0.8269230769230769,0.21428571428571427,0.8571428571428571,0.0004
396,1.5958175659179688,1.5400545597076416,0.36538461538461536,0.8269230769230769,0.21428571428571427,0.8571428571428571,0.0004
397,1.503712773323059,1.5395658016204834,0.38461538461538464,0.8269230769230769,0.21428571428571427,0.8571428571428571,0.0004
398,1.5627538561820984,1.5394456386566162,0.38461538461538464,0.8269230769230769,0.21428571428571427,0.8571428571428571,0.0004
399,1.6104429960250854,1.5395861864089966,0.3269230769230769,0.8269230769230769,0.21428571428571427,0.8571428571428571,0.0004
400,1.5491167902946472,1.53947114944458,0.38461538461538464,0.8269230769230769,0.21428571428571427,0.8571428571428571,0.0004
401,1.540021538734436,1.5389907360076904,0.34615384615384615,0.8269230769230769,0.21428571428571427,0.8571428571428571,0.0004
402,1.5436391830444336,1.5387717485427856,0.3076923076923077,0.8269230769230769,0.21428571428571427,0.8571428571428571,0.0004
403,1.5823315382003784,1.5379894971847534,0.40384615384615385,0.8269230769230769,0.21428571428571427,0.8571428571428571,0.0004
404,1.5551728010177612,1.5365467071533203,0.3269230769230769,0.8269230769230769,0.21428571428571427,0.8571428571428571,0.0004
405,1.5122174620628357,1.5361924171447754,0.4230769230769231,0.8269230769230769,0.21428571428571427,0.8571428571428571,0.0004
406,1.61356782913208,1.5345001220703125,0.3269230769230769,0.8269230769230769,0.21428571428571427,0.8571428571428571,0.0004
407,1.515163004398346,1.5330804586410522,0.28846153846153844,0.8269230769230769,0.21428571428571427,0.8571428571428571,0.0004
408,1.6076449155807495,1.5322647094726562,0.25,0.8269230769230769,0.21428571428571427,0.8571428571428571,0.0004
409,1.579638957977295,1.5313509702682495,0.36538461538461536,0.8269230769230769,0.21428571428571427,0.8571428571428571,0.0004
410,1.587826669216156,1.530598521232605,0.36538461538461536,0.8269230769230769,0.21428571428571427,0.8571428571428571,0.0004
411,1.5820074081420898,1.5301004648208618,0.3269230769230769,0.8269230769230769,0.21428571428571427,0.8571428571428571,0.0004
412,1.5158329010009766,1.5294402837753296,0.36538461538461536,0.8269230769230769,0.21428571428571427,0.8571428571428571,0.0004
413,1.4948067665100098,1.5290565490722656,0.40384615384615385,0.8269230769230769,0.21428571428571427,0.8571428571428571,0.0004
414,1.5561993718147278,1.5287444591522217,0.3269230769230769,0.8269230769230769,0.21428571428571427,0.8571428571428571,0.0004
415,1.5876661539077759,1.5284481048583984,0.3269230769230769,0.8269230769230769,0.21428571428571427,0.8571428571428571,0.0004
416,1.562848448753357,1.528563141822815,0.3076923076923077,0.8269230769230769,0.21428571428571427,0.8571428571428571,0.0004
417,1.5839622020721436,1.5286071300506592,0.2692307692307692,0.8269230769230769,0.21428571428571427,0.8571428571428571,0.0004
418,1.5468103289604187,1.5290628671646118,0.36538461538461536,0.8269230769230769,0.21428571428571427,0.8571428571428571,0.0004
419,1.5709685683250427,1.5295665264129639,0.4423076923076923,0.8269230769230769,0.21428571428571427,0.8571428571428571,0.0004
420,1.592483103275299,1.5306240320205688,0.21153846153846154,0.8269230769230769,0.21428571428571427,0.8571428571428571,0.0004
421,1.5798689126968384,1.5312846899032593,0.28846153846153844,0.8269230769230769,0.21428571428571427,0.8571428571428571,0.0004
422,1.5187232494354248,1.531965970993042,0.40384615384615385,0.8269230769230769,0.21428571428571427,0.8571428571428571,0.0004
423,1.6123311519622803,1.5324333906173706,0.28846153846153844,0.8269230769230769,0.21428571428571427,0.8571428571428571,0.0004
424,1.6026004552841187,1.5334111452102661,0.34615384615384615,0.8269230769230769,0.21428571428571427,0.8571428571428571,0.0004
425,1.4918618202209473,1.5343632698059082,0.3076923076923077,0.8269230769230769,0.21428571428571427,0.8571428571428571,0.0004
426,1.617195963859558,1.5338993072509766,0.28846153846153844,0.8269230769230769,0.21428571428571427,0.8571428571428571,0.0004
427,1.5881375074386597,1.5337285995483398,0.38461538461538464,0.8269230769230769,0.21428571428571427,0.8571428571428571,0.0004
428,1.5679831504821777,1.533806324005127,0.34615384615384615,0.8269230769230769,0.21428571428571427,0.8571428571428571,0.0004
429,1.6070753335952759,1.5340654850006104,0.34615384615384615,0.8269230769230769,0.21428571428571427,0.8571428571428571,0.0004
430,1.6146711707115173,1.5343464612960815,0.4230769230769231,0.8269230769230769,0.21428571428571427,0.8571428571428571,0.0004
431,1.622903048992157,1.5345759391784668,0.36538461538461536,0.8269230769230769,0.21428571428571427,0.8571428571428571,0.0004
432,1.5551561117172241,1.5350123643875122,0.4807692307692308,0.8269230769230769,0.21428571428571427,0.8571428571428571,0.0004
433,1.6062334775924683,1.5364739894866943,0.2692307692307692,0.8269230769230769,0.21428571428571427,0.8571428571428571,0.0004
434,1.5944588780403137,1.536615252494812,0.4230769230769231,0.8269230769230769,0.21428571428571427,0.8571428571428571,0.0004
435,1.5773677825927734,1.5371042490005493,0.34615384615384615,0.8269230769230769,0.21428571428571427,0.8571428571428571,0.0004
436,1.58164381980896,1.5372713804244995,0.34615384615384615,0.8269230769230769,0.21428571428571427,0.8571428571428571,0.0004
437,1.560362696647644,1.536800503730774,0.3269230769230769,0.8269230769230769,0.21428571428571427,0.8571428571428571,0.0004
438,1.6347229480743408,1.5362452268600464,0.34615384615384615,0.8269230769230769,0.21428571428571427,0.8571428571428571,0.0004
439,1.5519362688064575,1.536219835281372,0.34615384615384615,0.8269230769230769,0.21428571428571427,0.8571428571428571,0.0004
440,1.6030064225196838,1.5354269742965698,0.25,0.8269230769230769,0.21428571428571427,0.8571428571428571,0.0004
441,1.6252616047859192,1.5344005823135376,0.28846153846153844,0.8269230769230769,0.21428571428571427,0.8571428571428571,0.0004
442,1.5604294538497925,1.5337088108062744,0.34615384615384615,0.8269230769230769,0.21428571428571427,0.8571428571428571,0.0004
443,1.5999606847763062,1.533263921737671,0.3269230769230769,0.8269230769230769,0.21428571428571427,0.8571428571428571,0.0004
444,1.6209882497787476,1.5328768491744995,0.38461538461538464,0.8269230769230769,0.21428571428571427,0.8571428571428571,0.0004
445,1.583220660686493,1.5324897766113281,0.36538461538461536,0.8269230769230769,0.21428571428571427,0.8571428571428571,0.0004
446,1.579520344734192,1.5327928066253662,0.3076923076923077,0.8269230769230769,0.21428571428571427,0.8571428571428571,0.0004
447,1.6231679916381836,1.5325013399124146,0.3269230769230769,0.8269230769230769,0.21428571428571427,0.8571428571428571,0.0004
448,1.5721494555473328,1.5327386856079102,0.36538461538461536,0.8269230769230769,0.21428571428571427,0.8571428571428571,0.0004
449,1.5878814458847046,1.532414197921753,0.28846153846153844,0.8269230769230769,0.21428571428571427,0.8571428571428571,0.0004
450,1.546629548072815,1.5323913097381592,0.4230769230769231,0.8269230769230769,0.21428571428571427,0.8571428571428571,0.0004
451,1.5598576664924622,1.531818151473999,0.46153846153846156,0.8269230769230769,0.21428571428571427,0.8571428571428571,0.0004
452,1.5876813530921936,1.5317343473434448,0.3269230769230769,0.8269230769230769,0.21428571428571427,0.8571428571428571,0.0004
453,1.6242438554763794,1.5308958292007446,0.28846153846153844,0.8269230769230769,0.21428571428571427,0.8571428571428571,0.0004
454,1.6282772421836853,1.531266212463379,0.2692307692307692,0.8269230769230769,0.21428571428571427,0.8571428571428571,0.0004
455,1.543652594089508,1.5314487218856812,0.38461538461538464,0.8269230769230769,0.21428571428571427,0.8571428571428571,0.0004
456,1.5457968711853027,1.531888484954834,0.34615384615384615,0.8269230769230769,0.21428571428571427,0.8571428571428571,0.0004
457,1.521481454372406,1.5323288440704346,0.46153846153846156,0.8269230769230769,0.21428571428571427,0.8571428571428571,0.0004
458,1.5394683480262756,1.5316826105117798,0.4230769230769231,0.8269230769230769,0.21428571428571427,0.8571428571428571,0.0004
459,1.585500419139862,1.5316241979599,0.19230769230769232,0.8269230769230769,0.21428571428571427,0.8571428571428571,0.0004
460,1.5820401310920715,1.5314539670944214,0.3269230769230769,0.8269230769230769,0.21428571428571427,0.8571428571428571,0.0004
461,1.610710859298706,1.531667709350586,0.36538461538461536,0.8269230769230769,0.21428571428571427,0.8571428571428571,0.0004
462,1.5926311016082764,1.5321078300476074,0.2692307692307692,0.8269230769230769,0.21428571428571427,0.8571428571428571,0.0004
463,1.573910653591156,1.5323152542114258,0.36538461538461536,0.8269230769230769,0.21428571428571427,0.8571428571428571,0.0004
464,1.5879082083702087,1.5333141088485718,0.4230769230769231,0.8269230769230769,0.21428571428571427,0.8571428571428571,0.0004
465,1.5461205840110779,1.533322811126709,0.3269230769230769,0.8269230769230769,0.21428571428571427,0.8571428571428571,0.0004
466,1.5524210929870605,1.5345892906188965,0.3269230769230769,0.8269230769230769,0.21428571428571427,0.8571428571428571,0.0004
467,1.5208903551101685,1.5347082614898682,0.36538461538461536,0.8269230769230769,0.21428571428571427,0.8571428571428571,0.0004
468,1.5563876032829285,1.5352247953414917,0.2692307692307692,0.8269230769230769,0.21428571428571427,0.8571428571428571,0.0004
469,1.60222727060318,1.5358195304870605,0.3269230769230769,0.8269230769230769,0.21428571428571427,0.8571428571428571,0.0004
470,1.543883204460144,1.5367916822433472,0.34615384615384615,0.8269230769230769,0.21428571428571427,0.8571428571428571,0.0004
471,1.5327464938163757,1.5371692180633545,0.40384615384615385,0.8269230769230769,0.21428571428571427,0.8571428571428571,0.0004
472,1.5720112323760986,1.5376436710357666,0.40384615384615385,0.8269230769230769,0.21428571428571427,0.8571428571428571,0.0004
473,1.5670674443244934,1.5381027460098267,0.38461538461538464,0.8269230769230769,0.21428571428571427,0.8571428571428571,0.0004
474,1.5809367299079895,1.5381689071655273,0.28846153846153844,0.8269230769230769,0.21428571428571427,0.8571428571428571,0.0004
475,1.5977110862731934,1.5388033390045166,0.3076923076923077,0.8269230769230769,0.21428571428571427,0.8571428571428571,0.0004
476,1.5491524934768677,1.5383085012435913,0.40384615384615385,0.8269230769230769,0.21428571428571427,0.8571428571428571,0.0004
477,1.5972360968589783,1.5381616353988647,0.36538461538461536,0.8269230769230769,0.21428571428571427,0.8571428571428571,0.0004
478,1.628309190273285,1.5380468368530273,0.38461538461538464,0.8269230769230769,0.21428571428571427,0.8571428571428571,0.0004
479,1.5361324548721313,1.5381801128387451,0.3076923076923077,0.8269230769230769,0.21428571428571427,0.8571428571428571,0.0004
480,1.5750211477279663,1.538129448890686,0.38461538461538464,0.8269230769230769,0.21428571428571427,0.8571428571428571,0.0004
481,1.584622859954834,1.5378472805023193,0.28846153846153844,0.8269230769230769,0.21428571428571427,0.8571428571428571,0.0004
482,1.545501947402954,1.537569522857666,0.38461538461538464,0.8269230769230769,0.21428571428571427,0.8571428571428571,0.0004
483,1.5351693034172058,1.5373775959014893,0.40384615384615385,0.8269230769230769,0.21428571428571427,0.8571428571428571,0.0004
484,1.5733824372291565,1.5363714694976807,0.38461538461538464,0.8269230769230769,0.21428571428571427,0.8571428571428571,0.0004
485,1.5541659593582153,1.5361180305480957,0.46153846153846156,0.8269230769230769,0.21428571428571427,0.8571428571428571,0.0004
486,1.5983594059944153,1.5365946292877197,0.40384615384615385,0.8269230769230769,0.21428571428571427,0.8571428571428571,0.0004
487,1.5482940673828125,1.5364248752593994,0.38461538461538464,0.8269230769230769,0.21428571428571427,0.8571428571428571,0.0004
488,1.5362077951431274,1.5366733074188232,0.36538461538461536,0.8269230769230769,0.21428571428571427,0.8571428571428571,0.0004
489,1.5795273780822754,1.535879373550415,0.4230769230769231,0.8269230769230769,0.21428571428571427,0.8571428571428571,0.0004
490,1.5567656755447388,1.5355935096740723,0.3269230769230769,0.8269230769230769,0.21428571428571427,0.8571428571428571,0.0004
491,1.5151864886283875,1.534975290298462,0.38461538461538464,0.8269230769230769,0.21428571428571427,0.8571428571428571,0.0004
492,1.5683798789978027,1.5349372625350952,0.28846153846153844,0.8269230769230769,0.21428571428571427,0.8571428571428571,0.0004
493,1.5787374377250671,1.5346206426620483,0.3269230769230769,0.8269230769230769,0.21428571428571427,0.8571428571428571,0.0004
494,1.5304009318351746,1.5348858833312988,0.34615384615384615,0.8269230769230769,0.21428571428571427,0.8571428571428571,0.0004
495,1.5224772095680237,1.5347297191619873,0.34615384615384615,0.8269230769230769,0.21428571428571427,0.8571428571428571,0.0004
496,1.5875990986824036,1.5351060628890991,0.40384615384615385,0.8269230769230769,0.21428571428571427,0.8571428571428571,0.0004
497,1.5715451836585999,1.535254716873169,0.3269230769230769,0.8269230769230769,0.21428571428571427,0.8571428571428571,0.0004
498,1.6082457900047302,1.5359673500061035,0.3076923076923077,0.8269230769230769,0.21428571428571427,0.8571428571428571,0.0004
499,1.5713210701942444,1.5370543003082275,0.28846153846153844,0.8269230769230769,0.21428571428571427,0.8571428571428571,0.0004
500,1.6062887907028198,1.5376803874969482,0.36538461538461536,0.8269230769230769,0.21428571428571427,0.8571428571428571,0.0004
501,1.563082218170166,1.537829875946045,0.28846153846153844,0.8269230769230769,0.21428571428571427,0.8571428571428571,0.0004
502,1.5526739358901978,1.5384970903396606,0.36538461538461536,0.8269230769230769,0.21428571428571427,0.8571428571428571,0.0004
503,1.5983867049217224,1.5393903255462646,0.3269230769230769,0.8269230769230769,0.21428571428571427,0.8571428571428571,0.0004
504,1.6155545711517334,1.540325403213501,0.36538461538461536,0.8269230769230769,0.21428571428571427,0.8571428571428571,0.0004
505,1.556505024433136,1.541722297668457,0.34615384615384615,0.8269230769230769,0.21428571428571427,0.8571428571428571,0.0004
506,1.5327584743499756,1.542445421218872,0.40384615384615385,0.8269230769230769,0.21428571428571427,0.8571428571428571,0.0004
507,1.5751177072525024,1.5439870357513428,0.3269230769230769,0.8269230769230769,0.21428571428571427,0.8571428571428571,0.0004
508,1.5790738463401794,1.543914794921875,0.4423076923076923,0.8269230769230769,0.21428571428571427,0.8571428571428571,0.0004
509,1.5839502215385437,1.5440218448638916,0.36538461538461536,0.8269230769230769,0.21428571428571427,0.8571428571428571,0.0004
510,1.5343780517578125,1.5445528030395508,0.34615384615384615,0.8269230769230769,0.21428571428571427,0.8571428571428571,0.0004
511,1.6104516983032227,1.544219732284546,0.3269230769230769,0.8269230769230769,0.21428571428571427,0.8571428571428571,0.0004
512,1.5638883709907532,1.54417085647583,0.40384615384615385,0.8269230769230769,0.21428571428571427,0.8571428571428571,0.0004
513,1.5606420040130615,1.5443090200424194,0.3076923076923077,0.8269230769230769,0.21428571428571427,0.8571428571428571,0.0004
514,1.5312508940696716,1.5438038110733032,0.3076923076923077,0.8269230769230769,0.21428571428571427,0.8571428571428571,0.0004
515,1.6015682220458984,1.5433344841003418,0.36538461538461536,0.8269230769230769,0.21428571428571427,0.8571428571428571,0.0004
516,1.5885972380638123,1.5423836708068848,0.40384615384615385,0.8269230769230769,0.21428571428571427,0.8571428571428571,0.0004
517,1.5824898481369019,1.5419092178344727,0.34615384615384615,0.8269230769230769,0.21428571428571427,0.8571428571428571,0.0004
518,1.5631898045539856,1.5410029888153076,0.3076923076923077,0.8269230769230769,0.21428571428571427,0.8571428571428571,0.0004
519,1.61809504032135,1.54047429561615,0.3269230769230769,0.8269230769230769,0.21428571428571427,0.8571428571428571,0.0004
520,1.5976088047027588,1.5399665832519531,0.2692307692307692,0.8269230769230769,0.21428571428571427,0.8571428571428571,0.0004
521,1.562336802482605,1.5391581058502197,0.34615384615384615,0.8269230769230769,0.21428571428571427,0.8571428571428571,0.0004
522,1.5322484374046326,1.5385749340057373,0.40384615384615385,0.8269230769230769,0.21428571428571427,0.8571428571428571,0.0004
523,1.5788244605064392,1.537947416305542,0.40384615384615385,0.8269230769230769,0.21428571428571427,0.8571428571428571,0.0004
524,1.5865285396575928,1.5375077724456787,0.36538461538461536,0.8269230769230769,0.21428571428571427,0.8571428571428571,0.0004
525,1.5796400308609009,1.5371670722961426,0.38461538461538464,0.8269230769230769,0.21428571428571427,0.8571428571428571,0.0004
526,1.5738876461982727,1.5369727611541748,0.36538461538461536,0.8269230769230769,0.21428571428571427,0.8571428571428571,0.0004
527,1.5721939206123352,1.537003993988037,0.3076923076923077,0.8269230769230769,0.21428571428571427,0.8571428571428571,0.0004
528,1.6268454790115356,1.5367764234542847,0.36538461538461536,0.8269230769230769,0.21428571428571427,0.8571428571428571,0.0004
529,1.6160091757774353,1.5370566844940186,0.34615384615384615,0.8269230769230769,0.21428571428571427,0.8571428571428571,0.0004
530,1.6645410060882568,1.537811040878296,0.40384615384615385,0.8269230769230769,0.21428571428571427,0.8571428571428571,0.0004
531,1.64863520860672,1.5392874479293823,0.36538461538461536,0.8269230769230769,0.21428571428571427,0.8571428571428571,0.0004
532,1.5607435703277588,1.5411893129348755,0.4230769230769231,0.8269230769230769,0.21428571428571427,0.8571428571428571,0.0004
533,1.5911240577697754,1.5426243543624878,0.3076923076923077,0.8269230769230769,0.21428571428571427,0.8571428571428571,0.0004
534,1.5408779978752136,1.543447732925415,0.40384615384615385,0.8269230769230769,0.21428571428571427,0.8571428571428571,0.0004
535,1.5392891764640808,1.5430810451507568,0.3269230769230769,0.8269230769230769,0.21428571428571427,0.8571428571428571,0.0004
536,1.6045656204223633,1.542680025100708,0.36538461538461536,0.8269230769230769,0.21428571428571427,0.8571428571428571,0.0004
537,1.6047550439834595,1.5423495769500732,0.25,0.8269230769230769,0.21428571428571427,0.8571428571428571,0.0004
538,1.557903528213501,1.541544795036316,0.34615384615384615,0.8269230769230769,0.21428571428571427,0.8571428571428571,0.0004
539,1.5677844285964966,1.5398868322372437,0.36538461538461536,0.8269230769230769,0.21428571428571427,0.8571428571428571,0.0004
540,1.6046828627586365,1.5385980606079102,0.34615384615384615,0.8269230769230769,0.21428571428571427,0.8571428571428571,0.0004
541,1.574676513671875,1.5377607345581055,0.34615384615384615,0.8269230769230769,0.21428571428571427,0.8571428571428571,0.0004
542,1.5567293763160706,1.5368808507919312,0.36538461538461536,0.8269230769230769,0.21428571428571427,0.8571428571428571,0.0004
543,1.5480536818504333,1.5360361337661743,0.40384615384615385,0.8269230769230769,0.21428571428571427,0.8571428571428571,0.0004
544,1.536365270614624,1.5351661443710327,0.3076923076923077,0.8269230769230769,0.21428571428571427,0.8571428571428571,0.0004
545,1.5380567908287048,1.5344645977020264,0.3269230769230769,0.8269230769230769,0.21428571428571427,0.8571428571428571,0.0004
546,1.5750953555107117,1.5335149765014648,0.38461538461538464,0.8269230769230769,0.21428571428571427,0.8571428571428571,0.0004
547,1.603554904460907,1.5336358547210693,0.3076923076923077,0.8269230769230769,0.21428571428571427,0.8571428571428571,0.0004
548,1.5161663889884949,1.5334417819976807,0.34615384615384615,0.8269230769230769,0.21428571428571427,0.8571428571428571,0.0004
549,1.517391562461853,1.533507227897644,0.34615384615384615,0.8269230769230769,0.21428571428571427,0.8571428571428571,0.0004
550,1.5545204281806946,1.5333902835845947,0.28846153846153844,0.8269230769230769,0.21428571428571427,0.8571428571428571,0.0004
551,1.5646716356277466,1.5334362983703613,0.4230769230769231,0.8269230769230769,0.21428571428571427,0.8571428571428571,0.0004
552,1.5534949898719788,1.5331577062606812,0.40384615384615385,0.8269230769230769,0.21428571428571427,0.8571428571428571,0.0004
553,1.616442322731018,1.5331780910491943,0.34615384615384615,0.8269230769230769,0.21428571428571427,0.8571428571428571,0.0004
554,1.5899155139923096,1.5333104133605957,0.34615384615384615,0.8269230769230769,0.21428571428571427,0.8571428571428571,0.0004
555,1.6228281259536743,1.5338268280029297,0.34615384615384615,0.8269230769230769,0.21428571428571427,0.8571428571428571,0.0004
556,1.5744885206222534,1.53459894657135,0.4230769230769231,0.8269230769230769,0.21428571428571427,0.8571428571428571,0.0004
557,1.5376241207122803,1.5353450775146484,0.40384615384615385,0.8269230769230769,0.21428571428571427,0.8571428571428571,0.0004
558,1.5912671089172363,1.5361957550048828,0.34615384615384615,0.8269230769230769,0.21428571428571427,0.8571428571428571,0.0004
559,1.582038402557373,1.5372775793075562,0.36538461538461536,0.8269230769230769,0.21428571428571427,0.8571428571428571,0.0004
560,1.5469130277633667,1.5386459827423096,0.3269230769230769,0.8269230769230769,0.21428571428571427,0.8571428571428571,0.0004
561,1.6162455677986145,1.5397449731826782,0.36538461538461536,0.8269230769230769,0.21428571428571427,0.8571428571428571,0.0004
562,1.5770328640937805,1.5414389371871948,0.5,0.8269230769230769,0.21428571428571427,0.8571428571428571,0.0004
563,1.5280726552009583,1.542651891708374,0.4423076923076923,0.8269230769230769,0.21428571428571427,0.8571428571428571,0.0004
564,1.5774480104446411,1.5435898303985596,0.23076923076923078,0.8269230769230769,0.21428571428571427,0.8571428571428571,0.0004
565,1.5577282905578613,1.54366135597229,0.34615384615384615,0.8269230769230769,0.21428571428571427,0.8571428571428571,0.0004
566,1.5698426961898804,1.5432900190353394,0.4423076923076923,0.8269230769230769,0.21428571428571427,0.8571428571428571,0.0004
567,1.565761923789978,1.543395757675171,0.40384615384615385,0.8269230769230769,0.21428571428571427,0.8571428571428571,0.0004
568,1.5429245233535767,1.5427536964416504,0.36538461538461536,0.8269230769230769,0.21428571428571427,0.8571428571428571,0.0004
569,1.6248077750205994,1.5415685176849365,0.36538461538461536,0.8269230769230769,0.21428571428571427,0.8571428571428571,0.0004
570,1.611514687538147,1.54103422164917,0.34615384615384615,0.8269230769230769,0.21428571428571427,0.8571428571428571,0.0004
571,1.5653927326202393,1.5405380725860596,0.3076923076923077,0.8269230769230769,0.21428571428571427,0.8571428571428571,0.0004
572,1.5301299095153809,1.5396249294281006,0.3269230769230769,0.8269230769230769,0.21428571428571427,0.8571428571428571,0.0004
573,1.5539130568504333,1.5386751890182495,0.34615384615384615,0.8269230769230769,0.21428571428571427,0.8571428571428571,0.0004
574,1.5447078943252563,1.5369505882263184,0.4230769230769231,0.8269230769230769,0.21428571428571427,0.8571428571428571,0.0004
575,1.4993874430656433,1.5356475114822388,0.38461538461538464,0.8269230769230769,0.21428571428571427,0.8571428571428571,0.0004
576,1.5796096324920654,1.5345053672790527,0.3076923076923077,0.8269230769230769,0.21428571428571427,0.8571428571428571,0.0004
577,1.5745636224746704,1.533332347869873,0.34615384615384615,0.8269230769230769,0.21428571428571427,0.8571428571428571,0.0004
578,1.617026150226593,1.532442331314087,0.25,0.8269230769230769,0.21428571428571427,0.8571428571428571,0.0004
579,1.5367476344108582,1.532867193222046,0.36538461538461536,0.8269230769230769,0.21428571428571427,0.8571428571428571,0.0004
580,1.61380273103714,1.5328415632247925,0.46153846153846156,0.8269230769230769,0.21428571428571427,0.8571428571428571,0.0004
581,1.565931797027588,1.5329334735870361,0.38461538461538464,0.8269230769230769,0.21428571428571427,0.8571428571428571,0.0004
582,1.5453664064407349,1.5332292318344116,0.40384615384615385,0.8269230769230769,0.21428571428571427,0.8571428571428571,0.0004
583,1.5799304246902466,1.533233880996704,0.4423076923076923,0.8269230769230769,0.21428571428571427,0.8571428571428571,0.0004
584,1.596626877784729,1.5338506698608398,0.3269230769230769,0.8269230769230769,0.21428571428571427,0.8571428571428571,0.0004
585,1.5922194719314575,1.5341399908065796,0.34615384615384615,0.8269230769230769,0.21428571428571427,0.8571428571428571,0.0004
586,1.5930653810501099,1.5350391864776611,0.4230769230769231,0.8269230769230769,0.21428571428571427,0.8571428571428571,0.0004
587,1.5658348202705383,1.5352637767791748,0.3076923076923077,0.8269230769230769,0.21428571428571427,0.8571428571428571,0.0004
588,1.5279162526130676,1.535805344581604,0.38461538461538464,0.8269230769230769,0.21428571428571427,0.8571428571428571,0.0004
589,1.5998891592025757,1.5363335609436035,0.34615384615384615,0.8269230769230769,0.21428571428571427,0.8571428571428571,0.0004
590,1.51788991689682,1.537151575088501,0.46153846153846156,0.8269230769230769,0.21428571428571427,0.8571428571428571,0.0004
591,1.5862922072410583,1.5377566814422607,0.28846153846153844,0.8269230769230769,0.21428571428571427,0.8571428571428571,0.0004
592,1.5914644002914429,1.5374970436096191,0.28846153846153844,0.8269230769230769,0.21428571428571427,0.8571428571428571,0.0004
593,1.5480920672416687,1.5370547771453857,0.28846153846153844,0.8269230769230769,0.21428571428571427,0.8571428571428571,0.0004
594,1.598006248474121,1.5374233722686768,0.3269230769230769,0.8269230769230769,0.21428571428571427,0.8571428571428571,0.0004
595,1.5552871823310852,1.5369830131530762,0.38461538461538464,0.8269230769230769,0.21428571428571427,0.8571428571428571,0.0004
596,1.5550701022148132,1.5366270542144775,0.36538461538461536,0.8269230769230769,0.21428571428571427,0.8571428571428571,0.0004
597,1.5962980389595032,1.5359797477722168,0.3076923076923077,0.8269230769230769,0.21428571428571427,0.8571428571428571,0.0004
598,1.6148661375045776,1.5355751514434814,0.4423076923076923,0.8269230769230769,0.21428571428571427,0.8571428571428571,0.0004
599,1.5404115319252014,1.5355875492095947,0.46153846153846156,0.8269230769230769,0.21428571428571427,0.8571428571428571,0.0004
600,1.5552233457565308,1.5350430011749268,0.34615384615384615,0.8269230769230769,0.21428571428571427,0.8571428571428571,0.0004
601,1.5838139653205872,1.534354329109192,0.2692307692307692,0.8269230769230769,0.21428571428571427,0.8571428571428571,0.0004
602,1.5465001463890076,1.5338804721832275,0.3269230769230769,0.8269230769230769,0.21428571428571427,0.8571428571428571,0.0004
603,1.5968482494354248,1.5333466529846191,0.36538461538461536,0.8269230769230769,0.21428571428571427,0.8571428571428571,0.0004
604,1.566960096359253,1.533056616783142,0.3076923076923077,0.8269230769230769,0.21428571428571427,0.8571428571428571,0.0004
605,1.544833481311798,1.5326814651489258,0.36538461538461536,0.8269230769230769,0.21428571428571427,0.8571428571428571,0.0004
606,1.5330556631088257,1.5321438312530518,0.38461538461538464,0.8269230769230769,0.21428571428571427,0.8571428571428571,0.0004
607,1.6183583736419678,1.531484842300415,0.38461538461538464,0.8269230769230769,0.21428571428571427,0.8571428571428571,0.0004
608,1.5646361112594604,1.5312607288360596,0.36538461538461536,0.8269230769230769,0.21428571428571427,0.8571428571428571,0.0004
609,1.5513320565223694,1.5316369533538818,0.28846153846153844,0.8269230769230769,0.21428571428571427,0.8571428571428571,0.0004
610,1.5856401920318604,1.5314714908599854,0.28846153846153844,0.8269230769230769,0.21428571428571427,0.8571428571428571,0.0004
611,1.538404941558838,1.5317294597625732,0.3076923076923077,0.8269230769230769,0.21428571428571427,0.8571428571428571,0.0004
612,1.629826545715332,1.531717300415039,0.3269230769230769,0.8269230769230769,0.21428571428571427,0.8571428571428571,0.0004
613,1.5359777808189392,1.5322484970092773,0.36538461538461536,0.8269230769230769,0.21428571428571427,0.8571428571428571,0.0004
614,1.5727078318595886,1.5319020748138428,0.36538461538461536,0.8269230769230769,0.21428571428571427,0.8571428571428571,0.0004
615,1.5920541882514954,1.5322719812393188,0.36538461538461536,0.8269230769230769,0.21428571428571427,0.8571428571428571,0.0004
616,1.5471339225769043,1.5322773456573486,0.2692307692307692,0.8269230769230769,0.21428571428571427,0.8571428571428571,0.0004
617,1.5704996585845947,1.5321910381317139,0.3076923076923077,0.8269230769230769,0.21428571428571427,0.8571428571428571,0.0004
618,1.5742807388305664,1.5320723056793213,0.38461538461538464,0.8269230769230769,0.21428571428571427,0.8571428571428571,0.0004
619,1.5252821445465088,1.53194260597229,0.34615384615384615,0.8269230769230769,0.21428571428571427,0.8571428571428571,0.0004
620,1.582883358001709,1.5316715240478516,0.4423076923076923,0.8269230769230769,0.21428571428571427,0.8571428571428571,0.0004
621,1.544577717781067,1.531363606452942,0.4423076923076923,0.8269230769230769,0.21428571428571427,0.8571428571428571,0.0004
622,1.6259413361549377,1.5314072370529175,0.3269230769230769,0.8269230769230769,0.21428571428571427,0.8571428571428571,0.0004
623,1.6199365854263306,1.531211256980896,0.34615384615384615,0.8269230769230769,0.21428571428571427,0.8571428571428571,0.0004
624,1.578391432762146,1.5319700241088867,0.40384615384615385,0.8269230769230769,0.21428571428571427,0.8571428571428571,0.0004
625,1.5968545079231262,1.532245397567749,0.3269230769230769,0.8269230769230769,0.21428571428571427,0.8571428571428571,0.0004
626,1.5930741429328918,1.5328569412231445,0.3076923076923077,0.8269230769230769,0.21428571428571427,0.8571428571428571,0.0004
627,1.5438228845596313,1.5340036153793335,0.28846153846153844,0.8269230769230769,0.21428571428571427,0.8571428571428571,0.0004
628,1.5286052823066711,1.5346707105636597,0.36538461538461536,0.8269230769230769,0.21428571428571427,0.8571428571428571,0.0004
629,1.591844081878662,1.5346332788467407,0.3076923076923077,0.8269230769230769,0.21428571428571427,0.8571428571428571,0.0004
630,1.5681517124176025,1.5347745418548584,0.25,0.8269230769230769,0.21428571428571427,0.8571428571428571,0.0004
631,1.5429931282997131,1.5351029634475708,0.3269230769230769,0.8269230769230769,0.21428571428571427,0.8571428571428571,0.0004
632,1.5322925448417664,1.5348188877105713,0.36538461538461536,0.8269230769230769,0.21428571428571427,0.8571428571428571,0.0004
633,1.6233581900596619,1.5353724956512451,0.28846153846153844,0.8269230769230769,0.21428571428571427,0.8571428571428571,0.0004
634,1.5401148796081543,1.5354666709899902,0.3076923076923077,0.8269230769230769,0.21428571428571427,0.8571428571428571,0.0004
635,1.5637192726135254,1.5355467796325684,0.3269230769230769,0.8269230769230769,0.21428571428571427,0.8571428571428571,0.0004
636,1.5544395446777344,1.5354881286621094,0.36538461538461536,0.8269230769230769,0.21428571428571427,0.8571428571428571,0.0004
637,1.5544219017028809,1.5350074768066406,0.40384615384615385,0.8269230769230769,0.21428571428571427,0.8571428571428571,0.0004
638,1.535075604915619,1.5345284938812256,0.40384615384615385,0.8269230769230769,0.21428571428571427,0.8571428571428571,0.0004
639,1.5354515314102173,1.5343228578567505,0.4230769230769231,0.8269230769230769,0.21428571428571427,0.8571428571428571,0.0004
640,1.5464473962783813,1.5341991186141968,0.34615384615384615,0.8269230769230769,0.21428571428571427,0.8571428571428571,0.0004
641,1.5773782134056091,1.5336408615112305,0.34615384615384615,0.8269230769230769,0.21428571428571427,0.8571428571428571,0.0004
642,1.5900750756263733,1.5334328413009644,0.34615384615384615,0.8269230769230769,0.21428571428571427,0.8571428571428571,0.0004
643,1.5412986874580383,1.5330970287322998,0.38461538461538464,0.8269230769230769,0.21428571428571427,0.8571428571428571,0.0004
644,1.569591760635376,1.53321373462677,0.3076923076923077,0.8269230769230769,0.21428571428571427,0.8571428571428571,0.0004
645,1.5300372838974,1.5332785844802856,0.3076923076923077,0.8269230769230769,0.21428571428571427,0.8571428571428571,0.0004
646,1.5583959817886353,1.5333718061447144,0.40384615384615385,0.8269230769230769,0.21428571428571427,0.8571428571428571,0.0004
647,1.5419406294822693,1.5336834192276,0.28846153846153844,0.8269230769230769,0.21428571428571427,0.8571428571428571,0.0004
648,1.581925630569458,1.5336652994155884,0.3076923076923077,0.8269230769230769,0.21428571428571427,0.8571428571428571,0.0004
649,1.5139293670654297,1.534314513206482,0.3269230769230769,0.8269230769230769,0.21428571428571427,0.8571428571428571,0.0004
650,1.583823561668396,1.534627079963684,0.28846153846153844,0.8269230769230769,0.21428571428571427,0.8571428571428571,0.0004
651,1.5470151901245117,1.5346213579177856,0.3076923076923077,0.8269230769230769,0.21428571428571427,0.8571428571428571,0.0004
652,1.5623146295547485,1.5343444347381592,0.36538461538461536,0.8269230769230769,0.21428571428571427,0.8571428571428571,0.0004
653,1.5654085874557495,1.5345120429992676,0.40384615384615385,0.8269230769230769,0.21428571428571427,0.8571428571428571,0.0004
654,1.5495948195457458,1.5348021984100342,0.34615384615384615,0.8269230769230769,0.21428571428571427,0.8571428571428571,0.0004
655,1.5797882676124573,1.534081220626831,0.36538461538461536,0.8269230769230769,0.21428571428571427,0.8571428571428571,0.0004
656,1.579171359539032,1.534319519996643,0.3269230769230769,0.8269230769230769,0.21428571428571427,0.8571428571428571,0.0004
657,1.5483961701393127,1.5343049764633179,0.3269230769230769,0.8269230769230769,0.21428571428571427,0.8571428571428571,0.0004
658,1.567929744720459,1.534323811531067,0.28846153846153844,0.8269230769230769,0.21428571428571427,0.8571428571428571,0.0004
659,1.5707684755325317,1.5350000858306885,0.3076923076923077,0.8269230769230769,0.21428571428571427,0.8571428571428571,0.0004
660,1.5519254207611084,1.5356802940368652,0.34615384615384615,0.8269230769230769,0.21428571428571427,0.8571428571428571,0.0004
661,1.541090488433838,1.5363762378692627,0.4423076923076923,0.8269230769230769,0.21428571428571427,0.8571428571428571,0.0004
662,1.5197144150733948,1.5365920066833496,0.3076923076923077,0.8269230769230769,0.21428571428571427,0.8571428571428571,0.0004
663,1.5562596321105957,1.5372263193130493,0.36538461538461536,0.8269230769230769,0.21428571428571427,0.8571428571428571,0.0004
664,1.579160988330841,1.5373364686965942,0.34615384615384615,0.8269230769230769,0.21428571428571427,0.8571428571428571,0.0004
665,1.5678644180297852,1.5381748676300049,0.28846153846153844,0.8269230769230769,0.21428571428571427,0.8571428571428571,0.0004
666,1.5811556577682495,1.538508653640747,0.40384615384615385,0.8269230769230769,0.21428571428571427,0.8571428571428571,0.0004
667,1.592370092868805,1.538966178894043,0.36538461538461536,0.8269230769230769,0.21428571428571427,0.8571428571428571,0.0004
668,1.525042176246643,1.5394951105117798,0.38461538461538464,0.8269230769230769,0.21428571428571427,0.8571428571428571,0.0004
669,1.6026386618614197,1.539940595626831,0.4230769230769231,0.8269230769230769,0.21428571428571427,0.8571428571428571,0.0004
670,1.6504966020584106,1.5400928258895874,0.3269230769230769,0.8269230769230769,0.21428571428571427,0.8571428571428571,0.0004
671,1.6256666779518127,1.5405067205429077,0.40384615384615385,0.8269230769230769,0.21428571428571427,0.8571428571428571,0.0004
672,1.5413140654563904,1.541731834411621,0.3269230769230769,0.8269230769230769,0.21428571428571427,0.8571428571428571,0.0004
673,1.572121024131775,1.5423634052276611,0.3269230769230769,0.8269230769230769,0.21428571428571427,0.8571428571428571,0.0004
674,1.5850670337677002,1.5431026220321655,0.38461538461538464,0.8269230769230769,0.21428571428571427,0.8571428571428571,0.0004
675,1.5791577100753784,1.5431854724884033,0.34615384615384615,0.8269230769230769,0.21428571428571427,0.8571428571428571,0.0004
676,1.5707623362541199,1.5439271926879883,0.38461538461538464,0.8269230769230769,0.21428571428571427,0.8571428571428571,0.0004
677,1.5544095635414124,1.5436443090438843,0.40384615384615385,0.8269230769230769,0.21428571428571427,0.8571428571428571,0.0004
678,1.5687874555587769,1.5433396100997925,0.40384615384615385,0.8269230769230769,0.21428571428571427,0.8571428571428571,0.0004
679,1.6038903594017029,1.5431052446365356,0.3269230769230769,0.8269230769230769,0.21428571428571427,0.8571428571428571,0.0004
680,1.539138674736023,1.5428664684295654,0.38461538461538464,0.8269230769230769,0.21428571428571427,0.8571428571428571,0.0004
681,1.543486475944519,1.5420860052108765,0.34615384615384615,0.8269230769230769,0.21428571428571427,0.8571428571428571,0.0004
682,1.5229506492614746,1.541398286819458,0.34615384615384615,0.8269230769230769,0.21428571428571427,0.8571428571428571,0.0004
683,1.604495108127594,1.540176510810852,0.3269230769230769,0.8269230769230769,0.21428571428571427,0.8571428571428571,0.0004
684,1.584387719631195,1.5393004417419434,0.3269230769230769,0.8269230769230769,0.21428571428571427,0.8571428571428571,0.0004
685,1.5807680487632751,1.5388836860656738,0.34615384615384615,0.8269230769230769,0.21428571428571427,0.8571428571428571,0.0004
686,1.5352606773376465,1.538242220878601,0.40384615384615385,0.8269230769230769,0.21428571428571427,0.8571428571428571,0.0004
687,1.5407618284225464,1.5376180410385132,0.3269230769230769,0.8269230769230769,0.21428571428571427,0.8571428571428571,0.0004
688,1.5449039936065674,1.5367295742034912,0.40384615384615385,0.8269230769230769,0.21428571428571427,0.8571428571428571,0.0004
689,1.5898397564888,1.5359923839569092,0.36538461538461536,0.8269230769230769,0.21428571428571427,0.8571428571428571,0.0004
690,1.5704741477966309,1.5351247787475586,0.38461538461538464,0.8269230769230769,0.21428571428571427,0.8571428571428571,0.0004
691,1.5311299562454224,1.5348693132400513,0.36538461538461536,0.8269230769230769,0.21428571428571427,0.8571428571428571,0.0004
692,1.6180514693260193,1.535036325454712,0.36538461538461536,0.8269230769230769,0.21428571428571427,0.8571428571428571,0.0004
693,1.5565247535705566,1.5343462228775024,0.38461538461538464,0.8269230769230769,0.21428571428571427,0.8571428571428571,0.0004
694,1.4760750532150269,1.5341300964355469,0.40384615384615385,0.8269230769230769,0.21428571428571427,0.8571428571428571,0.0004
695,1.5843974351882935,1.5337117910385132,0.40384615384615385,0.8269230769230769,0.21428571428571427,0.8571428571428571,0.0004
696,1.5127578377723694,1.5343096256256104,0.28846153846153844,0.8269230769230769,0.21428571428571427,0.8571428571428571,0.0004
697,1.580151379108429,1.5341222286224365,0.34615384615384615,0.8269230769230769,0.21428571428571427,0.8571428571428571,0.0004
698,1.5720300674438477,1.5338499546051025,0.38461538461538464,0.8269230769230769,0.21428571428571427,0.8571428571428571,0.0004
699,1.6157131791114807,1.5333030223846436,0.3076923076923077,0.8269230769230769,0.21428571428571427,0.8571428571428571,0.0004
700,1.5417970418930054,1.5339076519012451,0.3076923076923077,0.8269230769230769,0.21428571428571427,0.8571428571428571,0.0004
701,1.5431076288223267,1.5338292121887207,0.3269230769230769,0.8269230769230769,0.21428571428571427,0.8571428571428571,0.0004
702,1.5671106576919556,1.5340032577514648,0.28846153846153844,0.8269230769230769,0.21428571428571427,0.8571428571428571,0.0004
703,1.5988476276397705,1.5344445705413818,0.38461538461538464,0.8269230769230769,0.21428571428571427,0.8571428571428571,0.0004
704,1.5915637612342834,1.5346848964691162,0.36538461538461536,0.8269230769230769,0.21428571428571427,0.8571428571428571,0.0004
705,1.5512517094612122,1.5348777770996094,0.36538461538461536,0.8269230769230769,0.21428571428571427,0.8571428571428571,0.0004
706,1.6091802716255188,1.5354851484298706,0.34615384615384615,0.8269230769230769,0.21428571428571427,0.8571428571428571,0.0004
707,1.5369871854782104,1.5359461307525635,0.4423076923076923,0.8269230769230769,0.21428571428571427,0.8571428571428571,0.0004
708,1.5616587400436401,1.536177158355713,0.36538461538461536,0.8269230769230769,0.21428571428571427,0.8571428571428571,0.0004
709,1.5297629237174988,1.5366177558898926,0.4230769230769231,0.8269230769230769,0.21428571428571427,0.8571428571428571,0.0004
710,1.571662724018097,1.5369473695755005,0.3269230769230769,0.8269230769230769,0.21428571428571427,0.8571428571428571,0.0004
711,1.5866070985794067,1.5375534296035767,0.38461538461538464,0.8269230769230769,0.21428571428571427,0.8571428571428571,0.0004
712,1.5676056742668152,1.5382561683654785,0.36538461538461536,0.8269230769230769,0.21428571428571427,0.8571428571428571,0.0004
713,1.531872808933258,1.5382897853851318,0.40384615384615385,0.8269230769230769,0.21428571428571427,0.8571428571428571,0.0004
714,1.5459990501403809,1.5384502410888672,0.38461538461538464,0.8269230769230769,0.21428571428571427,0.8571428571428571,0.0004
715,1.5816243886947632,1.5385804176330566,0.36538461538461536,0.8269230769230769,0.21428571428571427,0.8571428571428571,0.0004
716,1.5916486382484436,1.5392299890518188,0.40384615384615385,0.8269230769230769,0.21428571428571427,0.8571428571428571,0.0004
717,1.5955296754837036,1.5395996570587158,0.34615384615384615,0.8269230769230769,0.21428571428571427,0.8571428571428571,0.0004
718,1.525856852531433,1.5399768352508545,0.36538461538461536,0.8269230769230769,0.21428571428571427,0.8571428571428571,0.0004
719,1.5437793731689453,1.5401347875595093,0.36538461538461536,0.8269230769230769,0.21428571428571427,0.8571428571428571,0.0004
720,1.6031800508499146,1.540140151977539,0.3076923076923077,0.8269230769230769,0.21428571428571427,0.8571428571428571,0.0004
721,1.582538366317749,1.5401536226272583,0.36538461538461536,0.8269230769230769,0.21428571428571427,0.8571428571428571,0.0004
722,1.5810557007789612,1.53994882106781,0.34615384615384615,0.8269230769230769,0.21428571428571427,0.8571428571428571,0.0004
723,1.5957362651824951,1.539726734161377,0.34615384615384615,0.8269230769230769,0.21428571428571427,0.8571428571428571,0.0004
724,1.5610023140907288,1.5402133464813232,0.36538461538461536,0.8269230769230769,0.21428571428571427,0.8571428571428571,0.0004
725,1.5793184638023376,1.5401170253753662,0.36538461538461536,0.8269230769230769,0.21428571428571427,0.8571428571428571,0.0004
726,1.6184808611869812,1.5401326417922974,0.34615384615384615,0.8269230769230769,0.21428571428571427,0.8571428571428571,0.0004
727,1.5824180245399475,1.540490746498108,0.3269230769230769,0.8269230769230769,0.21428571428571427,0.8571428571428571,0.0004
728,1.595391035079956,1.5404398441314697,0.3269230769230769,0.8269230769230769,0.21428571428571427,0.8571428571428571,0.0004
729,1.5481112599372864,1.5407342910766602,0.3269230769230769,0.8269230769230769,0.21428571428571427,0.8571428571428571,0.0004
730,1.6235279440879822,1.54063880443573,0.36538461538461536,0.8269230769230769,0.21428571428571427,0.8571428571428571,0.0004
731,1.569715440273285,1.5405864715576172,0.34615384615384615,0.8269230769230769,0.21428571428571427,0.8571428571428571,0.0004
732,1.57181715965271,1.540875792503357,0.40384615384615385,0.8269230769230769,0.21428571428571427,0.8571428571428571,0.0004
733,1.5614506006240845,1.5407013893127441,0.36538461538461536,0.8269230769230769,0.21428571428571427,0.8571428571428571,0.0004
734,1.5648006796836853,1.539560079574585,0.36538461538461536,0.8269230769230769,0.21428571428571427,0.8571428571428571,0.0004
735,1.5419468879699707,1.539194107055664,0.36538461538461536,0.8269230769230769,0.21428571428571427,0.8571428571428571,0.0004
736,1.542294681072235,1.5377304553985596,0.40384615384615385,0.8269230769230769,0.21428571428571427,0.8571428571428571,0.0004
737,1.5859939455986023,1.5364294052124023,0.40384615384615385,0.8269230769230769,0.21428571428571427,0.8571428571428571,0.0004
738,1.57343190908432,1.5356258153915405,0.3269230769230769,0.8269230769230769,0.21428571428571427,0.8571428571428571,0.0004
739,1.5342790484428406,1.5345197916030884,0.38461538461538464,0.8269230769230769,0.21428571428571427,0.8571428571428571,0.0004
740,1.5933939814567566,1.5330145359039307,0.36538461538461536,0.8269230769230769,0.21428571428571427,0.8571428571428571,0.0004
741,1.569273829460144,1.5321550369262695,0.36538461538461536,0.8269230769230769,0.21428571428571427,0.8571428571428571,0.0004
742,1.5764737725257874,1.53132164478302,0.3076923076923077,0.8269230769230769,0.21428571428571427,0.8571428571428571,0.0004
743,1.5466984510421753,1.5305209159851074,0.40384615384615385,0.8269230769230769,0.21428571428571427,0.8571428571428571,0.0004
744,1.5479735732078552,1.5304204225540161,0.36538461538461536,0.8269230769230769,0.21428571428571427,0.8571428571428571,0.0004
745,1.5708730220794678,1.5304478406906128,0.36538461538461536,0.8269230769230769,0.21428571428571427,0.8571428571428571,0.0004
746,1.631088137626648,1.5303643941879272,0.3269230769230769,0.8269230769230769,0.21428571428571427,0.8571428571428571,0.0004
747,1.6070478558540344,1.5307817459106445,0.3076923076923077,0.8269230769230769,0.21428571428571427,0.8571428571428571,0.0004
748,1.5551521182060242,1.5308114290237427,0.38461538461538464,0.8269230769230769,0.21428571428571427,0.8571428571428571,0.0004
749,1.5460529923439026,1.5311143398284912,0.40384615384615385,0.8269230769230769,0.21428571428571427,0.8571428571428571,0.0004
750,1.6115721464157104,1.53195059299469,0.2692307692307692,0.8269230769230769,0.21428571428571427,0.8571428571428571,0.0004
751,1.568550169467926,1.531952977180481,0.2692307692307692,0.8269230769230769,0.21428571428571427,0.8571428571428571,0.0004
752,1.5716042518615723,1.5326677560806274,0.40384615384615385,0.8269230769230769,0.21428571428571427,0.8571428571428571,0.0004
753,1.5769636631011963,1.5332956314086914,0.36538461538461536,0.8269230769230769,0.21428571428571427,0.8571428571428571,0.0004
754,1.6150832772254944,1.5338207483291626,0.34615384615384615,0.8269230769230769,0.21428571428571427,0.8571428571428571,0.0004
755,1.5563561916351318,1.5346789360046387,0.3269230769230769,0.8269230769230769,0.21428571428571427,0.8571428571428571,0.0004
756,1.5597251057624817,1.535290241241455,0.3076923076923077,0.8269230769230769,0.21428571428571427,0.8571428571428571,0.0004
757,1.6128986477851868,1.536306381225586,0.38461538461538464,0.8269230769230769,0.21428571428571427,0.8571428571428571,0.0004
758,1.5523256659507751,1.5373386144638062,0.36538461538461536,0.8269230769230769,0.21428571428571427,0.8571428571428571,0.0004
759,1.5798678398132324,1.5374658107757568,0.3269230769230769,0.8269230769230769,0.21428571428571427,0.8571428571428571,0.0004
760,1.5237520933151245,1.537376880645752,0.40384615384615385,0.8269230769230769,0.21428571428571427,0.8571428571428571,0.0004
761,1.5238050818443298,1.536821961402893,0.36538461538461536,0.8269230769230769,0.21428571428571427,0.8571428571428571,0.0004
762,1.5588865876197815,1.5352472066879272,0.40384615384615385,0.8269230769230769,0.21428571428571427,0.8571428571428571,0.0004
763,1.5319746732711792,1.533499836921692,0.38461538461538464,0.8269230769230769,0.21428571428571427,0.8571428571428571,0.0004
764,1.595997393131256,1.5315707921981812,0.3269230769230769,0.8269230769230769,0.21428571428571427,0.8571428571428571,0.0004
765,1.530191719532013,1.5305211544036865,0.36538461538461536,0.8269230769230769,0.21428571428571427,0.8571428571428571,0.0004
766,1.6259442567825317,1.529067039489746,0.36538461538461536,0.8269230769230769,0.21428571428571427,0.8571428571428571,0.0004
767,1.5301316976547241,1.5284757614135742,0.36538461538461536,0.8269230769230769,0.21428571428571427,0.8571428571428571,0.0004
768,1.5542154908180237,1.5278892517089844,0.34615384615384615,0.8269230769230769,0.21428571428571427,0.8571428571428571,0.0004
769,1.5378156304359436,1.5269503593444824,0.3269230769230769,0.8269230769230769,0.21428571428571427,0.8571428571428571,0.0004
770,1.557942807674408,1.5260285139083862,0.3076923076923077,0.8269230769230769,0.21428571428571427,0.8571428571428571,0.0004
771,1.5358547568321228,1.525637149810791,0.3269230769230769,0.8269230769230769,0.21428571428571427,0.8571428571428571,0.0004
772,1.5425544381141663,1.5253714323043823,0.38461538461538464,0.8269230769230769,0.21428571428571427,0.8571428571428571,0.0004
773,1.5249138474464417,1.5254216194152832,0.38461538461538464,0.8269230769230769,0.21428571428571427,0.8571428571428571,0.0004
774,1.5455905199050903,1.5253140926361084,0.3269230769230769,0.8269230769230769,0.21428571428571427,0.8571428571428571,0.0004
775,1.5462366938591003,1.5259037017822266,0.3269230769230769,0.8269230769230769,0.21428571428571427,0.8571428571428571,0.0004
776,1.5961772203445435,1.5254117250442505,0.36538461538461536,0.8269230769230769,0.21428571428571427,0.8571428571428571,0.0004
777,1.6183632016181946,1.525105595588684,0.38461538461538464,0.8269230769230769,0.21428571428571427,0.8571428571428571,0.0004
778,1.5812377333641052,1.525025725364685,0.4230769230769231,0.8269230769230769,0.21428571428571427,0.8571428571428571,0.0004
779,1.5599958896636963,1.5255277156829834,0.4423076923076923,0.8269230769230769,0.21428571428571427,0.8571428571428571,0.0004
780,1.5538572072982788,1.5257748365402222,0.36538461538461536,0.8269230769230769,0.21428571428571427,0.8571428571428571,0.0004
781,1.558279037475586,1.5258928537368774,0.36538461538461536,0.8269230769230769,0.21428571428571427,0.8571428571428571,0.0004
782,1.5790698528289795,1.5264915227890015,0.38461538461538464,0.8269230769230769,0.21428571428571427,0.8571428571428571,0.0004
783,1.5545628666877747,1.5273611545562744,0.36538461538461536,0.8269230769230769,0.21428571428571427,0.8571428571428571,0.0004
784,1.5212722420692444,1.5275441408157349,0.3076923076923077,0.8269230769230769,0.21428571428571427,0.8571428571428571,0.0004
785,1.5266303420066833,1.5282189846038818,0.36538461538461536,0.8269230769230769,0.21428571428571427,0.8571428571428571,0.0004
786,1.5956795811653137,1.5281752347946167,0.34615384615384615,0.8269230769230769,0.21428571428571427,0.8571428571428571,0.0004
787,1.5515084266662598,1.5286589860916138,0.3076923076923077,0.8269230769230769,0.21428571428571427,0.8571428571428571,0.0004
788,1.586226463317871,1.5294394493103027,0.3076923076923077,0.8269230769230769,0.21428571428571427,0.8571428571428571,0.0004
789,1.5488483905792236,1.5301867723464966,0.40384615384615385,0.8269230769230769,0.21428571428571427,0.8571428571428571,0.0004
790,1.5775727033615112,1.5296075344085693,0.38461538461538464,0.8269230769230769,0.21428571428571427,0.8571428571428571,0.0004
791,1.5746141076087952,1.5300145149230957,0.38461538461538464,0.8269230769230769,0.21428571428571427,0.8571428571428571,0.0004
792,1.53410005569458,1.5300992727279663,0.40384615384615385,0.8269230769230769,0.21428571428571427,0.8571428571428571,0.0004
793,1.5836514234542847,1.530883550643921,0.4230769230769231,0.8269230769230769,0.21428571428571427,0.8571428571428571,0.0004
794,1.5520394444465637,1.5313000679016113,0.34615384615384615,0.8269230769230769,0.21428571428571427,0.8571428571428571,0.0004
795,1.5796451568603516,1.5309937000274658,0.3076923076923077,0.8269230769230769,0.21428571428571427,0.8571428571428571,0.0004
796,1.5694207549095154,1.5315862894058228,0.36538461538461536,0.8269230769230769,0.21428571428571427,0.8571428571428571,0.0004
797,1.5714429020881653,1.5314717292785645,0.36538461538461536,0.8269230769230769,0.21428571428571427,0.8571428571428571,0.0004
798,1.5791904926300049,1.5318458080291748,0.3076923076923077,0.8269230769230769,0.21428571428571427,0.8571428571428571,0.0004
799,1.588473916053772,1.5320117473602295,0.3269230769230769,0.8269230769230769,0.21428571428571427,0.8571428571428571,0.0004
800,1.5596885681152344,1.5324604511260986,0.36538461538461536,0.8269230769230769,0.21428571428571427,0.8571428571428571,0.0004
801,1.5760805010795593,1.5331965684890747,0.38461538461538464,0.8269230769230769,0.21428571428571427,0.8571428571428571,0.0004
802,1.590895175933838,1.5337882041931152,0.36538461538461536,0.8269230769230769,0.21428571428571427,0.8571428571428571,0.0004
803,1.5723832249641418,1.534205675125122,0.2692307692307692,0.8269230769230769,0.21428571428571427,0.8571428571428571,0.0004
804,1.5785971283912659,1.5345757007598877,0.38461538461538464,0.8269230769230769,0.21428571428571427,0.8571428571428571,0.0004
805,1.5618694424629211,1.5347124338150024,0.34615384615384615,0.8269230769230769,0.21428571428571427,0.8571428571428571,0.0004
806,1.5518516898155212,1.5350446701049805,0.4230769230769231,0.8269230769230769,0.21428571428571427,0.8571428571428571,0.0004
807,1.5309990048408508,1.5356138944625854,0.40384615384615385,0.8269230769230769,0.21428571428571427,0.8571428571428571,0.0004
808,1.5490657091140747,1.5353822708129883,0.40384615384615385,0.8269230769230769,0.21428571428571427,0.8571428571428571,0.0004
809,1.603825569152832,1.5350737571716309,0.28846153846153844,0.8269230769230769,0.21428571428571427,0.8571428571428571,0.0004
810,1.6109285950660706,1.5349268913269043,0.3076923076923077,0.8269230769230769,0.21428571428571427,0.8571428571428571,0.0004
811,1.582356870174408,1.5346558094024658,0.34615384615384615,0.8269230769230769,0.21428571428571427,0.8571428571428571,0.0004
812,1.5982382893562317,1.535043716430664,0.40384615384615385,0.8269230769230769,0.21428571428571427,0.8571428571428571,0.0004
813,1.5685081481933594,1.5353178977966309,0.4230769230769231,0.8269230769230769,0.21428571428571427,0.8571428571428571,0.0004
814,1.5442190170288086,1.5358264446258545,0.4423076923076923,0.8269230769230769,0.21428571428571427,0.8571428571428571,0.0004
815,1.5887710452079773,1.5358749628067017,0.36538461538461536,0.8269230769230769,0.21428571428571427,0.8571428571428571,0.0004
816,1.559256136417389,1.5362305641174316,0.38461538461538464,0.8269230769230769,0.21428571428571427,0.8571428571428571,0.0004
817,1.6145610809326172,1.5360641479492188,0.3076923076923077,0.8269230769230769,0.21428571428571427,0.8571428571428571,0.0004
818,1.576712191104889,1.5364267826080322,0.28846153846153844,0.8269230769230769,0.21428571428571427,0.8571428571428571,0.0004
819,1.554936170578003,1.5369362831115723,0.3076923076923077,0.8269230769230769,0.21428571428571427,0.8571428571428571,0.0004
820,1.5366509556770325,1.5371729135513306,0.3269230769230769,0.8269230769230769,0.21428571428571427,0.8571428571428571,0.0004
821,1.5631159543991089,1.536881685256958,0.4423076923076923,0.8269230769230769,0.21428571428571427,0.8571428571428571,0.0004
822,1.5074109435081482,1.5369786024093628,0.38461538461538464,0.8269230769230769,0.21428571428571427,0.8571428571428571,0.0004
823,1.5934630036354065,1.5366851091384888,0.28846153846153844,0.8269230769230769,0.21428571428571427,0.8571428571428571,0.0004
824,1.6300599575042725,1.5368802547454834,0.40384615384615385,0.8269230769230769,0.21428571428571427,0.8571428571428571,0.0004
825,1.5905914902687073,1.53700590133667,0.36538461538461536,0.8269230769230769,0.21428571428571427,0.8571428571428571,0.0004
826,1.5433413982391357,1.537189245223999,0.4230769230769231,0.8269230769230769,0.21428571428571427,0.8571428571428571,0.0004
827,1.5433431267738342,1.5374270677566528,0.38461538461538464,0.8269230769230769,0.21428571428571427,0.8571428571428571,0.0004
828,1.532572865486145,1.5371134281158447,0.34615384615384615,0.8269230769230769,0.21428571428571427,0.8571428571428571,0.0004
829,1.5365819334983826,1.5370492935180664,0.3269230769230769,0.8269230769230769,0.21428571428571427,0.8571428571428571,0.0004
830,1.587056279182434,1.5368759632110596,0.34615384615384615,0.8269230769230769,0.21428571428571427,0.8571428571428571,0.0004
831,1.5520771145820618,1.53701913356781,0.34615384615384615,0.8269230769230769,0.21428571428571427,0.8571428571428571,0.0004
832,1.6291759014129639,1.5369905233383179,0.38461538461538464,0.8269230769230769,0.21428571428571427,0.8571428571428571,0.0004
833,1.5975891947746277,1.5376766920089722,0.36538461538461536,0.8269230769230769,0.21428571428571427,0.8571428571428571,0.0004
834,1.515313446521759,1.537825345993042,0.40384615384615385,0.8269230769230769,0.21428571428571427,0.8571428571428571,0.0004
835,1.5866100192070007,1.53793203830719,0.36538461538461536,0.8269230769230769,0.21428571428571427,0.8571428571428571,0.0004
836,1.5861724615097046,1.5380501747131348,0.34615384615384615,0.8269230769230769,0.21428571428571427,0.8571428571428571,0.0004
837,1.567761480808258,1.5382404327392578,0.38461538461538464,0.8269230769230769,0.21428571428571427,0.8571428571428571,0.0004
838,1.5275580883026123,1.538360357284546,0.38461538461538464,0.8269230769230769,0.21428571428571427,0.8571428571428571,0.0004
839,1.5610949397087097,1.5382665395736694,0.38461538461538464,0.8269230769230769,0.21428571428571427,0.8571428571428571,0.0004
840,1.5628502368927002,1.537894606590271,0.46153846153846156,0.8269230769230769,0.21428571428571427,0.8571428571428571,0.0004
841,1.548857033252716,1.5381900072097778,0.38461538461538464,0.8269230769230769,0.21428571428571427,0.8571428571428571,0.0004
842,1.615116834640503,1.5376415252685547,0.36538461538461536,0.8269230769230769,0.21428571428571427,0.8571428571428571,0.0004
843,1.545038104057312,1.5383566617965698,0.38461538461538464,0.8269230769230769,0.21428571428571427,0.8571428571428571,0.0004
844,1.5683913230895996,1.5388060808181763,0.3076923076923077,0.8269230769230769,0.21428571428571427,0.8571428571428571,0.0004
845,1.5179033279418945,1.5384410619735718,0.3076923076923077,0.8269230769230769,0.21428571428571427,0.8571428571428571,0.0004
846,1.5404080748558044,1.538705825805664,0.36538461538461536,0.8269230769230769,0.21428571428571427,0.8571428571428571,0.0004
847,1.5872058868408203,1.5386667251586914,0.36538461538461536,0.8269230769230769,0.21428571428571427,0.8571428571428571,0.0004
848,1.6154729127883911,1.5384989976882935,0.34615384615384615,0.8269230769230769,0.21428571428571427,0.8571428571428571,0.0004
849,1.6116350889205933,1.5382890701293945,0.36538461538461536,0.8269230769230769,0.21428571428571427,0.8571428571428571,0.0004
850,1.565904676914215,1.5387420654296875,0.38461538461538464,0.8269230769230769,0.21428571428571427,0.8571428571428571,0.0004
851,1.5859721302986145,1.5387883186340332,0.36538461538461536,0.8269230769230769,0.21428571428571427,0.8571428571428571,0.0004
852,1.5893622636795044,1.5389091968536377,0.3269230769230769,0.8269230769230769,0.21428571428571427,0.8571428571428571,0.0004
853,1.5936458110809326,1.5394980907440186,0.40384615384615385,0.8269230769230769,0.21428571428571427,0.8571428571428571,0.0004
854,1.5069358944892883,1.5400798320770264,0.36538461538461536,0.8269230769230769,0.21428571428571427,0.8571428571428571,0.0004
855,1.6031700372695923,1.5397183895111084,0.40384615384615385,0.8269230769230769,0.21428571428571427,0.8571428571428571,0.0004
856,1.5728020668029785,1.5406874418258667,0.38461538461538464,0.8269230769230769,0.21428571428571427,0.8571428571428571,0.0004
857,1.6022993922233582,1.540085792541504,0.36538461538461536,0.8269230769230769,0.21428571428571427,0.8571428571428571,0.0004
858,1.544471025466919,1.5406399965286255,0.34615384615384615,0.8269230769230769,0.21428571428571427,0.8571428571428571,0.0004
859,1.5515074133872986,1.5402772426605225,0.38461538461538464,0.8269230769230769,0.21428571428571427,0.8571428571428571,0.0004
860,1.56158846616745,1.5388281345367432,0.40384615384615385,0.8269230769230769,0.21428571428571427,0.8571428571428571,0.0004
861,1.6079447269439697,1.5392742156982422,0.36538461538461536,0.8269230769230769,0.21428571428571427,0.8571428571428571,0.0004
862,1.5788714289665222,1.5392069816589355,0.34615384615384615,0.8269230769230769,0.21428571428571427,0.8571428571428571,0.0004
863,1.5345125794410706,1.5386919975280762,0.36538461538461536,0.8269230769230769,0.21428571428571427,0.8571428571428571,0.0004
864,1.5499983429908752,1.5379749536514282,0.36538461538461536,0.8269230769230769,0.21428571428571427,0.8571428571428571,0.0004
865,1.5391986966133118,1.5371944904327393,0.36538461538461536,0.8269230769230769,0.21428571428571427,0.8571428571428571,0.0004
866,1.5637927055358887,1.5362207889556885,0.34615384615384615,0.8269230769230769,0.21428571428571427,0.8571428571428571,0.0004
867,1.5929399728775024,1.5351001024246216,0.3269230769230769,0.8269230769230769,0.21428571428571427,0.8571428571428571,0.0004
868,1.5619247555732727,1.534582257270813,0.36538461538461536,0.8269230769230769,0.21428571428571427,0.8571428571428571,0.0004
869,1.5487632155418396,1.5340378284454346,0.40384615384615385,0.8269230769230769,0.21428571428571427,0.8571428571428571,0.0004
870,1.5479764342308044,1.533327579498291,0.36538461538461536,0.8269230769230769,0.21428571428571427,0.8571428571428571,0.0004
871,1.5814167261123657,1.5326188802719116,0.38461538461538464,0.8269230769230769,0.21428571428571427,0.8571428571428571,0.0004
872,1.5951045155525208,1.532534122467041,0.40384615384615385,0.8269230769230769,0.21428571428571427,0.8571428571428571,0.0004
873,1.5692685842514038,1.5321629047393799,0.3269230769230769,0.8269230769230769,0.21428571428571427,0.8571428571428571,0.0004
874,1.5778161883354187,1.5322041511535645,0.34615384615384615,0.8269230769230769,0.21428571428571427,0.8571428571428571,0.0004
875,1.5628843307495117,1.5317659378051758,0.3269230769230769,0.8269230769230769,0.21428571428571427,0.8571428571428571,0.0004
876,1.5918114185333252,1.5317084789276123,0.3269230769230769,0.8269230769230769,0.21428571428571427,0.8571428571428571,0.0004
877,1.5327513217926025,1.5320053100585938,0.34615384615384615,0.8269230769230769,0.21428571428571427,0.8571428571428571,0.0004
878,1.579208254814148,1.5319149494171143,0.3269230769230769,0.8269230769230769,0.21428571428571427,0.8571428571428571,0.0004
879,1.5679569244384766,1.5321893692016602,0.2692307692307692,0.8269230769230769,0.21428571428571427,0.8571428571428571,0.0004
880,1.5990925431251526,1.5320734977722168,0.36538461538461536,0.8269230769230769,0.21428571428571427,0.8571428571428571,0.0004
881,1.5598514080047607,1.5324122905731201,0.38461538461538464,0.8269230769230769,0.21428571428571427,0.8571428571428571,0.0004
882,1.547281801700592,1.5323283672332764,0.34615384615384615,0.8269230769230769,0.21428571428571427,0.8571428571428571,0.0004
883,1.5606012344360352,1.5325270891189575,0.36538461538461536,0.8269230769230769,0.21428571428571427,0.8571428571428571,0.0004
884,1.5394092798233032,1.5325560569763184,0.34615384615384615,0.8269230769230769,0.21428571428571427,0.8571428571428571,0.0004
885,1.5555782318115234,1.532105565071106,0.36538461538461536,0.8269230769230769,0.21428571428571427,0.8571428571428571,0.0004
886,1.5625843405723572,1.5321519374847412,0.40384615384615385,0.8269230769230769,0.21428571428571427,0.8571428571428571,0.0004
887,1.526142418384552,1.5319023132324219,0.3076923076923077,0.8269230769230769,0.21428571428571427,0.8571428571428571,0.0004
888,1.576513946056366,1.5318464040756226,0.3269230769230769,0.8269230769230769,0.21428571428571427,0.8571428571428571,0.0004
889,1.511111855506897,1.5312920808792114,0.36538461538461536,0.8269230769230769,0.21428571428571427,0.8571428571428571,0.0004
890,1.5423690676689148,1.5306057929992676,0.3269230769230769,0.8269230769230769,0.21428571428571427,0.8571428571428571,0.0004
891,1.541550099849701,1.5302923917770386,0.3076923076923077,0.8269230769230769,0.21428571428571427,0.8571428571428571,0.0004
892,1.560193657875061,1.5300047397613525,0.3269230769230769,0.8269230769230769,0.21428571428571427,0.8571428571428571,0.0004
893,1.5486902594566345,1.529920220375061,0.4423076923076923,0.8269230769230769,0.21428571428571427,0.8571428571428571,0.0004
894,1.599061369895935,1.5295355319976807,0.34615384615384615,0.8269230769230769,0.21428571428571427,0.8571428571428571,0.0004
895,1.5740180611610413,1.5300214290618896,0.36538461538461536,0.8269230769230769,0.21428571428571427,0.8571428571428571,0.0004
896,1.5498881936073303,1.5300147533416748,0.36538461538461536,0.8269230769230769,0.21428571428571427,0.8571428571428571,0.0004
897,1.5421221256256104,1.5303754806518555,0.34615384615384615,0.8269230769230769,0.21428571428571427,0.8571428571428571,0.0004
898,1.5791674256324768,1.530386209487915,0.3076923076923077,0.8269230769230769,0.21428571428571427,0.8571428571428571,0.0004
899,1.5928550958633423,1.5314323902130127,0.38461538461538464,0.8269230769230769,0.21428571428571427,0.8571428571428571,0.0004
900,1.6059749126434326,1.5311756134033203,0.4230769230769231,0.8269230769230769,0.21428571428571427,0.8571428571428571,0.0004
901,1.5604071021080017,1.5318703651428223,0.36538461538461536,0.8269230769230769,0.21428571428571427,0.8571428571428571,0.0004
902,1.5739256143569946,1.5322843790054321,0.36538461538461536,0.8269230769230769,0.21428571428571427,0.8571428571428571,0.0004
903,1.5618693828582764,1.5325133800506592,0.38461538461538464,0.8269230769230769,0.21428571428571427,0.8571428571428571,0.0004
904,1.5748831033706665,1.5330984592437744,0.36538461538461536,0.8269230769230769,0.21428571428571427,0.8571428571428571,0.0004
905,1.5272279381752014,1.5331090688705444,0.3269230769230769,0.8269230769230769,0.21428571428571427,0.8571428571428571,0.0004
906,1.5866783261299133,1.533246397972107,0.36538461538461536,0.8269230769230769,0.21428571428571427,0.8571428571428571,0.0004
907,1.5804272890090942,1.5331757068634033,0.3269230769230769,0.8269230769230769,0.21428571428571427,0.8571428571428571,0.0004
908,1.5692233443260193,1.533782720565796,0.3269230769230769,0.8269230769230769,0.21428571428571427,0.8571428571428571,0.0004
909,1.5635905265808105,1.5340572595596313,0.36538461538461536,0.8269230769230769,0.21428571428571427,0.8571428571428571,0.0004
910,1.5498056411743164,1.5334376096725464,0.36538461538461536,0.8269230769230769,0.21428571428571427,0.8571428571428571,0.0004
911,1.6455790996551514,1.5353038311004639,0.38461538461538464,0.8269230769230769,0.21428571428571427,0.8571428571428571,0.0004
912,1.558487355709076,1.5352036952972412,0.34615384615384615,0.8269230769230769,0.21428571428571427,0.8571428571428571,0.0004
913,1.541557490825653,1.5349270105361938,0.38461538461538464,0.8269230769230769,0.21428571428571427,0.8571428571428571,0.0004
914,1.5699544548988342,1.535041332244873,0.38461538461538464,0.8269230769230769,0.21428571428571427,0.8571428571428571,0.0004
915,1.553522527217865,1.5346930027008057,0.4230769230769231,0.8269230769230769,0.21428571428571427,0.8571428571428571,0.0004
916,1.5433391332626343,1.5343329906463623,0.34615384615384615,0.8269230769230769,0.21428571428571427,0.8571428571428571,0.0004
917,1.5879482626914978,1.5335557460784912,0.4423076923076923,0.8269230769230769,0.21428571428571427,0.8571428571428571,0.0004
918,1.5328800678253174,1.533035397529602,0.3076923076923077,0.8269230769230769,0.21428571428571427,0.8571428571428571,0.0004
919,1.583649218082428,1.5332155227661133,0.3076923076923077,0.8269230769230769,0.21428571428571427,0.8571428571428571,0.0004
920,1.579099953174591,1.5324289798736572,0.3076923076923077,0.8269230769230769,0.21428571428571427,0.8571428571428571,0.0004
921,1.5486488342285156,1.532131314277649,0.38461538461538464,0.8269230769230769,0.21428571428571427,0.8571428571428571,0.0004
922,1.5922690629959106,1.5320833921432495,0.34615384615384615,0.8269230769230769,0.21428571428571427,0.8571428571428571,0.0004
923,1.5332809090614319,1.5314698219299316,0.36538461538461536,0.8269230769230769,0.21428571428571427,0.8571428571428571,0.0004
924,1.5500624179840088,1.531278133392334,0.38461538461538464,0.8269230769230769,0.21428571428571427,0.8571428571428571,0.0004
925,1.6018267273902893,1.5301886796951294,0.34615384615384615,0.8269230769230769,0.21428571428571427,0.8571428571428571,0.0004
926,1.5716953873634338,1.5300840139389038,0.34615384615384615,0.8269230769230769,0.21428571428571427,0.8571428571428571,0.0004
927,1.5751464366912842,1.5295369625091553,0.34615384615384615,0.8269230769230769,0.21428571428571427,0.8571428571428571,0.0004
928,1.5700241923332214,1.5298962593078613,0.4423076923076923,0.8269230769230769,0.21428571428571427,0.8571428571428571,0.0004
929,1.6117969751358032,1.5295188426971436,0.4423076923076923,0.8269230769230769,0.21428571428571427,0.8571428571428571,0.0004
930,1.5838727951049805,1.5298244953155518,0.38461538461538464,0.8269230769230769,0.21428571428571427,0.8571428571428571,0.0004
931,1.605771243572235,1.5299561023712158,0.34615384615384615,0.8269230769230769,0.21428571428571427,0.8571428571428571,0.0004
932,1.555373728275299,1.5309478044509888,0.46153846153846156,0.8269230769230769,0.21428571428571427,0.8571428571428571,0.0004
933,1.5421594381332397,1.532027244567871,0.23076923076923078,0.8269230769230769,0.21428571428571427,0.8571428571428571,0.0004
934,1.5526189804077148,1.5325660705566406,0.28846153846153844,0.8269230769230769,0.21428571428571427,0.8571428571428571,0.0004
935,1.5874594449996948,1.5328525304794312,0.38461538461538464,0.8269230769230769,0.21428571428571427,0.8571428571428571,0.0004
936,1.5513579845428467,1.5331363677978516,0.40384615384615385,0.8269230769230769,0.21428571428571427,0.8571428571428571,0.0004
937,1.590855062007904,1.533679485321045,0.40384615384615385,0.8269230769230769,0.21428571428571427,0.8571428571428571,0.0004
938,1.6316503286361694,1.5341216325759888,0.38461538461538464,0.8269230769230769,0.21428571428571427,0.8571428571428571,0.0004
939,1.6321111917495728,1.5352402925491333,0.3076923076923077,0.8269230769230769,0.21428571428571427,0.8571428571428571,0.0004
940,1.5725637674331665,1.536064863204956,0.4423076923076923,0.8269230769230769,0.21428571428571427,0.8571428571428571,0.0004
941,1.5433235168457031,1.5364210605621338,0.38461538461538464,0.8269230769230769,0.21428571428571427,0.8571428571428571,0.0004
942,1.5501370429992676,1.5368086099624634,0.3269230769230769,0.8269230769230769,0.21428571428571427,0.8571428571428571,0.0004
943,1.5296552777290344,1.5366384983062744,0.36538461538461536,0.8269230769230769,0.21428571428571427,0.8571428571428571,0.0004
944,1.537613034248352,1.5362118482589722,0.34615384615384615,0.8269230769230769,0.21428571428571427,0.8571428571428571,0.0004
945,1.5715303421020508,1.5352745056152344,0.3269230769230769,0.8269230769230769,0.21428571428571427,0.8571428571428571,0.0004
946,1.6022667288780212,1.5346612930297852,0.34615384615384615,0.8269230769230769,0.21428571428571427,0.8571428571428571,0.0004
947,1.5726977586746216,1.5339990854263306,0.3076923076923077,0.8269230769230769,0.21428571428571427,0.8571428571428571,0.0004
948,1.5548169612884521,1.5335416793823242,0.38461538461538464,0.8269230769230769,0.21428571428571427,0.8571428571428571,0.0004
949,1.5721468925476074,1.532895565032959,0.38461538461538464,0.8269230769230769,0.21428571428571427,0.8571428571428571,0.0004
950,1.5586652159690857,1.5322712659835815,0.40384615384615385,0.8269230769230769,0.21428571428571427,0.8571428571428571,0.0004
951,1.5521705150604248,1.5314596891403198,0.38461538461538464,0.8269230769230769,0.21428571428571427,0.8571428571428571,0.0004
952,1.5367658734321594,1.5310672521591187,0.28846153846153844,0.8269230769230769,0.21428571428571427,0.8571428571428571,0.0004
953,1.5818625688552856,1.5304481983184814,0.36538461538461536,0.8269230769230769,0.21428571428571427,0.8571428571428571,0.0004
954,1.55625581741333,1.5297590494155884,0.34615384615384615,0.8269230769230769,0.21428571428571427,0.8571428571428571,0.0004
