epoch,train_loss,val_loss,train_acc_action,train_acc_status,val_acc_action,val_acc_status,learning_rate
1,1.7765964269638062,1.7623858451843262,0.3076923076923077,0.8269230769230769,0.42857142857142855,0.8571428571428571,0.0004
2,1.7630088925361633,1.7506661415100098,0.28846153846153844,0.8269230769230769,0.42857142857142855,0.8571428571428571,0.0004
3,1.7429307699203491,1.7378019094467163,0.46153846153846156,0.8269230769230769,0.35714285714285715,0.8571428571428571,0.0004
4,1.7220046520233154,1.7223234176635742,0.5192307692307693,0.8269230769230769,0.42857142857142855,0.8571428571428571,0.0004
5,1.7096989154815674,1.6950019598007202,0.46153846153846156,0.8269230769230769,0.2857142857142857,0.8571428571428571,0.0004
6,1.669979214668274,1.6932536363601685,0.38461538461538464,0.8269230769230769,0.21428571428571427,0.8571428571428571,0.0004
7,1.6437999606132507,1.6683664321899414,0.36538461538461536,0.8269230769230769,0.21428571428571427,0.8571428571428571,0.0004
8,1.6159695386886597,1.654439926147461,0.36538461538461536,0.8269230769230769,0.21428571428571427,0.8571428571428571,0.0004
9,1.5430275201797485,1.5949194431304932,0.36538461538461536,0.8269230769230769,0.21428571428571427,0.8571428571428571,0.0004
10,1.5091834664344788,1.5457158088684082,0.36538461538461536,0.8269230769230769,0.21428571428571427,0.8571428571428571,0.0004
11,1.5436205863952637,1.6080067157745361,0.36538461538461536,0.8269230769230769,0.21428571428571427,0.8571428571428571,0.0004
12,1.493539035320282,1.564331293106079,0.36538461538461536,0.8269230769230769,0.21428571428571427,0.8571428571428571,0.0004
13,1.4632811546325684,1.4907386302947998,0.36538461538461536,0.8269230769230769,0.21428571428571427,0.8571428571428571,0.0004
14,1.4801838397979736,1.4342358112335205,0.40384615384615385,0.8269230769230769,0.42857142857142855,0.8571428571428571,0.0004
15,1.3987798690795898,1.543257713317871,0.4423076923076923,0.8269230769230769,0.35714285714285715,0.8571428571428571,0.0004
16,1.3616096377372742,1.581327199935913,0.5,0.8269230769230769,0.35714285714285715,0.8571428571428571,0.0004
17,1.3414483666419983,1.4946860074996948,0.4230769230769231,0.8269230769230769,0.35714285714285715,0.8571428571428571,0.0004
18,1.4478695392608643,1.4769545793533325,0.4423076923076923,0.8269230769230769,0.35714285714285715,0.8571428571428571,0.0004
19,1.3861924409866333,1.4089462757110596,0.4807692307692308,0.8269230769230769,0.5714285714285714,0.8571428571428571,0.0004
20,1.3590533137321472,1.48002028465271,0.5961538461538461,0.8269230769230769,0.35714285714285715,0.8571428571428571,0.0004
21,1.3888670206069946,1.4902327060699463,0.4807692307692308,0.8269230769230769,0.35714285714285715,0.8571428571428571,0.0004
22,1.3745538592338562,1.5814865827560425,0.36538461538461536,0.8269230769230769,0.42857142857142855,0.8571428571428571,0.0004
23,1.3294256925582886,1.6525013446807861,0.46153846153846156,0.8269230769230769,0.35714285714285715,0.8571428571428571,0.0004
24,1.2736336588859558,1.7633684873580933,0.5769230769230769,0.8269230769230769,0.14285714285714285,0.8571428571428571,0.0004
25,1.3994779586791992,1.6133029460906982,0.5192307692307693,0.8269230769230769,0.21428571428571427,0.8571428571428571,0.0004
26,1.329195261001587,1.8424947261810303,0.4807692307692308,0.8269230769230769,0.2857142857142857,0.8571428571428571,0.0004
27,1.4287545084953308,1.3651763200759888,0.4230769230769231,0.8269230769230769,0.5,0.8571428571428571,0.0004
28,1.3451083898544312,1.363334059715271,0.5192307692307693,0.8269230769230769,0.5,0.8571428571428571,0.0004
29,1.328721523284912,1.519662857055664,0.5,0.8269230769230769,0.5714285714285714,0.8571428571428571,0.0004
30,1.3424492478370667,1.5254411697387695,0.5961538461538461,0.8269230769230769,0.6428571428571429,0.8571428571428571,0.0004
31,1.3390507698059082,1.546205997467041,0.5384615384615384,0.8269230769230769,0.5,0.8571428571428571,0.0004
32,1.343349039554596,1.4029908180236816,0.4807692307692308,0.8269230769230769,0.5714285714285714,0.8571428571428571,0.0004
33,1.2655166983604431,1.548754334449768,0.5769230769230769,0.8269230769230769,0.5714285714285714,0.8571428571428571,0.0004
34,1.392897129058838,1.583583116531372,0.46153846153846156,0.8269230769230769,0.35714285714285715,0.8571428571428571,0.0004
35,1.323152780532837,1.5194380283355713,0.5,0.8269230769230769,0.5,0.8571428571428571,0.0004
36,1.2341061234474182,1.3784518241882324,0.4807692307692308,0.8269230769230769,0.5714285714285714,0.8571428571428571,0.0004
37,1.2553326487541199,1.4679136276245117,0.5192307692307693,0.8269230769230769,0.5,0.8571428571428571,0.0004
38,1.3528088927268982,1.9265931844711304,0.5961538461538461,0.8269230769230769,0.21428571428571427,0.8571428571428571,0.0004
39,1.390143632888794,1.5656304359436035,0.5192307692307693,0.8269230769230769,0.2857142857142857,0.8571428571428571,0.0004
40,1.3196201920509338,1.677884578704834,0.5,0.8269230769230769,0.21428571428571427,0.8571428571428571,0.0004
41,1.3311368227005005,1.4344912767410278,0.46153846153846156,0.8269230769230769,0.5,0.8571428571428571,0.0004
42,1.2339110374450684,1.531278371810913,0.5,0.8269230769230769,0.5,0.8571428571428571,0.0004
43,1.3184662461280823,1.4541428089141846,0.4807692307692308,0.8269230769230769,0.5714285714285714,0.8571428571428571,0.0004
44,1.3265827894210815,1.3692810535430908,0.4807692307692308,0.8269230769230769,0.5714285714285714,0.8571428571428571,0.0004
45,1.4054253101348877,1.4544061422348022,0.4230769230769231,0.8269230769230769,0.5714285714285714,0.8571428571428571,0.0004
46,1.317074477672577,1.5656273365020752,0.4807692307692308,0.8269230769230769,0.2857142857142857,0.8571428571428571,0.0004
47,1.3260602951049805,1.5768749713897705,0.5769230769230769,0.8269230769230769,0.35714285714285715,0.8571428571428571,0.0004
48,1.265120506286621,1.4657012224197388,0.5576923076923077,0.8269230769230769,0.5,0.8571428571428571,0.0004
49,1.3337006568908691,1.4340062141418457,0.5,0.8269230769230769,0.42857142857142855,0.8571428571428571,0.0004
50,1.2720196843147278,1.5143083333969116,0.5384615384615384,0.8269230769230769,0.35714285714285715,0.8571428571428571,0.0004
51,1.2296727299690247,1.5179698467254639,0.5769230769230769,0.8269230769230769,0.2857142857142857,0.8571428571428571,0.0004
52,1.2415239810943604,1.6532062292099,0.5769230769230769,0.8269230769230769,0.14285714285714285,0.8571428571428571,0.0004
53,1.2129238843917847,1.5274074077606201,0.5,0.8269230769230769,0.35714285714285715,0.8571428571428571,0.0004
54,1.3438100814819336,1.331247091293335,0.46153846153846156,0.8269230769230769,0.2857142857142857,0.8571428571428571,0.0004
55,1.1738893389701843,1.3813632726669312,0.5961538461538461,0.8269230769230769,0.5,0.8571428571428571,0.0004
56,1.2108448147773743,1.5415607690811157,0.6730769230769231,0.8269230769230769,0.42857142857142855,0.8571428571428571,0.0004
57,1.2005254030227661,1.6171681880950928,0.7115384615384616,0.8269230769230769,0.5,0.8571428571428571,0.0004
58,1.165367841720581,1.477051019668579,0.6153846153846154,0.8269230769230769,0.5714285714285714,0.8571428571428571,0.0004
59,1.2253669500350952,1.3832392692565918,0.5961538461538461,0.8269230769230769,0.42857142857142855,0.8571428571428571,0.0004
60,1.1636239290237427,1.6238350868225098,0.6346153846153846,0.8269230769230769,0.5714285714285714,0.8571428571428571,0.0004
61,1.1300881505012512,1.8856828212738037,0.6538461538461539,0.8269230769230769,0.42857142857142855,0.8571428571428571,0.0004
62,1.2779138684272766,1.6953319311141968,0.6346153846153846,0.8269230769230769,0.5,0.8571428571428571,0.0004
63,1.234580397605896,1.8674015998840332,0.5961538461538461,0.8269230769230769,0.35714285714285715,0.8571428571428571,0.0004
64,1.1494711637496948,1.5627574920654297,0.5576923076923077,0.8269230769230769,0.5,0.8571428571428571,0.0004
65,1.2702370882034302,1.4304865598678589,0.6346153846153846,0.8269230769230769,0.5714285714285714,0.8571428571428571,0.0004
66,1.1446931958198547,1.5184104442596436,0.6730769230769231,0.8269230769230769,0.35714285714285715,0.8571428571428571,0.0004
67,1.2843559980392456,1.2703421115875244,0.5769230769230769,0.8269230769230769,0.7857142857142857,0.8571428571428571,0.0004
68,1.2075457572937012,1.3406145572662354,0.6730769230769231,0.8269230769230769,0.7142857142857143,0.8571428571428571,0.0004
69,1.1263136267662048,1.326804757118225,0.6923076923076923,0.8269230769230769,0.6428571428571429,0.8571428571428571,0.0004
70,1.2174881100654602,1.2564880847930908,0.6153846153846154,0.8269230769230769,0.5714285714285714,0.8571428571428571,0.0004
71,1.1960310339927673,1.4921122789382935,0.6538461538461539,0.8269230769230769,0.6428571428571429,0.8571428571428571,0.0004
72,1.336484670639038,1.4034888744354248,0.5961538461538461,0.8269230769230769,0.5,0.8571428571428571,0.0004
73,1.219831943511963,1.462876319885254,0.6730769230769231,0.8269230769230769,0.42857142857142855,0.8571428571428571,0.0004
74,1.1429976224899292,1.2046844959259033,0.6538461538461539,0.8269230769230769,0.7857142857142857,0.8571428571428571,0.0004
75,1.1871827840805054,1.4677382707595825,0.6538461538461539,0.8269230769230769,0.5,0.8571428571428571,0.0004
76,1.280268132686615,1.1940481662750244,0.6730769230769231,0.8269230769230769,0.7857142857142857,0.8571428571428571,0.0004
77,1.3266438245773315,1.165311336517334,0.5576923076923077,0.8269230769230769,0.7142857142857143,0.8571428571428571,0.0004
78,1.1502056121826172,1.530380129814148,0.6346153846153846,0.8269230769230769,0.42857142857142855,0.8571428571428571,0.0004
79,1.0928038358688354,1.4593079090118408,0.75,0.8269230769230769,0.5,0.8571428571428571,0.0004
80,1.007152020931244,1.6532076597213745,0.75,0.8269230769230769,0.5714285714285714,0.8571428571428571,0.0004
81,1.253812551498413,1.2707563638687134,0.6153846153846154,0.8269230769230769,0.7142857142857143,0.8571428571428571,0.0004
82,1.307096540927887,1.5026546716690063,0.6153846153846154,0.8269230769230769,0.21428571428571427,0.8571428571428571,0.0004
83,1.0431036949157715,1.3490595817565918,0.75,0.8269230769230769,0.42857142857142855,0.8571428571428571,0.0004
84,1.161828875541687,1.256488561630249,0.6153846153846154,0.8269230769230769,0.6428571428571429,0.8571428571428571,0.0004
85,1.0186647772789001,1.2800562381744385,0.7307692307692307,0.8269230769230769,0.6428571428571429,0.8571428571428571,0.0004
86,1.0771604478359222,1.091761827468872,0.6538461538461539,0.8269230769230769,0.6428571428571429,0.8571428571428571,0.0004
87,1.0316543579101562,1.1371026039123535,0.7307692307692307,0.8269230769230769,0.6428571428571429,0.8571428571428571,0.0004
88,1.157962441444397,1.2800917625427246,0.6923076923076923,0.8269230769230769,0.7142857142857143,0.8571428571428571,0.0004
89,0.9635361433029175,1.1301332712173462,0.7115384615384616,0.8269230769230769,0.7142857142857143,0.8571428571428571,0.0004
90,1.0142303705215454,1.3319320678710938,0.7307692307692307,0.8269230769230769,0.6428571428571429,0.8571428571428571,0.0004
91,1.065686285495758,1.9427751302719116,0.6538461538461539,0.8269230769230769,0.5714285714285714,0.8571428571428571,0.0004
92,1.0530056953430176,1.6215786933898926,0.6923076923076923,0.8269230769230769,0.5,0.8571428571428571,0.0004
93,0.9107312262058258,1.3371853828430176,0.75,0.8269230769230769,0.7142857142857143,0.8571428571428571,0.0004
94,1.0900793075561523,1.4309988021850586,0.6923076923076923,0.8269230769230769,0.5,0.8571428571428571,0.0004
95,0.7932601273059845,1.2369462251663208,0.8076923076923077,0.8269230769230769,0.5714285714285714,0.8571428571428571,0.0004
96,0.9992329180240631,1.6353284120559692,0.75,0.8269230769230769,0.5714285714285714,0.8571428571428571,0.0004
97,1.0730382800102234,1.5204951763153076,0.6923076923076923,0.8269230769230769,0.5714285714285714,0.8571428571428571,0.0004
98,0.8825280070304871,1.0933561325073242,0.75,0.8269230769230769,0.7142857142857143,0.8571428571428571,0.0004
99,0.9230435788631439,1.6335370540618896,0.75,0.8269230769230769,0.5714285714285714,0.8571428571428571,0.0004
100,1.0568613708019257,1.9081337451934814,0.7307692307692307,0.8269230769230769,0.5,0.8571428571428571,0.0004
101,1.1294324398040771,2.04543399810791,0.7307692307692307,0.8269230769230769,0.42857142857142855,0.8571428571428571,0.0004
102,1.1719177067279816,1.8046252727508545,0.6153846153846154,0.8269230769230769,0.5,0.8571428571428571,0.0004
103,1.1877795457839966,1.543815016746521,0.6346153846153846,0.8269230769230769,0.42857142857142855,0.8571428571428571,0.0004
104,1.0495160222053528,1.7385938167572021,0.75,0.8269230769230769,0.5714285714285714,0.8571428571428571,0.0004
105,0.8721247613430023,1.0423170328140259,0.7692307692307693,0.8461538461538461,0.7857142857142857,0.8571428571428571,0.0004
106,1.1064866185188293,0.8323483467102051,0.6538461538461539,0.8461538461538461,0.7857142857142857,0.8571428571428571,0.0004
107,1.1683528423309326,1.0318161249160767,0.6538461538461539,0.8461538461538461,0.5714285714285714,0.9285714285714286,0.0004
108,0.9440985918045044,1.3369190692901611,0.8076923076923077,0.75,0.6428571428571429,0.8571428571428571,0.0004
109,0.9925061464309692,1.2967534065246582,0.7307692307692307,0.8461538461538461,0.5714285714285714,0.8571428571428571,0.0004
110,1.0438446998596191,1.0495548248291016,0.6923076923076923,0.7692307692307693,0.6428571428571429,0.9285714285714286,0.0004
111,0.9220727682113647,0.9215970039367676,0.8076923076923077,0.8461538461538461,0.7142857142857143,0.8571428571428571,0.0004
112,1.0754289031028748,1.0689520835876465,0.7692307692307693,0.8269230769230769,0.6428571428571429,0.8571428571428571,0.0004
113,1.1293701231479645,1.1204359531402588,0.7115384615384616,0.8076923076923077,0.5714285714285714,0.8571428571428571,0.0004
114,1.032210260629654,1.3363146781921387,0.7307692307692307,0.8461538461538461,0.7142857142857143,0.8571428571428571,0.0004
115,0.8820787370204926,1.528860330581665,0.7307692307692307,0.8461538461538461,0.5714285714285714,0.7142857142857143,0.0004
116,0.9798855185508728,0.7569021582603455,0.6730769230769231,0.8461538461538461,0.7857142857142857,0.8571428571428571,0.0004
117,0.8876572549343109,1.0301918983459473,0.7884615384615384,0.8653846153846154,0.6428571428571429,0.9285714285714286,0.0004
118,1.0839967727661133,1.6093993186950684,0.75,0.7884615384615384,0.5714285714285714,0.7142857142857143,0.0004
119,1.2885450720787048,1.551509141921997,0.6346153846153846,0.8269230769230769,0.5,0.7857142857142857,0.0004
120,1.0605457425117493,1.2784383296966553,0.6730769230769231,0.8076923076923077,0.5,0.8571428571428571,0.0004
121,0.9475374221801758,1.1722114086151123,0.7307692307692307,0.8653846153846154,0.6428571428571429,0.8571428571428571,0.0004
122,0.8136298060417175,0.9526228904724121,0.8076923076923077,0.8461538461538461,0.7142857142857143,0.8571428571428571,0.0004
123,0.9648295044898987,1.0159647464752197,0.75,0.8269230769230769,0.7142857142857143,0.8571428571428571,0.0004
124,1.0949199199676514,1.0369271039962769,0.6538461538461539,0.8269230769230769,0.5,0.8571428571428571,0.0004
125,1.01422917842865,0.7827142477035522,0.7307692307692307,0.8461538461538461,0.7857142857142857,0.8571428571428571,0.0004
126,0.9181801676750183,1.3039391040802002,0.6923076923076923,0.8653846153846154,0.7142857142857143,0.8571428571428571,0.0004
127,0.9511386454105377,0.910993218421936,0.7307692307692307,0.8461538461538461,0.7142857142857143,0.8571428571428571,0.0004
128,0.9976033568382263,0.8027005195617676,0.7307692307692307,0.8269230769230769,0.7857142857142857,0.8571428571428571,0.0004
129,1.2322185337543488,1.2693935632705688,0.75,0.8269230769230769,0.5714285714285714,0.8571428571428571,0.0004
130,0.9388127326965332,0.9859374761581421,0.7692307692307693,0.8461538461538461,0.5714285714285714,0.8571428571428571,0.0004
131,0.928858757019043,1.1301885843276978,0.8076923076923077,0.8269230769230769,0.6428571428571429,0.8571428571428571,0.0004
132,0.9464313387870789,1.2453255653381348,0.7692307692307693,0.8461538461538461,0.5714285714285714,0.8571428571428571,0.0004
133,0.8830567598342896,0.9014089107513428,0.8076923076923077,0.8461538461538461,0.6428571428571429,0.9285714285714286,0.0004
134,0.9929025173187256,1.237362027168274,0.6538461538461539,0.8461538461538461,0.5,0.8571428571428571,0.0004
135,0.8606979548931122,1.1908106803894043,0.7115384615384616,0.8461538461538461,0.5,0.8571428571428571,0.0004
136,0.9203142821788788,1.49605393409729,0.7115384615384616,0.8461538461538461,0.5,0.8571428571428571,0.0004
137,0.8064256012439728,1.0387001037597656,0.75,0.8653846153846154,0.5714285714285714,0.8571428571428571,0.0004
138,1.0162956714630127,0.8744209408760071,0.75,0.8269230769230769,0.5714285714285714,0.9285714285714286,0.0004
139,0.9766707718372345,1.4142895936965942,0.6730769230769231,0.8653846153846154,0.35714285714285715,0.7857142857142857,0.0004
140,1.0883377194404602,0.8754227161407471,0.6923076923076923,0.8461538461538461,0.7142857142857143,0.8571428571428571,0.0004
141,0.9602846503257751,1.2405216693878174,0.7115384615384616,0.8653846153846154,0.5714285714285714,0.8571428571428571,0.0004
142,0.8572444319725037,1.3996031284332275,0.7692307692307693,0.8461538461538461,0.7142857142857143,0.8571428571428571,0.0004
143,1.0004584789276123,1.1818621158599854,0.75,0.8269230769230769,0.5714285714285714,0.9285714285714286,0.0004
144,0.765153706073761,0.8777278661727905,0.8269230769230769,0.8846153846153846,0.7142857142857143,0.9285714285714286,0.0004
145,0.9664592146873474,1.344294548034668,0.75,0.8653846153846154,0.6428571428571429,0.7857142857142857,0.0004
146,0.819989025592804,1.1522488594055176,0.8076923076923077,0.8653846153846154,0.5714285714285714,0.7857142857142857,0.0004
147,0.7637656331062317,0.734672486782074,0.7692307692307693,0.9230769230769231,0.7142857142857143,0.7857142857142857,0.0004
148,0.7568894028663635,0.7789111137390137,0.7884615384615384,0.9038461538461539,0.7857142857142857,0.8571428571428571,0.0004
149,0.7647989690303802,0.900070309638977,0.8653846153846154,0.8653846153846154,0.7857142857142857,0.8571428571428571,0.0004
150,0.7781672477722168,1.2368102073669434,0.7692307692307693,0.9230769230769231,0.6428571428571429,0.7857142857142857,0.0004
151,0.938856303691864,1.1229153871536255,0.7884615384615384,0.8653846153846154,0.7142857142857143,0.7857142857142857,0.0004
152,0.7961999177932739,1.5854800939559937,0.7884615384615384,0.8461538461538461,0.5,0.7857142857142857,0.0004
153,1.0009655356407166,1.0834404230117798,0.75,0.8269230769230769,0.6428571428571429,0.8571428571428571,0.0004
154,0.7697935998439789,1.1234617233276367,0.7884615384615384,0.9038461538461539,0.6428571428571429,0.7857142857142857,0.0004
155,0.6475163698196411,1.1621344089508057,0.8269230769230769,0.8653846153846154,0.6428571428571429,0.8571428571428571,0.0004
156,0.7011368870735168,1.2263582944869995,0.7692307692307693,0.9230769230769231,0.5714285714285714,0.7857142857142857,0.0004
157,0.7814318537712097,0.9903384447097778,0.7884615384615384,0.9038461538461539,0.7142857142857143,0.9285714285714286,0.0004
158,0.7868497371673584,0.8662896156311035,0.7884615384615384,0.9038461538461539,0.7142857142857143,0.9285714285714286,0.0004
159,0.6999579966068268,1.4676131010055542,0.8076923076923077,0.9230769230769231,0.5,0.7857142857142857,0.0004
160,0.8862391114234924,0.9709177613258362,0.7307692307692307,0.8269230769230769,0.6428571428571429,0.7857142857142857,0.0004
161,0.7043392956256866,0.9110881686210632,0.7884615384615384,0.9038461538461539,0.7857142857142857,0.7142857142857143,0.0004
162,0.8437974452972412,0.9455801248550415,0.7884615384615384,0.8846153846153846,0.8571428571428571,0.7142857142857143,0.0004
163,0.8681347966194153,0.9181005954742432,0.8076923076923077,0.9230769230769231,0.7857142857142857,0.8571428571428571,0.0004
164,1.024607241153717,1.1202242374420166,0.7884615384615384,0.8653846153846154,0.6428571428571429,0.7857142857142857,0.0004
165,0.920046478509903,1.3699201345443726,0.7692307692307693,0.8653846153846154,0.6428571428571429,0.8571428571428571,0.0004
166,0.9385946989059448,1.136782169342041,0.6923076923076923,0.8653846153846154,0.7142857142857143,0.6428571428571429,0.0004
167,0.9159953594207764,1.6206064224243164,0.6923076923076923,0.8269230769230769,0.35714285714285715,0.8571428571428571,0.0004
168,0.7339034080505371,0.8547929525375366,0.7692307692307693,0.9038461538461539,0.7142857142857143,0.7142857142857143,0.0004
169,0.9316367208957672,1.2694203853607178,0.7307692307692307,0.8269230769230769,0.5714285714285714,0.8571428571428571,0.0004
170,0.7936426997184753,1.4602611064910889,0.8653846153846154,0.8846153846153846,0.7142857142857143,0.7142857142857143,0.0004
171,0.9209977984428406,1.2308316230773926,0.7307692307692307,0.9038461538461539,0.7142857142857143,0.8571428571428571,0.0004
172,0.9084317684173584,1.8093920946121216,0.6923076923076923,0.9038461538461539,0.5,0.8571428571428571,0.0004
173,1.0407222509384155,1.0631046295166016,0.7115384615384616,0.9038461538461539,0.7857142857142857,0.7142857142857143,0.0004
174,0.8919267654418945,1.1281970739364624,0.8076923076923077,0.8846153846153846,0.5714285714285714,0.7142857142857143,0.0004
175,0.7714507579803467,0.7689709663391113,0.7307692307692307,0.9615384615384616,0.8571428571428571,0.7142857142857143,0.0004
176,0.7901562750339508,0.6744650602340698,0.8269230769230769,0.9230769230769231,0.8571428571428571,0.8571428571428571,0.0004
177,1.040549397468567,1.0942448377609253,0.6730769230769231,0.8653846153846154,0.5,0.7857142857142857,0.0004
178,0.8327250182628632,0.854668140411377,0.75,0.9423076923076923,0.7857142857142857,0.7142857142857143,0.0004
179,0.8402712941169739,1.0179522037506104,0.75,0.9230769230769231,0.7142857142857143,0.7142857142857143,0.0004
180,0.9910317063331604,1.3452247381210327,0.7692307692307693,0.9038461538461539,0.5,0.7857142857142857,0.0004
181,0.9366606771945953,1.2878928184509277,0.6923076923076923,0.9230769230769231,0.5714285714285714,0.9285714285714286,0.0004
182,0.8767572641372681,1.0282502174377441,0.7692307692307693,0.9038461538461539,0.5714285714285714,0.7142857142857143,0.0004
183,1.007252186536789,1.3101729154586792,0.7115384615384616,0.8269230769230769,0.7142857142857143,0.7857142857142857,0.0004
184,0.891512393951416,0.9216590523719788,0.6730769230769231,0.8846153846153846,0.7142857142857143,0.8571428571428571,0.0004
185,1.1277758479118347,0.9348852038383484,0.6538461538461539,0.8461538461538461,0.7857142857142857,0.6428571428571429,0.0004
186,0.7680363059043884,1.1495287418365479,0.7692307692307693,0.8461538461538461,0.6428571428571429,0.8571428571428571,0.0004
187,1.050794780254364,1.0139806270599365,0.6538461538461539,0.8846153846153846,0.6428571428571429,0.7857142857142857,0.0004
188,0.805893063545227,0.93170565366745,0.8461538461538461,0.9038461538461539,0.6428571428571429,0.7857142857142857,0.0004
189,0.8140570521354675,0.8600464463233948,0.7115384615384616,0.9423076923076923,0.8571428571428571,0.7857142857142857,0.0004
190,0.69605952501297,1.1459550857543945,0.8269230769230769,0.9038461538461539,0.5714285714285714,0.8571428571428571,0.0004
191,0.9088421165943146,1.055314302444458,0.7692307692307693,0.8846153846153846,0.5714285714285714,0.8571428571428571,0.0004
192,0.8217970132827759,0.9859617948532104,0.7692307692307693,0.8076923076923077,0.5714285714285714,0.8571428571428571,0.0004
193,1.0166433453559875,1.1274502277374268,0.7307692307692307,0.8461538461538461,0.7142857142857143,0.8571428571428571,0.0004
194,0.9381320774555206,1.2863084077835083,0.7692307692307693,0.8076923076923077,0.7142857142857143,0.7142857142857143,0.0004
195,0.918829083442688,1.2705798149108887,0.7115384615384616,0.8846153846153846,0.6428571428571429,0.7857142857142857,0.0004
196,0.7190568745136261,0.8499808311462402,0.8269230769230769,0.9038461538461539,0.7142857142857143,0.7857142857142857,0.0004
197,0.6679019629955292,0.9283561706542969,0.8076923076923077,0.9423076923076923,0.7142857142857143,0.8571428571428571,0.0004
198,0.8691153824329376,1.0382179021835327,0.6730769230769231,0.8461538461538461,0.6428571428571429,0.7857142857142857,0.0004
199,0.7477019727230072,0.9927835464477539,0.8076923076923077,0.8846153846153846,0.7142857142857143,0.8571428571428571,0.0004
200,0.9112524390220642,0.9959936738014221,0.75,0.8653846153846154,0.5714285714285714,0.7857142857142857,0.0004
201,0.7303600907325745,1.1489826440811157,0.8269230769230769,0.9230769230769231,0.5714285714285714,0.9285714285714286,0.0004
202,0.926237553358078,1.3989882469177246,0.75,0.8653846153846154,0.6428571428571429,0.7857142857142857,0.0004
203,0.8428941071033478,1.0170869827270508,0.7884615384615384,0.9423076923076923,0.5714285714285714,0.9285714285714286,0.0004
204,0.7222799360752106,0.9619359970092773,0.7884615384615384,0.9230769230769231,0.7142857142857143,0.8571428571428571,0.0004
205,1.1070817112922668,1.025564432144165,0.7884615384615384,0.8269230769230769,0.7142857142857143,0.7857142857142857,0.0004
206,0.7472692430019379,0.8996914029121399,0.8269230769230769,0.8461538461538461,0.7142857142857143,0.7857142857142857,0.0004
207,0.9058091640472412,1.6490464210510254,0.7692307692307693,0.8461538461538461,0.35714285714285715,0.7857142857142857,0.0004
208,0.8150345683097839,0.9776057004928589,0.75,0.8846153846153846,0.5,0.9285714285714286,0.0004
209,0.9668173789978027,1.4111921787261963,0.7307692307692307,0.7884615384615384,0.42857142857142855,0.7142857142857143,0.0004
210,0.8347475528717041,0.8563470840454102,0.8076923076923077,0.8653846153846154,0.7857142857142857,0.7857142857142857,0.0004
211,0.6760093867778778,0.8418331742286682,0.7884615384615384,0.9038461538461539,0.7142857142857143,0.7857142857142857,0.0004
212,0.6970994770526886,1.1534550189971924,0.8461538461538461,0.8846153846153846,0.5714285714285714,0.7857142857142857,0.0004
213,0.799895852804184,1.3282016515731812,0.8076923076923077,0.9230769230769231,0.6428571428571429,0.7142857142857143,0.0004
214,0.7055193781852722,1.1545896530151367,0.8269230769230769,0.8846153846153846,0.6428571428571429,0.7142857142857143,0.0004
215,1.0136545896530151,1.1806557178497314,0.6923076923076923,0.8461538461538461,0.5,0.8571428571428571,0.0004
216,0.7411539852619171,0.9285980463027954,0.8461538461538461,0.9038461538461539,0.5714285714285714,0.9285714285714286,0.0004
217,0.8615175485610962,1.4455006122589111,0.7692307692307693,0.8269230769230769,0.7857142857142857,0.8571428571428571,0.0004
218,0.7406976222991943,1.1961414813995361,0.8076923076923077,0.9615384615384616,0.6428571428571429,0.7857142857142857,0.0004
219,0.8647465109825134,1.1293988227844238,0.7692307692307693,0.8846153846153846,0.5714285714285714,0.7857142857142857,0.0004
220,0.6885362565517426,0.8739908933639526,0.8269230769230769,0.9038461538461539,0.7857142857142857,0.8571428571428571,0.0004
221,0.6619270443916321,1.2583017349243164,0.7884615384615384,0.9038461538461539,0.6428571428571429,0.7142857142857143,0.0004
222,0.817585676908493,1.1086819171905518,0.7692307692307693,0.8461538461538461,0.6428571428571429,0.8571428571428571,0.0004
223,0.6928147077560425,1.4186885356903076,0.8269230769230769,0.9230769230769231,0.6428571428571429,0.7142857142857143,0.0004
224,0.6603120565414429,1.5709556341171265,0.7692307692307693,0.8846153846153846,0.5714285714285714,0.8571428571428571,0.0004
225,0.7813509702682495,1.5226845741271973,0.7307692307692307,0.9230769230769231,0.5,0.8571428571428571,0.0004
226,0.8937161564826965,1.2725698947906494,0.7692307692307693,0.8653846153846154,0.5,0.7142857142857143,0.0004
227,0.770574152469635,1.2262942790985107,0.7692307692307693,0.9230769230769231,0.6428571428571429,0.7857142857142857,0.0004
228,0.9219743609428406,1.3099300861358643,0.7692307692307693,0.9230769230769231,0.6428571428571429,0.7857142857142857,0.0004
229,0.6565870642662048,1.165677785873413,0.7692307692307693,0.8653846153846154,0.7857142857142857,0.6428571428571429,0.0004
230,0.7569091022014618,1.4542759656906128,0.75,0.8846153846153846,0.42857142857142855,0.7857142857142857,0.0004
231,0.7232288718223572,0.7442395687103271,0.7115384615384616,0.9230769230769231,0.7857142857142857,0.6428571428571429,0.0004
232,0.7576508224010468,1.6437565088272095,0.8461538461538461,0.9230769230769231,0.42857142857142855,0.9285714285714286,0.0004
233,0.8023216724395752,0.9661065340042114,0.8076923076923077,0.9230769230769231,0.7857142857142857,0.8571428571428571,0.0004
234,0.8806835114955902,1.4989361763000488,0.7692307692307693,0.9230769230769231,0.5714285714285714,0.7857142857142857,0.0004
235,0.7824195623397827,1.3915894031524658,0.7692307692307693,0.8653846153846154,0.5,0.7857142857142857,0.0004
236,0.9114205539226532,1.3688026666641235,0.7115384615384616,0.8846153846153846,0.6428571428571429,0.8571428571428571,0.0004
237,0.622602105140686,1.521936297416687,0.8076923076923077,0.8846153846153846,0.5714285714285714,0.7857142857142857,0.0004
238,0.731247216463089,1.3601560592651367,0.8076923076923077,0.9230769230769231,0.5,0.7857142857142857,0.0004
239,0.7461065649986267,1.1785932779312134,0.75,0.9038461538461539,0.8571428571428571,0.7857142857142857,0.0004
240,0.6028615534305573,1.5252859592437744,0.8653846153846154,0.9230769230769231,0.42857142857142855,0.7142857142857143,0.0004
241,0.7484594285488129,0.7987046241760254,0.7884615384615384,0.8269230769230769,0.6428571428571429,0.9285714285714286,0.0004
242,0.7009820640087128,1.0625556707382202,0.8269230769230769,0.8846153846153846,0.7142857142857143,0.7857142857142857,0.0004
243,0.7735951244831085,1.309220790863037,0.7692307692307693,0.9230769230769231,0.7142857142857143,0.8571428571428571,0.0004
244,0.7471617460250854,0.8994971513748169,0.8076923076923077,0.9423076923076923,0.6428571428571429,0.8571428571428571,0.0004
245,0.7135153114795685,1.007612943649292,0.75,0.9230769230769231,0.6428571428571429,0.8571428571428571,0.0004
246,0.7365180552005768,1.134024977684021,0.8461538461538461,0.9038461538461539,0.6428571428571429,0.8571428571428571,0.0004
247,0.6395956575870514,1.0235333442687988,0.8269230769230769,0.9423076923076923,0.7142857142857143,0.7857142857142857,0.0004
248,0.8839105367660522,0.8275607824325562,0.75,0.8846153846153846,0.7857142857142857,0.7142857142857143,0.0004
249,0.9406239986419678,1.3015190362930298,0.7884615384615384,0.8269230769230769,0.5714285714285714,0.7142857142857143,0.0004
250,0.6780869662761688,0.9498977661132812,0.7884615384615384,0.9038461538461539,0.7142857142857143,0.7142857142857143,0.0004
251,0.6855475306510925,0.8440954089164734,0.7692307692307693,0.9615384615384616,0.8571428571428571,0.7857142857142857,0.0004
252,0.78776416182518,1.0911965370178223,0.7884615384615384,0.8846153846153846,0.7142857142857143,0.6428571428571429,0.0004
253,0.9023911356925964,0.9736799001693726,0.7307692307692307,0.8653846153846154,0.7857142857142857,0.7142857142857143,0.0004
254,0.7614771127700806,0.8705125451087952,0.7307692307692307,0.9230769230769231,0.7142857142857143,0.8571428571428571,0.0004
255,0.8074332177639008,1.3766913414001465,0.7307692307692307,0.8653846153846154,0.5,0.8571428571428571,0.0004
256,0.9111280739307404,1.3285666704177856,0.7307692307692307,0.8461538461538461,0.7857142857142857,0.7142857142857143,0.0004
257,0.7897191941738129,1.146895170211792,0.75,0.8653846153846154,0.7142857142857143,0.7857142857142857,0.0004
258,0.8082035183906555,0.9372440576553345,0.7884615384615384,0.8653846153846154,0.6428571428571429,0.8571428571428571,0.0004
259,0.7006590962409973,1.0422099828720093,0.7307692307692307,0.9423076923076923,0.6428571428571429,0.8571428571428571,0.0004
260,0.7441812753677368,1.0353672504425049,0.7692307692307693,0.8846153846153846,0.7857142857142857,0.7142857142857143,0.0004
261,0.7026639878749847,0.9018361568450928,0.7884615384615384,0.8846153846153846,0.7142857142857143,0.7142857142857143,0.0004
262,0.7780072093009949,0.8875811100006104,0.7307692307692307,0.9038461538461539,0.7857142857142857,0.7857142857142857,0.0004
263,0.8200358748435974,0.8648420572280884,0.75,0.9615384615384616,0.7142857142857143,0.8571428571428571,0.0004
264,0.6432188451290131,0.8644169569015503,0.8269230769230769,0.9038461538461539,0.7142857142857143,0.8571428571428571,0.0004
265,0.655756413936615,1.1157288551330566,0.8461538461538461,0.8846153846153846,0.5714285714285714,0.8571428571428571,0.0004
266,0.722582995891571,1.101293683052063,0.8461538461538461,0.9230769230769231,0.5714285714285714,0.7857142857142857,0.0004
267,0.6239229440689087,0.8234418630599976,0.8653846153846154,0.8653846153846154,0.7857142857142857,0.8571428571428571,0.0004
268,0.8316747844219208,0.9011138081550598,0.7884615384615384,0.9038461538461539,0.6428571428571429,1.0,0.0004
269,0.7252058386802673,1.2851519584655762,0.7884615384615384,0.8653846153846154,0.5714285714285714,0.8571428571428571,0.0004
270,0.6884900331497192,0.9936932325363159,0.8076923076923077,0.8846153846153846,0.7857142857142857,0.7857142857142857,0.0004
271,0.6878754496574402,0.7010844945907593,0.7884615384615384,0.9423076923076923,0.8571428571428571,0.8571428571428571,0.0004
272,0.7194426655769348,0.974075436592102,0.7884615384615384,0.9038461538461539,0.6428571428571429,0.8571428571428571,0.0004
273,0.7345548868179321,1.634129285812378,0.8269230769230769,0.8653846153846154,0.7142857142857143,0.7142857142857143,0.0004
274,0.7826778888702393,1.0389094352722168,0.7884615384615384,0.9038461538461539,0.9285714285714286,0.7857142857142857,0.0004
275,0.7387095987796783,0.8869439959526062,0.8846153846153846,0.8076923076923077,0.7857142857142857,0.8571428571428571,0.0004
276,0.8374733328819275,1.3720746040344238,0.7307692307692307,0.8269230769230769,0.5714285714285714,0.9285714285714286,0.0004
277,0.6055022776126862,1.5574419498443604,0.8269230769230769,0.9230769230769231,0.42857142857142855,0.6428571428571429,0.0004
278,0.880356639623642,0.7641253471374512,0.6923076923076923,0.8461538461538461,0.7857142857142857,0.7142857142857143,0.0004
279,0.8972303569316864,1.2024410963058472,0.6923076923076923,0.8269230769230769,0.5714285714285714,0.8571428571428571,0.0004
280,0.5543257594108582,1.3240100145339966,0.8653846153846154,0.9230769230769231,0.5714285714285714,0.8571428571428571,0.0004
281,0.619116872549057,0.9102885723114014,0.8653846153846154,0.8846153846153846,0.7142857142857143,0.8571428571428571,0.0004
282,0.7622890472412109,1.0558720827102661,0.7692307692307693,0.8653846153846154,0.5714285714285714,0.9285714285714286,0.0004
283,0.7101162374019623,1.305262804031372,0.7692307692307693,0.8461538461538461,0.5714285714285714,0.7142857142857143,0.0004
284,0.9207819998264313,1.1916841268539429,0.8076923076923077,0.8653846153846154,0.7142857142857143,0.7857142857142857,0.0004
285,0.7603487372398376,1.00230073928833,0.8269230769230769,0.9038461538461539,0.7142857142857143,0.7142857142857143,0.0004
286,0.6686132550239563,1.3709018230438232,0.8076923076923077,0.8653846153846154,0.6428571428571429,0.7857142857142857,0.0004
287,0.6567866802215576,1.3782341480255127,0.8076923076923077,0.8846153846153846,0.7142857142857143,0.7142857142857143,0.0004
288,0.6082382500171661,0.9287806749343872,0.8461538461538461,0.9230769230769231,0.7142857142857143,0.9285714285714286,0.0004
289,0.6101841330528259,0.923671543598175,0.8269230769230769,0.9038461538461539,0.7142857142857143,0.7142857142857143,0.0004
290,0.5998470187187195,1.01565420627594,0.8461538461538461,0.9230769230769231,0.7142857142857143,0.8571428571428571,0.0004
291,0.8240479826927185,1.4170912504196167,0.7692307692307693,0.8653846153846154,0.5714285714285714,0.9285714285714286,0.0004
292,0.5675030499696732,1.7801944017410278,0.8269230769230769,0.9423076923076923,0.7142857142857143,0.8571428571428571,0.0004
293,0.7402521371841431,0.8778417706489563,0.75,0.9038461538461539,0.7142857142857143,0.7857142857142857,0.0004
294,0.6260867416858673,1.079787015914917,0.8269230769230769,0.9423076923076923,0.7142857142857143,0.9285714285714286,0.0004
295,0.9638234376907349,0.9838697910308838,0.7307692307692307,0.9038461538461539,0.7857142857142857,0.9285714285714286,0.0004
296,0.8606722950935364,1.1982314586639404,0.8269230769230769,0.8269230769230769,0.5714285714285714,0.8571428571428571,0.0004
297,0.7137908935546875,1.0436382293701172,0.8076923076923077,0.9038461538461539,0.7142857142857143,0.8571428571428571,0.0004
298,0.6584208607673645,0.9338600039482117,0.8076923076923077,0.9230769230769231,0.7142857142857143,0.9285714285714286,0.0004
299,1.0174755454063416,1.0691323280334473,0.7307692307692307,0.8653846153846154,0.6428571428571429,0.9285714285714286,0.0004
300,0.6716099977493286,0.914290189743042,0.8846153846153846,0.8461538461538461,0.7857142857142857,0.8571428571428571,0.0004
301,0.7513982653617859,1.0226370096206665,0.7692307692307693,0.8846153846153846,0.7142857142857143,0.9285714285714286,0.0004
302,0.5940818190574646,1.0169445276260376,0.7884615384615384,0.9230769230769231,0.6428571428571429,0.9285714285714286,0.0004
303,0.9162841439247131,0.9951451420783997,0.7692307692307693,0.9230769230769231,0.6428571428571429,1.0,0.0004
304,0.7933586835861206,1.1330249309539795,0.75,0.9038461538461539,0.5714285714285714,0.8571428571428571,0.0004
305,0.6191391944885254,1.4830656051635742,0.8076923076923077,0.9615384615384616,0.5,0.8571428571428571,0.0004
306,0.7510754764080048,1.219066858291626,0.7692307692307693,0.9038461538461539,0.5,0.8571428571428571,0.0004
307,0.6115417182445526,0.787111759185791,0.8461538461538461,0.9423076923076923,0.7857142857142857,0.8571428571428571,0.0004
308,0.6632573008537292,1.0296334028244019,0.8076923076923077,0.8846153846153846,0.7142857142857143,0.8571428571428571,0.0004
309,0.731408566236496,1.6086933612823486,0.75,0.9038461538461539,0.7142857142857143,0.7857142857142857,0.0004
310,0.7951175570487976,0.678662121295929,0.75,0.9230769230769231,0.7857142857142857,0.8571428571428571,0.0004
311,0.7589059472084045,0.937362790107727,0.75,0.8846153846153846,0.7857142857142857,0.7857142857142857,0.0004
312,0.6672303974628448,1.3254547119140625,0.75,0.8846153846153846,0.7857142857142857,0.6428571428571429,0.0004
313,0.7593898475170135,1.0912574529647827,0.8653846153846154,0.8846153846153846,0.42857142857142855,0.9285714285714286,0.0004
314,0.7491732239723206,0.9239891767501831,0.7692307692307693,0.8846153846153846,0.7857142857142857,0.9285714285714286,0.0004
315,0.7532698512077332,1.0885740518569946,0.75,0.9423076923076923,0.6428571428571429,0.7857142857142857,0.0004
316,0.791461855173111,0.6189913749694824,0.7884615384615384,0.8653846153846154,1.0,0.8571428571428571,0.0004
317,0.9180153608322144,1.1311334371566772,0.7692307692307693,0.7692307692307693,0.7142857142857143,1.0,0.0004
318,0.6512957513332367,0.969555139541626,0.8076923076923077,0.8846153846153846,0.5714285714285714,1.0,0.0004
319,0.8091843128204346,1.041493535041809,0.8076923076923077,0.8461538461538461,0.7857142857142857,0.7857142857142857,0.0004
320,0.7969816029071808,0.9107881784439087,0.75,0.8269230769230769,0.6428571428571429,0.9285714285714286,0.0004
321,0.627815380692482,0.7341713309288025,0.7692307692307693,0.9423076923076923,0.9285714285714286,0.7857142857142857,0.0004
322,0.610733836889267,0.9368288516998291,0.8269230769230769,0.8846153846153846,0.7857142857142857,0.8571428571428571,0.0004
323,0.5940648019313812,0.963590145111084,0.8269230769230769,0.9038461538461539,0.5714285714285714,0.8571428571428571,0.0004
324,0.6408379375934601,0.9814086556434631,0.8461538461538461,0.8846153846153846,0.7142857142857143,0.9285714285714286,0.0004
325,0.7124005556106567,1.2107592821121216,0.8653846153846154,0.8846153846153846,0.6428571428571429,0.7857142857142857,0.0004
326,0.5540509670972824,0.9206184148788452,0.9038461538461539,0.9615384615384616,0.6428571428571429,0.8571428571428571,0.0004
327,0.7434853613376617,0.7711070775985718,0.7884615384615384,0.9230769230769231,0.6428571428571429,0.8571428571428571,0.0004
328,0.6706165075302124,0.8734725713729858,0.7692307692307693,0.9230769230769231,0.7142857142857143,0.7857142857142857,0.0004
329,0.6584216803312302,1.4268923997879028,0.8461538461538461,0.8846153846153846,0.6428571428571429,0.7857142857142857,0.0004
330,0.7151066064834595,0.754668116569519,0.7884615384615384,0.9038461538461539,0.7142857142857143,1.0,0.0004
331,0.6720581352710724,0.8923479318618774,0.8076923076923077,0.8846153846153846,0.7857142857142857,0.7142857142857143,0.0004
332,0.5948729813098907,0.9428939819335938,0.8076923076923077,0.9230769230769231,0.7142857142857143,0.8571428571428571,0.0004
333,0.8331153094768524,0.955910325050354,0.8076923076923077,0.8076923076923077,0.7857142857142857,0.7857142857142857,0.0004
334,0.6800920963287354,0.9595248699188232,0.8076923076923077,0.9230769230769231,0.7857142857142857,0.7142857142857143,0.0004
335,0.5503207892179489,1.0364720821380615,0.8269230769230769,0.9423076923076923,0.7142857142857143,0.7857142857142857,0.0004
336,0.6848530173301697,1.2365391254425049,0.7884615384615384,0.9423076923076923,0.7142857142857143,0.8571428571428571,0.0004
337,1.0669803023338318,1.2005056142807007,0.75,0.8461538461538461,0.7142857142857143,0.7142857142857143,0.0004
338,0.6138992607593536,0.9448753595352173,0.8461538461538461,0.8653846153846154,0.7857142857142857,0.7857142857142857,0.0004
339,0.803265243768692,1.697014570236206,0.7884615384615384,0.8269230769230769,0.5714285714285714,0.7142857142857143,0.0004
340,0.6507033109664917,1.3685033321380615,0.8461538461538461,0.8653846153846154,0.6428571428571429,0.8571428571428571,0.0004
341,0.5551050305366516,0.9661108255386353,0.8461538461538461,0.9423076923076923,0.7142857142857143,0.7857142857142857,0.0004
342,0.6371143758296967,1.0819106101989746,0.8269230769230769,0.9038461538461539,0.5,0.8571428571428571,0.0004
343,0.8427694141864777,1.0147764682769775,0.75,0.9423076923076923,0.7857142857142857,0.7857142857142857,0.0004
344,0.792496919631958,1.3106833696365356,0.7692307692307693,0.9423076923076923,0.6428571428571429,0.7142857142857143,0.0004
345,0.7100975215435028,1.1140867471694946,0.8269230769230769,0.8846153846153846,0.7857142857142857,0.7142857142857143,0.0004
346,0.7138350903987885,1.0014947652816772,0.7884615384615384,0.9807692307692307,0.7142857142857143,0.8571428571428571,0.0004
347,0.6440530717372894,1.1813538074493408,0.75,0.9230769230769231,0.5714285714285714,0.8571428571428571,0.0004
348,0.7079210877418518,0.8417370319366455,0.8076923076923077,0.9038461538461539,0.7142857142857143,0.8571428571428571,0.0004
349,0.46377772092819214,1.0027557611465454,0.9038461538461539,0.9615384615384616,0.7857142857142857,0.8571428571428571,0.0004
350,0.5995162725448608,1.1428500413894653,0.8461538461538461,0.9230769230769231,0.5714285714285714,0.8571428571428571,0.0004
351,0.7395109832286835,1.2486919164657593,0.75,0.8653846153846154,0.7142857142857143,0.8571428571428571,0.0004
352,0.5550596117973328,0.8998785018920898,0.8461538461538461,0.9038461538461539,0.8571428571428571,0.8571428571428571,0.0004
353,0.9391525387763977,1.339125633239746,0.7692307692307693,0.9038461538461539,0.7142857142857143,0.7857142857142857,0.0004
354,0.6434379816055298,0.8999559879302979,0.8076923076923077,0.8846153846153846,0.5714285714285714,0.8571428571428571,0.0004
355,0.6347858905792236,0.754589319229126,0.8653846153846154,0.8846153846153846,0.7142857142857143,0.8571428571428571,0.0004
356,0.7709632217884064,0.8325330018997192,0.8076923076923077,0.8846153846153846,0.7857142857142857,0.8571428571428571,0.0004
357,0.679227888584137,0.8147280216217041,0.75,0.9230769230769231,0.8571428571428571,0.8571428571428571,0.0004
358,0.5334692001342773,1.1136246919631958,0.8653846153846154,0.9038461538461539,0.6428571428571429,0.8571428571428571,0.0004
359,0.7031206488609314,1.001201868057251,0.75,0.9230769230769231,0.7142857142857143,0.9285714285714286,0.0004
360,0.5880388021469116,1.9410614967346191,0.8076923076923077,0.8846153846153846,0.5,0.7857142857142857,0.0004
361,0.7172248959541321,0.7427045106887817,0.7115384615384616,0.9038461538461539,0.7857142857142857,0.7857142857142857,0.0004
362,0.5570932626724243,0.9034708738327026,0.8269230769230769,0.9615384615384616,0.6428571428571429,0.7142857142857143,0.0004
363,0.8094809651374817,1.589585781097412,0.7692307692307693,0.9038461538461539,0.5714285714285714,0.9285714285714286,0.0004
364,0.5526705682277679,0.8058624267578125,0.8076923076923077,0.9807692307692307,0.7142857142857143,1.0,0.0004
365,0.5606833100318909,1.2100356817245483,0.8653846153846154,0.9423076923076923,0.6428571428571429,0.9285714285714286,0.0004
366,0.6174060702323914,1.1893647909164429,0.8076923076923077,0.9423076923076923,0.7857142857142857,0.7857142857142857,0.0004
367,0.6720520853996277,0.9668763875961304,0.8076923076923077,0.9038461538461539,0.6428571428571429,0.9285714285714286,0.0004
368,0.758590817451477,1.0588572025299072,0.8269230769230769,0.8269230769230769,0.7142857142857143,0.7857142857142857,0.0004
369,0.7196998596191406,1.1807255744934082,0.7692307692307693,0.9230769230769231,0.7857142857142857,0.5714285714285714,0.0004
370,0.5674310326576233,1.0219193696975708,0.8653846153846154,0.8846153846153846,0.7857142857142857,0.8571428571428571,0.0004
371,0.5986801534891129,0.8969954252243042,0.8269230769230769,0.8846153846153846,0.7857142857142857,0.7857142857142857,0.0004
372,0.7601616382598877,0.8164709210395813,0.7115384615384616,0.8846153846153846,0.7142857142857143,0.8571428571428571,0.0004
373,0.5675723850727081,1.2424938678741455,0.8269230769230769,0.9038461538461539,0.7142857142857143,0.8571428571428571,0.0004
374,0.6696823239326477,1.514464259147644,0.8269230769230769,0.9230769230769231,0.7142857142857143,0.7857142857142857,0.0004
375,0.6393281519412994,1.0112742185592651,0.8461538461538461,0.9038461538461539,0.7142857142857143,1.0,0.0004
376,0.5457112491130829,0.8272256255149841,0.8846153846153846,0.8653846153846154,0.9285714285714286,0.7857142857142857,0.0004
377,0.6246539950370789,0.6769194006919861,0.8653846153846154,0.8269230769230769,0.8571428571428571,0.7857142857142857,0.0004
378,0.6098614633083344,1.6391595602035522,0.8076923076923077,0.8653846153846154,0.5714285714285714,0.9285714285714286,0.0004
379,0.7830410301685333,1.3107705116271973,0.8076923076923077,0.9038461538461539,0.6428571428571429,0.8571428571428571,0.0004
380,0.6319046914577484,1.642208456993103,0.7884615384615384,0.8846153846153846,0.5714285714285714,0.8571428571428571,0.0004
381,0.5261540412902832,0.9200830459594727,0.8653846153846154,0.9423076923076923,0.9285714285714286,0.7857142857142857,0.0004
382,0.794954240322113,1.5208932161331177,0.7307692307692307,0.8461538461538461,0.7142857142857143,0.7142857142857143,0.0004
383,0.7087478339672089,1.4876527786254883,0.7307692307692307,0.8846153846153846,0.6428571428571429,0.7857142857142857,0.0004
384,0.48083119094371796,1.5609376430511475,0.8269230769230769,0.9615384615384616,0.5714285714285714,0.7857142857142857,0.0004
385,0.6779842376708984,0.9368677139282227,0.7692307692307693,0.9615384615384616,0.8571428571428571,0.8571428571428571,0.0004
386,0.7122650742530823,0.8358451128005981,0.8076923076923077,0.9038461538461539,0.7857142857142857,0.7857142857142857,0.0004
387,0.7395505011081696,1.35943603515625,0.7692307692307693,0.9038461538461539,0.7142857142857143,0.7857142857142857,0.0004
388,0.6087066978216171,1.4697895050048828,0.8076923076923077,0.9230769230769231,0.6428571428571429,0.8571428571428571,0.0004
389,0.6379471719264984,1.0121707916259766,0.8076923076923077,0.8846153846153846,0.7857142857142857,0.8571428571428571,0.0004
390,0.7405280470848083,1.9605045318603516,0.7884615384615384,0.9423076923076923,0.7857142857142857,0.7142857142857143,0.0004
391,0.701442301273346,1.1986942291259766,0.8461538461538461,0.8846153846153846,0.6428571428571429,0.7857142857142857,0.0004
392,0.7862720489501953,1.0794934034347534,0.8269230769230769,0.9038461538461539,0.6428571428571429,0.7142857142857143,0.0004
393,0.6097917556762695,1.5436687469482422,0.7884615384615384,0.9423076923076923,0.6428571428571429,0.6428571428571429,0.0004
394,0.6915753781795502,0.7508362531661987,0.8076923076923077,0.8653846153846154,0.7142857142857143,0.9285714285714286,0.0004
395,0.6072414666414261,0.986102283000946,0.8269230769230769,0.9038461538461539,0.7142857142857143,0.7142857142857143,0.0004
396,0.6203196942806244,0.8147264719009399,0.8269230769230769,0.9038461538461539,0.7857142857142857,0.8571428571428571,0.0004
397,1.0193234980106354,1.1744340658187866,0.7692307692307693,0.8269230769230769,0.6428571428571429,0.8571428571428571,0.0004
398,0.6711834669113159,1.1310834884643555,0.7884615384615384,0.9230769230769231,0.6428571428571429,0.7857142857142857,0.0004
399,0.905924528837204,0.8312211632728577,0.6730769230769231,0.8461538461538461,0.7857142857142857,0.7142857142857143,0.0004
400,0.7156407237052917,1.0746691226959229,0.8076923076923077,0.8846153846153846,0.7142857142857143,0.7857142857142857,0.0004
401,0.7429239749908447,0.8236900568008423,0.8653846153846154,0.8653846153846154,0.8571428571428571,0.7142857142857143,0.0004
402,0.7493847012519836,0.9399644732475281,0.7884615384615384,0.8846153846153846,0.7142857142857143,0.8571428571428571,0.0004
403,0.8870359659194946,1.041360855102539,0.8076923076923077,0.8461538461538461,0.7142857142857143,0.9285714285714286,0.0004
404,0.7461771368980408,1.2738348245620728,0.8076923076923077,0.8076923076923077,0.7142857142857143,0.8571428571428571,0.0004
405,0.809442400932312,1.1752662658691406,0.8076923076923077,0.8461538461538461,0.7142857142857143,0.7857142857142857,0.0004
406,0.7686754167079926,0.8701909780502319,0.7307692307692307,0.8846153846153846,0.7857142857142857,0.8571428571428571,0.0004
407,0.6396088898181915,0.882973313331604,0.8269230769230769,0.9038461538461539,0.7857142857142857,0.8571428571428571,0.0004
408,0.5892035961151123,0.7544784545898438,0.8846153846153846,0.8846153846153846,0.7857142857142857,0.9285714285714286,0.0004
409,0.7323943674564362,0.9838242530822754,0.8653846153846154,0.8269230769230769,0.7142857142857143,0.8571428571428571,0.0004
410,0.5989765524864197,0.9683184623718262,0.8269230769230769,0.9038461538461539,0.7142857142857143,0.7142857142857143,0.0004
411,0.7018128037452698,0.8226685523986816,0.7884615384615384,0.9038461538461539,0.7857142857142857,0.6428571428571429,0.0004
412,0.694908082485199,0.822013258934021,0.8461538461538461,0.9615384615384616,0.6428571428571429,0.9285714285714286,0.0004
413,0.9366972744464874,1.065226674079895,0.7884615384615384,0.9230769230769231,0.7142857142857143,0.9285714285714286,0.0004
414,0.7396091818809509,1.061890959739685,0.8076923076923077,0.8846153846153846,0.6428571428571429,0.7142857142857143,0.0004
415,0.6239339709281921,1.1236611604690552,0.8461538461538461,0.8846153846153846,0.7142857142857143,0.9285714285714286,0.0004
416,0.7005150318145752,1.1495846509933472,0.8461538461538461,0.9230769230769231,0.5714285714285714,0.8571428571428571,0.0004
417,0.6444694399833679,1.0702484846115112,0.8653846153846154,0.8846153846153846,0.6428571428571429,0.8571428571428571,0.0004
418,0.6388954520225525,0.9059997797012329,0.8461538461538461,0.9230769230769231,0.6428571428571429,0.9285714285714286,0.0004
419,0.7836394309997559,0.8965349793434143,0.8076923076923077,0.9230769230769231,0.7857142857142857,0.7857142857142857,0.0004
420,0.736063539981842,1.1140618324279785,0.8076923076923077,0.9038461538461539,0.7857142857142857,0.8571428571428571,0.0004
421,0.8358576893806458,1.111416220664978,0.7692307692307693,0.8461538461538461,0.7142857142857143,0.6428571428571429,0.0004
422,0.5908434987068176,1.8629366159439087,0.8269230769230769,0.9423076923076923,0.5,0.7857142857142857,0.0004
423,0.7263187766075134,0.7321863174438477,0.7884615384615384,0.9038461538461539,0.7857142857142857,0.9285714285714286,0.0004
424,0.6221638321876526,0.9730561971664429,0.8269230769230769,0.9038461538461539,0.7142857142857143,0.8571428571428571,0.0004
425,0.587798461318016,1.4476021528244019,0.8846153846153846,0.8461538461538461,0.7142857142857143,0.7857142857142857,0.0004
426,0.7031095623970032,1.0390375852584839,0.8076923076923077,0.8461538461538461,0.7857142857142857,0.7857142857142857,0.0004
427,1.0799667239189148,0.7497766017913818,0.8076923076923077,0.8269230769230769,0.7857142857142857,0.8571428571428571,0.0004
428,0.8261841833591461,0.8722684383392334,0.8076923076923077,0.8269230769230769,0.7142857142857143,0.7857142857142857,0.0004
429,0.4964669495820999,1.0614194869995117,0.7884615384615384,0.9807692307692307,0.7857142857142857,0.7142857142857143,0.0004
430,0.5950461030006409,1.2414231300354004,0.8653846153846154,0.9038461538461539,0.7142857142857143,0.8571428571428571,0.0004
431,0.6100307106971741,0.9695937633514404,0.8076923076923077,0.9230769230769231,0.6428571428571429,0.7857142857142857,0.0004
432,0.49511653184890747,1.3763833045959473,0.8653846153846154,0.9230769230769231,0.7142857142857143,0.7857142857142857,0.0004
433,0.7920371890068054,1.4844896793365479,0.75,0.8846153846153846,0.5714285714285714,0.7857142857142857,0.0004
434,0.8568032681941986,1.312686800956726,0.6923076923076923,0.9038461538461539,0.6428571428571429,0.7857142857142857,0.0004
435,0.8373438715934753,1.1788238286972046,0.8461538461538461,0.8653846153846154,0.7142857142857143,0.7857142857142857,0.0004
436,0.904326856136322,1.7091538906097412,0.7884615384615384,0.9038461538461539,0.5,0.7142857142857143,0.0004
437,0.610586941242218,1.5812442302703857,0.8269230769230769,0.8846153846153846,0.6428571428571429,0.7857142857142857,0.0004
438,1.2106769382953644,1.6634379625320435,0.7307692307692307,0.8076923076923077,0.5714285714285714,0.8571428571428571,0.0004
439,0.8511840403079987,1.8672559261322021,0.7307692307692307,0.8076923076923077,0.5,0.9285714285714286,0.0004
440,0.6296663284301758,1.313077449798584,0.8076923076923077,0.8846153846153846,0.5714285714285714,0.7142857142857143,0.0004
441,0.706076979637146,0.7118666172027588,0.8269230769230769,0.8846153846153846,0.9285714285714286,0.8571428571428571,0.0004
442,0.4912234991788864,1.4965736865997314,0.9038461538461539,0.9230769230769231,0.5714285714285714,0.7857142857142857,0.0004
443,0.7880512773990631,1.2234418392181396,0.75,0.8653846153846154,0.7142857142857143,0.9285714285714286,0.0004
444,0.7086035311222076,1.2724215984344482,0.7884615384615384,1.0,0.6428571428571429,0.8571428571428571,0.0004
445,0.6894038319587708,1.0068907737731934,0.75,0.8653846153846154,0.7857142857142857,0.8571428571428571,0.0004
446,0.6918497085571289,1.5550544261932373,0.8461538461538461,0.8846153846153846,0.5714285714285714,0.7857142857142857,0.0004
447,0.5762064158916473,0.8897214531898499,0.8076923076923077,0.9038461538461539,0.7142857142857143,0.8571428571428571,0.0004
448,0.6763642430305481,0.9851912260055542,0.8076923076923077,0.9038461538461539,0.7142857142857143,0.9285714285714286,0.0004
449,0.5749407112598419,0.874598503112793,0.9038461538461539,0.8461538461538461,0.7857142857142857,0.7142857142857143,0.0004
450,0.7823010087013245,1.3667845726013184,0.7884615384615384,0.8846153846153846,0.7142857142857143,0.7857142857142857,0.0004
451,0.6503826677799225,1.051961064338684,0.8076923076923077,0.8461538461538461,0.7142857142857143,0.9285714285714286,0.0004
452,0.7238326668739319,1.1042042970657349,0.7115384615384616,0.9423076923076923,0.7142857142857143,0.9285714285714286,0.0004
453,0.6792936623096466,0.8073149919509888,0.75,0.9615384615384616,0.7857142857142857,0.8571428571428571,0.0004
454,0.5765982866287231,0.8382723331451416,0.8653846153846154,0.9423076923076923,0.7142857142857143,0.7857142857142857,0.0004
455,0.6121722161769867,0.9387993812561035,0.8461538461538461,0.9038461538461539,0.7857142857142857,0.8571428571428571,0.0004
456,0.8734315633773804,0.9076453447341919,0.6923076923076923,0.8846153846153846,0.6428571428571429,0.7857142857142857,0.0004
457,0.8825179040431976,1.380264163017273,0.7692307692307693,0.9230769230769231,0.5,0.9285714285714286,0.0004
458,0.6979712545871735,0.8909860849380493,0.7115384615384616,0.9230769230769231,0.7857142857142857,0.8571428571428571,0.0004
459,0.5879077911376953,0.9002327919006348,0.8076923076923077,0.9230769230769231,0.7142857142857143,0.9285714285714286,0.0004
460,0.4550018012523651,1.479952335357666,0.8846153846153846,0.9615384615384616,0.6428571428571429,0.7857142857142857,0.0004
461,0.5640125274658203,0.8961807489395142,0.8846153846153846,0.8653846153846154,0.8571428571428571,0.7857142857142857,0.0004
462,0.6236253082752228,1.1026301383972168,0.8076923076923077,0.8846153846153846,0.6428571428571429,0.8571428571428571,0.0004
463,0.6905729472637177,1.5036969184875488,0.75,0.9423076923076923,0.7142857142857143,0.7857142857142857,0.0004
464,0.8857992589473724,0.9588427543640137,0.7692307692307693,0.9230769230769231,0.6428571428571429,0.8571428571428571,0.0004
465,0.6441627144813538,1.5030828714370728,0.8653846153846154,0.9423076923076923,0.5714285714285714,0.8571428571428571,0.0004
466,0.7888316214084625,1.0866930484771729,0.8269230769230769,0.8653846153846154,0.7142857142857143,0.8571428571428571,0.0004
467,0.7528420388698578,1.003555178642273,0.7884615384615384,0.8846153846153846,0.6428571428571429,0.9285714285714286,0.0004
468,1.0094408094882965,0.9422004222869873,0.75,0.8846153846153846,0.5,0.9285714285714286,0.0004
469,0.660269170999527,1.2212461233139038,0.8461538461538461,0.9230769230769231,0.5714285714285714,0.8571428571428571,0.0004
470,0.720132052898407,1.4723412990570068,0.7692307692307693,0.9230769230769231,0.6428571428571429,0.7142857142857143,0.0004
471,0.6302568912506104,1.0444774627685547,0.7884615384615384,0.8846153846153846,0.7857142857142857,0.8571428571428571,0.0004
472,0.6008415222167969,1.40822434425354,0.8269230769230769,0.8846153846153846,0.5714285714285714,0.7142857142857143,0.0004
473,0.7056186199188232,1.6015334129333496,0.75,0.9038461538461539,0.42857142857142855,0.9285714285714286,0.0004
474,0.7469674050807953,0.7499222755432129,0.8269230769230769,0.8461538461538461,0.7142857142857143,0.7857142857142857,0.0004
475,0.6079657673835754,1.3809434175491333,0.8076923076923077,0.9423076923076923,0.42857142857142855,0.7142857142857143,0.0004
476,1.0200104713439941,1.0417771339416504,0.7307692307692307,0.8846153846153846,0.7142857142857143,0.7142857142857143,0.0004
477,0.7249546647071838,1.0081663131713867,0.8076923076923077,0.9038461538461539,0.7857142857142857,0.8571428571428571,0.0004
478,0.6920426189899445,1.5409178733825684,0.8653846153846154,0.9423076923076923,0.5714285714285714,0.7857142857142857,0.0004
479,0.760606437921524,1.1526753902435303,0.8076923076923077,0.8846153846153846,0.5714285714285714,0.8571428571428571,0.0004
480,0.45884884893894196,1.4860183000564575,0.8846153846153846,0.9423076923076923,0.7857142857142857,0.6428571428571429,0.0004
481,0.7558822333812714,1.1746348142623901,0.8076923076923077,0.8846153846153846,0.5714285714285714,0.8571428571428571,0.0004
482,0.5519327819347382,1.0409481525421143,0.9038461538461539,0.9230769230769231,0.7142857142857143,0.8571428571428571,0.0004
483,0.5163071304559708,1.1748714447021484,0.8653846153846154,0.9038461538461539,0.6428571428571429,0.6428571428571429,0.0004
484,0.5809894800186157,1.3825291395187378,0.8653846153846154,0.9230769230769231,0.5714285714285714,0.8571428571428571,0.0004
485,0.9239967167377472,0.6676815748214722,0.7692307692307693,0.9230769230769231,0.8571428571428571,0.8571428571428571,0.0004
486,0.5796887278556824,1.067882776260376,0.8653846153846154,0.8846153846153846,0.6428571428571429,0.9285714285714286,0.0004
487,0.42056989669799805,1.2871980667114258,0.9230769230769231,0.9615384615384616,0.5714285714285714,0.7142857142857143,0.0004
488,0.6769020557403564,1.3872628211975098,0.8653846153846154,0.9230769230769231,0.7142857142857143,0.7142857142857143,0.0004
489,0.5386515855789185,0.9591337442398071,0.8653846153846154,0.9038461538461539,0.7857142857142857,0.7857142857142857,0.0004
490,0.5664788484573364,1.5845658779144287,0.8076923076923077,0.9423076923076923,0.42857142857142855,0.7142857142857143,0.0004
491,0.669102668762207,0.787055492401123,0.8461538461538461,0.8846153846153846,0.8571428571428571,0.7857142857142857,0.0004
492,0.7272592335939407,0.7296410799026489,0.7692307692307693,0.8846153846153846,0.6428571428571429,0.9285714285714286,0.0004
493,0.6962799727916718,0.89098060131073,0.7884615384615384,0.9615384615384616,0.7857142857142857,0.7857142857142857,0.0004
494,0.7666357755661011,0.5745193362236023,0.7884615384615384,0.8461538461538461,0.9285714285714286,0.7857142857142857,0.0004
495,0.8061307072639465,0.8894836902618408,0.75,0.8461538461538461,0.7857142857142857,0.9285714285714286,0.0004
496,0.7179850935935974,1.1296273469924927,0.8076923076923077,0.8846153846153846,0.6428571428571429,0.8571428571428571,0.0004
497,0.5140650868415833,1.10050630569458,0.8846153846153846,0.9230769230769231,0.5714285714285714,1.0,0.0004
498,0.5137017965316772,1.114859938621521,0.8269230769230769,0.9615384615384616,0.8571428571428571,0.6428571428571429,0.0004
499,0.8177716434001923,0.9512379169464111,0.8461538461538461,0.8269230769230769,0.7857142857142857,0.9285714285714286,0.0004
500,0.6022444069385529,1.1760257482528687,0.7884615384615384,0.8846153846153846,0.7142857142857143,0.8571428571428571,0.0004
501,0.4395822286605835,0.9925829172134399,0.9423076923076923,0.9230769230769231,0.5714285714285714,0.7857142857142857,0.0004
502,0.7615000903606415,0.9123392701148987,0.8269230769230769,0.9038461538461539,0.7857142857142857,0.9285714285714286,0.0004
503,0.6000473499298096,1.078558325767517,0.8846153846153846,0.8846153846153846,0.6428571428571429,0.7857142857142857,0.0004
504,0.536256343126297,1.2528527975082397,0.8461538461538461,0.8846153846153846,0.5714285714285714,0.9285714285714286,0.0004
505,0.6404011249542236,1.3100786209106445,0.75,0.9038461538461539,0.7142857142857143,0.7142857142857143,0.0004
506,0.5020461082458496,1.2393958568572998,0.8653846153846154,0.8846153846153846,0.7142857142857143,0.8571428571428571,0.0004
507,0.4761941730976105,1.257948398590088,0.8461538461538461,0.9230769230769231,0.6428571428571429,0.7142857142857143,0.0004
508,0.47299277782440186,1.4078792333602905,0.8461538461538461,0.9807692307692307,0.5714285714285714,0.7857142857142857,0.0004
509,0.6139188706874847,0.5821105241775513,0.7692307692307693,0.8846153846153846,0.9285714285714286,0.8571428571428571,0.0004
510,0.593225359916687,0.625877857208252,0.7692307692307693,0.9038461538461539,0.7857142857142857,0.8571428571428571,0.0004
511,0.4799248278141022,0.9530398845672607,0.8846153846153846,0.9038461538461539,0.7142857142857143,0.7857142857142857,0.0004
512,0.5859441459178925,0.8667293787002563,0.8076923076923077,0.8846153846153846,0.8571428571428571,0.7857142857142857,0.0004
513,0.5686564445495605,0.7640604376792908,0.8846153846153846,0.8461538461538461,0.7142857142857143,0.8571428571428571,0.0004
514,0.8338000476360321,1.0757814645767212,0.7307692307692307,0.9423076923076923,0.7142857142857143,0.7142857142857143,0.0004
515,0.4299738258123398,1.2752412557601929,0.8846153846153846,0.9423076923076923,0.6428571428571429,0.8571428571428571,0.0004
516,0.6443706154823303,1.386776328086853,0.8461538461538461,0.8461538461538461,0.6428571428571429,1.0,0.0004
517,0.7183793783187866,1.2639622688293457,0.8653846153846154,0.8846153846153846,0.6428571428571429,1.0,0.0004
518,0.6243042647838593,1.1585134267807007,0.8076923076923077,0.8846153846153846,0.7857142857142857,1.0,0.0004
519,0.5549939870834351,0.8202532529830933,0.8461538461538461,0.8653846153846154,0.7142857142857143,0.8571428571428571,0.0004
520,0.4793870151042938,2.1596741676330566,0.9230769230769231,0.9423076923076923,0.5,0.8571428571428571,0.0004
521,0.5204670429229736,1.1443800926208496,0.8846153846153846,0.8846153846153846,0.6428571428571429,0.8571428571428571,0.0004
522,0.5243782103061676,0.8727251291275024,0.8269230769230769,0.9423076923076923,0.7142857142857143,0.7857142857142857,0.0004
523,0.6095324754714966,1.381752848625183,0.8269230769230769,0.9230769230769231,0.6428571428571429,0.7142857142857143,0.0004
524,0.7157636284828186,0.8431553840637207,0.7692307692307693,0.9230769230769231,0.7857142857142857,0.8571428571428571,0.0004
525,0.5665964782238007,0.9284279942512512,0.8653846153846154,0.8461538461538461,0.7857142857142857,0.7142857142857143,0.0004
526,0.5616347938776016,1.3843433856964111,0.9423076923076923,0.8269230769230769,0.6428571428571429,0.7857142857142857,0.0004
527,0.44994020462036133,0.7193512916564941,0.8846153846153846,0.9038461538461539,0.7857142857142857,0.7857142857142857,0.0004
528,0.44606056809425354,0.7115908861160278,0.8461538461538461,0.8846153846153846,0.8571428571428571,0.7857142857142857,0.0004
529,0.5108830779790878,0.584537148475647,0.8461538461538461,0.9423076923076923,0.9285714285714286,0.7857142857142857,0.0004
530,0.8325800597667694,0.7376022338867188,0.7884615384615384,0.9038461538461539,0.7857142857142857,0.8571428571428571,0.0004
531,0.9332858622074127,0.7758393287658691,0.7884615384615384,0.9038461538461539,0.7857142857142857,0.8571428571428571,0.0004
532,0.7317944169044495,1.2861223220825195,0.8653846153846154,0.7884615384615384,0.7142857142857143,0.7857142857142857,0.0004
533,0.6378915309906006,1.2415499687194824,0.7884615384615384,0.9038461538461539,0.5714285714285714,0.8571428571428571,0.0004
534,0.4916321635246277,1.0976499319076538,0.8461538461538461,0.9230769230769231,0.7857142857142857,0.8571428571428571,0.0004
535,0.613202303647995,1.900004506111145,0.8076923076923077,0.8846153846153846,0.6428571428571429,0.7857142857142857,0.0004
536,0.46373453736305237,1.8291103839874268,0.8269230769230769,0.9423076923076923,0.6428571428571429,0.7857142857142857,0.0004
537,0.602121889591217,1.501033902168274,0.7115384615384616,0.9230769230769231,0.5714285714285714,0.7857142857142857,0.0004
538,0.746589720249176,1.6659045219421387,0.8076923076923077,0.9038461538461539,0.7142857142857143,0.7857142857142857,0.0004
539,0.5661338865756989,0.6993827819824219,0.8269230769230769,0.9038461538461539,0.8571428571428571,0.7857142857142857,0.0004
540,0.5049022734165192,1.3151732683181763,0.9230769230769231,0.9038461538461539,0.6428571428571429,0.9285714285714286,0.0004
541,0.5348073542118073,1.5140154361724854,0.8653846153846154,0.8653846153846154,0.5714285714285714,0.7857142857142857,0.0004
542,0.370594322681427,1.1953773498535156,0.9230769230769231,0.9615384615384616,0.7142857142857143,0.7857142857142857,0.0004
543,0.5900726318359375,1.1852235794067383,0.8461538461538461,0.9423076923076923,0.6428571428571429,0.9285714285714286,0.0004
544,0.6619328856468201,1.3382411003112793,0.8076923076923077,0.9038461538461539,0.6428571428571429,0.9285714285714286,0.0004
545,0.45639435946941376,1.1532107591629028,0.8846153846153846,0.9615384615384616,0.5714285714285714,0.8571428571428571,0.0004
546,0.4498593807220459,1.0776597261428833,0.8653846153846154,0.9807692307692307,0.6428571428571429,0.9285714285714286,0.0004
547,0.4862767904996872,1.052623987197876,0.8653846153846154,0.9230769230769231,0.7857142857142857,0.7857142857142857,0.0004
548,0.5626897513866425,1.3311874866485596,0.8461538461538461,0.8846153846153846,0.5714285714285714,0.8571428571428571,0.0004
549,0.5025694519281387,1.395950198173523,0.8653846153846154,0.9423076923076923,0.7142857142857143,0.8571428571428571,0.0004
550,0.4704585671424866,1.0356595516204834,0.9038461538461539,0.9038461538461539,0.7142857142857143,0.7142857142857143,0.0004
551,0.4566505700349808,2.33343768119812,0.9423076923076923,0.8653846153846154,0.5714285714285714,0.8571428571428571,0.0004
552,0.6802922189235687,1.0640201568603516,0.8846153846153846,0.8846153846153846,0.5714285714285714,0.7857142857142857,0.0004
553,0.828119307756424,1.6879470348358154,0.8461538461538461,0.9230769230769231,0.5714285714285714,0.8571428571428571,0.0004
554,0.46755199134349823,0.9359679222106934,0.8846153846153846,0.9230769230769231,0.7857142857142857,0.7142857142857143,0.0004
555,0.5320181250572205,1.6581621170043945,0.8269230769230769,0.9038461538461539,0.6428571428571429,0.7857142857142857,0.0004
556,0.547225296497345,0.9342917203903198,0.8846153846153846,0.8461538461538461,0.7857142857142857,0.9285714285714286,0.0004
557,0.7307751774787903,1.0393797159194946,0.7692307692307693,0.8846153846153846,0.6428571428571429,0.9285714285714286,0.0004
558,0.4297590106725693,1.3066434860229492,0.8653846153846154,0.9615384615384616,0.7142857142857143,0.6428571428571429,0.0004
559,0.9740247130393982,1.1046884059906006,0.75,0.8653846153846154,0.7142857142857143,0.9285714285714286,0.0004
560,0.6514925956726074,1.2798418998718262,0.8076923076923077,0.9615384615384616,0.6428571428571429,0.7857142857142857,0.0004
561,0.41887836158275604,1.2343571186065674,0.8846153846153846,0.9230769230769231,0.7857142857142857,0.8571428571428571,0.0004
562,0.48743827641010284,0.9005218148231506,0.8846153846153846,0.9423076923076923,0.6428571428571429,0.8571428571428571,0.0004
563,0.59271040558815,1.4840673208236694,0.8461538461538461,0.9423076923076923,0.7142857142857143,0.9285714285714286,0.0004
564,0.4298226982355118,1.2353588342666626,0.9038461538461539,0.9038461538461539,0.7857142857142857,0.7857142857142857,0.0004
565,0.4229222983121872,0.8460415005683899,0.8269230769230769,0.9807692307692307,0.7142857142857143,0.7857142857142857,0.0004
566,0.518196314573288,0.9650288820266724,0.8461538461538461,0.9423076923076923,0.7142857142857143,0.7142857142857143,0.0004
567,0.6653867661952972,0.8666359186172485,0.7884615384615384,0.8653846153846154,0.8571428571428571,0.7857142857142857,0.0004
568,0.4617634415626526,1.159649133682251,0.9038461538461539,0.9230769230769231,0.6428571428571429,0.7142857142857143,0.0004
569,0.5135845690965652,1.0559313297271729,0.8846153846153846,0.9615384615384616,0.7142857142857143,0.8571428571428571,0.0004
570,0.36849910020828247,1.355910062789917,0.8846153846153846,0.9615384615384616,0.7142857142857143,0.7857142857142857,0.0004
571,0.5533815920352936,1.239675521850586,0.8269230769230769,0.9230769230769231,0.6428571428571429,0.8571428571428571,0.0004
572,0.46897223591804504,1.1031763553619385,0.8653846153846154,0.9423076923076923,0.6428571428571429,0.7857142857142857,0.0004
573,0.6054000854492188,1.598271131515503,0.8461538461538461,0.9038461538461539,0.6428571428571429,0.7857142857142857,0.0004
574,0.6348410546779633,1.226682186126709,0.8076923076923077,0.9230769230769231,0.6428571428571429,0.8571428571428571,0.0004
575,0.5083822011947632,1.3296246528625488,0.8846153846153846,0.9230769230769231,0.5714285714285714,0.9285714285714286,0.0004
576,0.40483760833740234,0.7063616514205933,0.8846153846153846,0.9423076923076923,0.8571428571428571,0.7857142857142857,0.0004
577,0.6575039029121399,1.065353274345398,0.7884615384615384,0.9230769230769231,0.7857142857142857,0.8571428571428571,0.0004
578,0.6329570710659027,0.9138426780700684,0.8461538461538461,0.8846153846153846,0.8571428571428571,0.8571428571428571,0.0004
579,0.5404447019100189,1.2641830444335938,0.8076923076923077,0.9038461538461539,0.7142857142857143,0.7857142857142857,0.0004
580,0.7420499622821808,0.8619451522827148,0.7884615384615384,0.9615384615384616,0.7857142857142857,0.7857142857142857,0.0004
581,0.766222357749939,1.060958981513977,0.8076923076923077,0.8846153846153846,0.7142857142857143,0.7142857142857143,0.0004
582,0.6055512130260468,0.9768203496932983,0.8269230769230769,0.9230769230769231,0.7857142857142857,0.7857142857142857,0.0004
583,0.4444677233695984,1.4951294660568237,0.8269230769230769,0.9615384615384616,0.7857142857142857,0.6428571428571429,0.0004
584,0.5478065609931946,1.4650434255599976,0.8461538461538461,0.9423076923076923,0.5714285714285714,0.7857142857142857,0.0004
585,0.7340629398822784,1.882704257965088,0.7884615384615384,0.9038461538461539,0.6428571428571429,0.7857142857142857,0.0004
586,0.756735235452652,1.3611985445022583,0.7307692307692307,0.9230769230769231,0.7142857142857143,0.7857142857142857,0.0004
587,0.4893781691789627,0.7673068046569824,0.8653846153846154,0.9230769230769231,0.8571428571428571,0.7857142857142857,0.0004
588,0.6677654087543488,1.1867409944534302,0.8653846153846154,0.8653846153846154,0.6428571428571429,0.9285714285714286,0.0004
589,0.8711865544319153,0.6768308877944946,0.6923076923076923,0.9230769230769231,0.9285714285714286,0.7857142857142857,0.0004
590,0.5457979440689087,1.4200570583343506,0.8461538461538461,0.9230769230769231,0.7142857142857143,0.6428571428571429,0.0004
591,0.7084849774837494,1.2668266296386719,0.7884615384615384,0.9038461538461539,0.7142857142857143,0.6428571428571429,0.0004
592,0.6044948399066925,1.061793565750122,0.8461538461538461,0.9423076923076923,0.7857142857142857,0.7142857142857143,0.0004
593,0.5257695317268372,0.8189291954040527,0.8653846153846154,0.9230769230769231,0.7857142857142857,0.7142857142857143,0.0004
594,0.6843037307262421,1.5506006479263306,0.9038461538461539,0.8076923076923077,0.6428571428571429,0.7857142857142857,0.0004
595,0.5767528414726257,0.8256927728652954,0.8269230769230769,0.8846153846153846,0.8571428571428571,0.8571428571428571,0.0004
596,0.7622199952602386,1.3012497425079346,0.8076923076923077,0.8653846153846154,0.7142857142857143,0.7857142857142857,0.0004
597,0.6423851549625397,1.1044936180114746,0.8846153846153846,0.8846153846153846,0.6428571428571429,0.6428571428571429,0.0004
598,0.6392263174057007,1.1697102785110474,0.7884615384615384,0.9038461538461539,0.7142857142857143,0.9285714285714286,0.0004
599,0.5302409827709198,1.0148390531539917,0.8846153846153846,0.9038461538461539,0.7857142857142857,0.8571428571428571,0.0004
600,0.5568248480558395,1.1551624536514282,0.8846153846153846,0.8846153846153846,0.6428571428571429,0.7857142857142857,0.0004
601,0.44800303876399994,0.8387826681137085,0.8461538461538461,0.9230769230769231,0.8571428571428571,0.7857142857142857,0.0004
602,0.671718418598175,1.3226832151412964,0.8076923076923077,0.8846153846153846,0.6428571428571429,0.7857142857142857,0.0004
603,0.5899745523929596,0.9711921811103821,0.8076923076923077,0.9230769230769231,0.7142857142857143,0.8571428571428571,0.0004
604,0.8013725578784943,0.8254850506782532,0.8076923076923077,0.9038461538461539,0.8571428571428571,0.8571428571428571,0.0004
605,0.6284311860799789,0.7948611974716187,0.8653846153846154,0.9230769230769231,0.7857142857142857,0.8571428571428571,0.0004
606,0.6557253003120422,1.133394718170166,0.8076923076923077,0.9038461538461539,0.7142857142857143,0.7142857142857143,0.0004
607,0.4816194474697113,0.9515749216079712,0.8846153846153846,0.9230769230769231,0.7857142857142857,0.8571428571428571,0.0004
608,0.5631246566772461,0.7038685083389282,0.8076923076923077,0.9423076923076923,0.7857142857142857,0.7857142857142857,0.0004
609,0.491825133562088,1.3666527271270752,0.8269230769230769,0.9423076923076923,0.7142857142857143,0.7857142857142857,0.0004
610,0.7383834421634674,0.9461549520492554,0.8076923076923077,0.8461538461538461,0.7142857142857143,0.7857142857142857,0.0004
611,0.5713711082935333,1.3817309141159058,0.8269230769230769,0.8653846153846154,0.6428571428571429,0.7857142857142857,0.0004
612,0.6286928057670593,0.5554394125938416,0.8269230769230769,0.8269230769230769,1.0,0.7142857142857143,0.0004
613,0.6221158504486084,1.012872338294983,0.8846153846153846,0.8461538461538461,0.7142857142857143,0.8571428571428571,0.0004
614,0.6204858124256134,0.7528737783432007,0.8461538461538461,0.8653846153846154,0.8571428571428571,0.7857142857142857,0.0004
615,0.6735259294509888,1.1891885995864868,0.7692307692307693,0.9038461538461539,0.7857142857142857,0.7857142857142857,0.0004
616,0.6499365270137787,1.4801433086395264,0.7884615384615384,0.9615384615384616,0.6428571428571429,0.7857142857142857,0.0004
617,0.5750367343425751,1.4426307678222656,0.8269230769230769,0.9230769230769231,0.7142857142857143,0.7857142857142857,0.0004
618,0.5396359860897064,1.0769529342651367,0.8653846153846154,0.9423076923076923,0.8571428571428571,0.8571428571428571,0.0004
619,0.5014860183000565,1.5066447257995605,0.8846153846153846,0.9423076923076923,0.5714285714285714,0.7857142857142857,0.0004
620,0.73138627409935,0.9511354565620422,0.7115384615384616,0.9230769230769231,0.7857142857142857,0.8571428571428571,0.0004
621,0.5205482989549637,0.8975576162338257,0.8461538461538461,0.9423076923076923,0.7857142857142857,0.9285714285714286,0.0004
622,0.5922441482543945,0.8268718719482422,0.8461538461538461,0.9230769230769231,0.8571428571428571,0.7142857142857143,0.0004
623,0.8168337643146515,1.1868363618850708,0.7884615384615384,0.9038461538461539,0.7857142857142857,0.6428571428571429,0.0004
624,0.5471591949462891,1.5250780582427979,0.8653846153846154,0.9038461538461539,0.6428571428571429,0.8571428571428571,0.0004
625,0.5384426712989807,1.1917723417282104,0.8461538461538461,0.9230769230769231,0.7857142857142857,0.6428571428571429,0.0004
626,0.7352521419525146,1.0013116598129272,0.7307692307692307,0.8846153846153846,0.7857142857142857,0.8571428571428571,0.0004
627,0.6119495034217834,1.4678376913070679,0.8269230769230769,0.8846153846153846,0.5714285714285714,0.7857142857142857,0.0004
628,0.6282762885093689,0.9868038296699524,0.7884615384615384,0.9038461538461539,0.7857142857142857,0.7857142857142857,0.0004
629,0.7134703695774078,1.165032148361206,0.75,0.8846153846153846,0.6428571428571429,0.7857142857142857,0.0004
630,0.5847421586513519,1.4722247123718262,0.8269230769230769,0.9423076923076923,0.6428571428571429,0.9285714285714286,0.0004
631,0.6458265781402588,1.1628282070159912,0.7692307692307693,0.9615384615384616,0.6428571428571429,0.8571428571428571,0.0004
632,0.6276852786540985,1.4726158380508423,0.8461538461538461,0.8846153846153846,0.7142857142857143,0.9285714285714286,0.0004
633,0.6383984088897705,1.1960195302963257,0.8076923076923077,0.9615384615384616,0.7857142857142857,0.7857142857142857,0.0004
634,0.4846979081630707,1.1026400327682495,0.8653846153846154,0.8653846153846154,0.7142857142857143,0.8571428571428571,0.0004
635,0.6005808115005493,1.2228707075119019,0.8653846153846154,0.8653846153846154,0.6428571428571429,0.8571428571428571,0.0004
636,0.5613695085048676,1.102426290512085,0.8653846153846154,0.9230769230769231,0.7142857142857143,0.7857142857142857,0.0004
637,0.6657627820968628,0.9490705132484436,0.8653846153846154,0.8846153846153846,0.7142857142857143,0.7857142857142857,0.0004
638,0.5916429460048676,0.806117594242096,0.8076923076923077,0.9230769230769231,0.8571428571428571,0.7857142857142857,0.0004
639,0.6639551222324371,1.8868379592895508,0.8269230769230769,0.8846153846153846,0.7142857142857143,0.7142857142857143,0.0004
640,0.9771790206432343,1.2824208736419678,0.8269230769230769,0.8653846153846154,0.6428571428571429,0.7857142857142857,0.0004
641,0.5220795422792435,0.7411655783653259,0.8653846153846154,0.8846153846153846,0.8571428571428571,0.7857142857142857,0.0004
642,0.5587729215621948,1.3906170129776,0.8269230769230769,0.9230769230769231,0.6428571428571429,0.9285714285714286,0.0004
643,0.47737160325050354,0.8571974039077759,0.8846153846153846,0.8846153846153846,0.8571428571428571,0.7857142857142857,0.0004
644,0.6838298439979553,1.10032057762146,0.8461538461538461,0.8846153846153846,0.7857142857142857,0.8571428571428571,0.0004
645,0.44286227226257324,1.1525174379348755,0.8846153846153846,0.9230769230769231,0.7142857142857143,0.7142857142857143,0.0004
646,0.4847598969936371,1.2418005466461182,0.8653846153846154,0.9038461538461539,0.6428571428571429,0.8571428571428571,0.0004
647,0.6999166905879974,1.4383740425109863,0.75,0.9230769230769231,0.7142857142857143,0.9285714285714286,0.0004
648,0.762986570596695,1.268235683441162,0.7692307692307693,0.9230769230769231,0.7142857142857143,0.8571428571428571,0.0004
649,0.605188176035881,1.0800520181655884,0.7692307692307693,0.9423076923076923,0.7142857142857143,0.7857142857142857,0.0004
650,0.531317949295044,1.124228835105896,0.7884615384615384,0.9423076923076923,0.6428571428571429,0.7857142857142857,0.0004
651,0.5147399306297302,1.180756688117981,0.8461538461538461,0.9038461538461539,0.7142857142857143,0.7857142857142857,0.0004
652,0.4386877566576004,1.292783260345459,0.9038461538461539,0.9038461538461539,0.7142857142857143,0.7142857142857143,0.0004
653,0.5938772559165955,0.9440879821777344,0.9038461538461539,0.8653846153846154,0.7857142857142857,0.8571428571428571,0.0004
654,0.6427958011627197,1.5290778875350952,0.8076923076923077,0.9423076923076923,0.5714285714285714,0.9285714285714286,0.0004
655,0.7507564425468445,1.2391093969345093,0.7692307692307693,0.8846153846153846,0.7142857142857143,0.7857142857142857,0.0004
656,0.6117043495178223,0.9331275224685669,0.8076923076923077,0.9423076923076923,0.7142857142857143,0.7857142857142857,0.0004
657,0.61674565076828,0.7043284177780151,0.7884615384615384,0.8653846153846154,0.9285714285714286,0.7142857142857143,0.0004
658,0.4654380530118942,0.8848713040351868,0.8846153846153846,0.9038461538461539,0.6428571428571429,0.8571428571428571,0.0004
659,0.5495403707027435,1.1974557638168335,0.8461538461538461,0.9230769230769231,0.7142857142857143,0.8571428571428571,0.0004
660,0.4947395622730255,1.1163372993469238,0.8653846153846154,0.9038461538461539,0.7857142857142857,0.8571428571428571,0.0004
661,0.5098347067832947,1.340987205505371,0.8461538461538461,0.9423076923076923,0.6428571428571429,0.7857142857142857,0.0004
662,0.4921059161424637,1.0295826196670532,0.8653846153846154,0.9423076923076923,0.7857142857142857,0.8571428571428571,0.0004
663,0.5927054584026337,0.9105271697044373,0.7692307692307693,0.9423076923076923,0.8571428571428571,0.8571428571428571,0.0004
664,0.5911099314689636,0.9099985361099243,0.7692307692307693,0.9230769230769231,0.7857142857142857,0.7142857142857143,0.0004
665,0.5676113069057465,0.7415671348571777,0.8846153846153846,0.9038461538461539,0.9285714285714286,0.7142857142857143,0.0004
666,0.6900699138641357,1.3485527038574219,0.8076923076923077,0.8653846153846154,0.5,0.8571428571428571,0.0004
667,0.6187936961650848,1.6531379222869873,0.8076923076923077,0.9807692307692307,0.5714285714285714,0.6428571428571429,0.0004
668,0.4894571006298065,1.4160821437835693,0.8846153846153846,0.8846153846153846,0.6428571428571429,0.7142857142857143,0.0004
669,0.4600125104188919,1.0381590127944946,0.8461538461538461,0.9423076923076923,0.7142857142857143,0.8571428571428571,0.0004
670,0.5988465249538422,1.405806541442871,0.8846153846153846,0.9038461538461539,0.5714285714285714,0.7142857142857143,0.0004
671,0.5629965364933014,1.04823637008667,0.8653846153846154,0.8846153846153846,0.7857142857142857,0.7142857142857143,0.0004
672,0.766196221113205,0.7900728583335876,0.7884615384615384,0.8269230769230769,0.8571428571428571,0.7857142857142857,0.0004
673,0.7083427906036377,1.6336126327514648,0.7884615384615384,0.9230769230769231,0.5714285714285714,0.7857142857142857,0.0004
674,0.5936870872974396,0.8910558223724365,0.8846153846153846,0.8846153846153846,0.7142857142857143,0.8571428571428571,0.0004
675,0.5260050147771835,1.1445707082748413,0.8269230769230769,0.9615384615384616,0.8571428571428571,0.7857142857142857,0.0004
676,0.4287051856517792,0.7624748945236206,0.9230769230769231,0.9038461538461539,0.7857142857142857,0.8571428571428571,0.0004
677,0.6825744211673737,1.1203891038894653,0.8269230769230769,0.8653846153846154,0.7857142857142857,0.7857142857142857,0.0004
678,0.6185303628444672,1.0717331171035767,0.8269230769230769,0.9038461538461539,0.7857142857142857,0.7142857142857143,0.0004
679,0.4887761026620865,1.09035062789917,0.9038461538461539,0.9615384615384616,0.7142857142857143,0.7857142857142857,0.0004
680,0.37274202704429626,1.2585335969924927,0.9230769230769231,0.9230769230769231,0.5714285714285714,0.8571428571428571,0.0004
681,0.36208243668079376,1.1188706159591675,0.9615384615384616,0.9615384615384616,0.7857142857142857,0.7142857142857143,0.0004
682,0.7386429011821747,1.635059118270874,0.8269230769230769,0.9230769230769231,0.5714285714285714,0.8571428571428571,0.0004
683,0.5749764144420624,1.4192665815353394,0.8846153846153846,0.9230769230769231,0.5714285714285714,0.7857142857142857,0.0004
684,0.490639865398407,0.8513162136077881,0.9230769230769231,0.8653846153846154,0.7857142857142857,0.7857142857142857,0.0004
685,0.47538337111473083,1.8442250490188599,0.8846153846153846,0.9230769230769231,0.6428571428571429,0.7142857142857143,0.0004
686,0.5149672776460648,1.2079987525939941,0.8653846153846154,0.9423076923076923,0.6428571428571429,0.7857142857142857,0.0004
687,0.6030613780021667,1.19374680519104,0.8076923076923077,0.9038461538461539,0.7142857142857143,0.7142857142857143,0.0004
688,0.49202604591846466,1.7834876775741577,0.8653846153846154,0.9423076923076923,0.7857142857142857,0.7142857142857143,0.0004
689,0.5777952969074249,1.7654552459716797,0.7884615384615384,0.9230769230769231,0.5714285714285714,0.7142857142857143,0.0004
690,0.5361072421073914,1.7855318784713745,0.8269230769230769,0.9230769230769231,0.5714285714285714,0.9285714285714286,0.0004
691,0.6124483644962311,1.462619423866272,0.8076923076923077,0.9038461538461539,0.7142857142857143,0.8571428571428571,0.0004
692,0.6185720860958099,1.1997814178466797,0.8269230769230769,0.9038461538461539,0.7142857142857143,0.8571428571428571,0.0004
693,0.48796187341213226,0.8105889558792114,0.8846153846153846,0.9230769230769231,0.8571428571428571,0.7142857142857143,0.0004
694,0.6305771768093109,1.037490725517273,0.8269230769230769,0.9423076923076923,0.8571428571428571,0.6428571428571429,0.0004
695,0.5846279561519623,1.414668321609497,0.8269230769230769,0.8653846153846154,0.7142857142857143,0.6428571428571429,0.0004
696,0.5383258759975433,0.8887380361557007,0.8461538461538461,0.9423076923076923,0.6428571428571429,0.7857142857142857,0.0004
697,0.5913254469633102,1.036773920059204,0.8461538461538461,0.9615384615384616,0.5714285714285714,0.7857142857142857,0.0004
698,0.5608014166355133,1.4609811305999756,0.8461538461538461,0.8653846153846154,0.7142857142857143,0.7857142857142857,0.0004
699,0.6622674316167831,0.7634667158126831,0.7884615384615384,0.8846153846153846,0.7857142857142857,0.9285714285714286,0.0004
700,0.6111736297607422,1.3542027473449707,0.8653846153846154,0.8653846153846154,0.6428571428571429,0.9285714285714286,0.0004
701,0.7149155139923096,0.9099880456924438,0.8076923076923077,0.9230769230769231,0.7857142857142857,0.8571428571428571,0.0004
702,0.5969960689544678,1.5852794647216797,0.8846153846153846,0.9038461538461539,0.5,0.7857142857142857,0.0004
703,0.6143566370010376,1.1221808195114136,0.8076923076923077,0.8846153846153846,0.6428571428571429,0.8571428571428571,0.0004
704,0.46094267070293427,1.6077723503112793,0.9038461538461539,0.9038461538461539,0.6428571428571429,0.6428571428571429,0.0004
705,0.4489138126373291,2.5584769248962402,0.8461538461538461,0.9038461538461539,0.6428571428571429,0.7142857142857143,0.0004
706,0.6743504405021667,1.342148780822754,0.8846153846153846,0.9230769230769231,0.6428571428571429,0.8571428571428571,0.0004
707,0.603880986571312,1.115002989768982,0.8461538461538461,0.8846153846153846,0.7142857142857143,0.6428571428571429,0.0004
708,0.4408661127090454,1.1500813961029053,0.8846153846153846,0.9038461538461539,0.6428571428571429,0.7142857142857143,0.0004
709,0.4162485748529434,1.0019831657409668,0.8846153846153846,0.8653846153846154,0.7857142857142857,0.7142857142857143,0.0004
710,0.6570380330085754,1.3985196352005005,0.7884615384615384,0.9230769230769231,0.7142857142857143,0.7142857142857143,0.0004
711,0.388869509100914,1.0888725519180298,0.9230769230769231,0.9423076923076923,0.6428571428571429,0.8571428571428571,0.0004
712,0.6295941770076752,1.2082852125167847,0.8076923076923077,0.8846153846153846,0.7857142857142857,0.8571428571428571,0.0004
713,0.44384293258190155,1.219551682472229,0.9038461538461539,0.9230769230769231,0.7142857142857143,0.7142857142857143,0.0004
714,0.40934814512729645,1.0721232891082764,0.8653846153846154,0.9615384615384616,0.7857142857142857,0.7857142857142857,0.0004
715,0.5133716762065887,1.570151925086975,0.8461538461538461,0.9615384615384616,0.5714285714285714,0.9285714285714286,0.0004
716,0.5688181817531586,1.3510780334472656,0.8653846153846154,0.9230769230769231,0.7857142857142857,0.7142857142857143,0.0004
717,0.4693831205368042,0.775012731552124,0.8653846153846154,0.9230769230769231,0.7857142857142857,0.8571428571428571,0.0004
718,0.6220508068799973,0.8328823447227478,0.7884615384615384,0.9423076923076923,0.7857142857142857,0.7142857142857143,0.0004
719,0.4752495288848877,1.1239843368530273,0.8076923076923077,0.9230769230769231,0.7857142857142857,0.7142857142857143,0.0004
720,0.49861326813697815,1.1806529760360718,0.8653846153846154,0.9230769230769231,0.6428571428571429,0.8571428571428571,0.0004
721,0.4426979124546051,1.0184481143951416,0.8653846153846154,0.9230769230769231,0.7142857142857143,0.7142857142857143,0.0004
722,0.5664176940917969,0.9349405765533447,0.8269230769230769,0.8846153846153846,0.7857142857142857,0.7857142857142857,0.0004
723,0.37015070021152496,0.9955303072929382,0.9038461538461539,0.9423076923076923,0.7857142857142857,0.7142857142857143,0.0004
724,0.598433643579483,1.2319960594177246,0.8076923076923077,0.8653846153846154,0.7142857142857143,0.7857142857142857,0.0004
725,0.44870515167713165,1.3922083377838135,0.9038461538461539,0.9423076923076923,0.7142857142857143,0.7142857142857143,0.0004
726,0.45942115783691406,1.0589603185653687,0.8846153846153846,0.9230769230769231,0.7857142857142857,0.7857142857142857,0.0004
727,0.45793524384498596,0.9124498963356018,0.8846153846153846,0.9423076923076923,0.7142857142857143,0.7857142857142857,0.0004
728,0.986734539270401,0.8187282085418701,0.7884615384615384,0.8076923076923077,0.7857142857142857,0.7857142857142857,0.0004
729,0.7006312906742096,1.1556097269058228,0.7692307692307693,0.8461538461538461,0.6428571428571429,0.7857142857142857,0.0004
730,0.42576315999031067,1.3717020750045776,0.9038461538461539,0.8653846153846154,0.7857142857142857,0.8571428571428571,0.0004
731,0.48799407482147217,1.6462697982788086,0.8653846153846154,0.8846153846153846,0.5,0.8571428571428571,0.0004
732,0.6419278383255005,1.3934106826782227,0.8269230769230769,0.9038461538461539,0.6428571428571429,0.7857142857142857,0.0004
733,0.5835763216018677,0.9077216386795044,0.8076923076923077,0.9807692307692307,0.8571428571428571,0.9285714285714286,0.0004
734,0.3495512008666992,1.1973092555999756,0.9423076923076923,0.9423076923076923,0.7857142857142857,0.6428571428571429,0.0004
735,0.5093604922294617,1.1136844158172607,0.8846153846153846,0.9038461538461539,0.7142857142857143,0.7857142857142857,0.0004
736,0.42206862568855286,1.1948567628860474,0.9038461538461539,0.9230769230769231,0.7142857142857143,0.7857142857142857,0.0004
737,0.504857063293457,1.1277172565460205,0.8653846153846154,0.9423076923076923,0.6428571428571429,0.7857142857142857,0.0004
738,0.6697707176208496,1.2257013320922852,0.8076923076923077,0.9038461538461539,0.6428571428571429,0.7857142857142857,0.0004
739,0.6024928539991379,0.7851859331130981,0.8461538461538461,0.9230769230769231,0.8571428571428571,0.7857142857142857,0.0004
740,0.453143447637558,1.092609167098999,0.9230769230769231,0.8846153846153846,0.7142857142857143,0.9285714285714286,0.0004
741,0.3808569461107254,1.1048688888549805,0.9230769230769231,0.9230769230769231,0.7857142857142857,0.8571428571428571,0.0004
742,0.48383864760398865,1.749148964881897,0.8461538461538461,0.9423076923076923,0.5714285714285714,0.7857142857142857,0.0004
743,0.46850068867206573,0.8513544797897339,0.8461538461538461,0.9807692307692307,0.5714285714285714,1.0,0.0004
744,0.6147100925445557,1.0429346561431885,0.8653846153846154,0.9615384615384616,0.5714285714285714,0.7857142857142857,0.0004
745,0.39799489080905914,2.064446210861206,0.9038461538461539,0.9807692307692307,0.35714285714285715,0.8571428571428571,0.0004
746,0.5295567512512207,1.4853445291519165,0.9038461538461539,0.9230769230769231,0.7857142857142857,0.7857142857142857,0.0004
747,0.421610027551651,1.4636865854263306,0.8846153846153846,0.9615384615384616,0.7857142857142857,0.8571428571428571,0.0004
748,0.46431800723075867,1.2410463094711304,0.8846153846153846,0.9230769230769231,0.7142857142857143,0.7857142857142857,0.0004
749,0.5251253545284271,2.148895263671875,0.8461538461538461,0.9423076923076923,0.5714285714285714,0.7857142857142857,0.0004
750,0.5596257597208023,2.1146037578582764,0.8653846153846154,0.9423076923076923,0.7142857142857143,0.7142857142857143,0.0004
751,0.42042501270771027,1.1776281595230103,0.8846153846153846,0.9615384615384616,0.7142857142857143,0.7142857142857143,0.0004
752,0.5327910482883453,0.9103683233261108,0.8846153846153846,0.8846153846153846,0.7857142857142857,0.7857142857142857,0.0004
753,0.4488345682621002,1.3915905952453613,0.8653846153846154,0.9230769230769231,0.7857142857142857,0.7142857142857143,0.0004
754,0.4680689722299576,1.311943769454956,0.8653846153846154,0.9615384615384616,0.5714285714285714,0.8571428571428571,0.0004
755,0.8247878551483154,0.743065595626831,0.8076923076923077,0.9038461538461539,0.7857142857142857,0.8571428571428571,0.0004
756,0.34636442363262177,1.7372750043869019,0.9230769230769231,0.9423076923076923,0.6428571428571429,0.6428571428571429,0.0004
757,0.4424532949924469,0.9178115129470825,0.9423076923076923,0.9230769230769231,0.8571428571428571,0.8571428571428571,0.0004
758,0.4935222566127777,1.5092545747756958,0.8653846153846154,0.9423076923076923,0.6428571428571429,0.7142857142857143,0.0004
759,0.42614276707172394,1.2040736675262451,0.9230769230769231,0.9615384615384616,0.6428571428571429,0.9285714285714286,0.0004
760,0.37776505947113037,0.9963966608047485,0.8846153846153846,0.9615384615384616,0.8571428571428571,0.7857142857142857,0.0004
761,0.54144087433815,1.3835445642471313,0.7884615384615384,0.9423076923076923,0.7142857142857143,0.7857142857142857,0.0004
762,0.6427471786737442,1.0174305438995361,0.9038461538461539,0.9423076923076923,0.7142857142857143,0.7857142857142857,0.0004
763,0.7627334296703339,1.256462574005127,0.8076923076923077,0.9230769230769231,0.5714285714285714,0.9285714285714286,0.0004
764,0.5371534824371338,0.7318943738937378,0.8076923076923077,0.9423076923076923,1.0,0.8571428571428571,0.0004
765,0.5150733590126038,0.919143795967102,0.8461538461538461,0.9230769230769231,0.7142857142857143,0.8571428571428571,0.0004
766,0.6023560762405396,1.1875672340393066,0.8076923076923077,0.9230769230769231,0.7142857142857143,0.9285714285714286,0.0004
767,0.674871563911438,1.2314578294754028,0.8846153846153846,0.8846153846153846,0.5714285714285714,0.8571428571428571,0.0004
768,0.48039984703063965,0.666994035243988,0.8846153846153846,0.9230769230769231,0.8571428571428571,0.7857142857142857,0.0004
769,0.636269599199295,1.3524112701416016,0.8269230769230769,0.8846153846153846,0.7857142857142857,0.6428571428571429,0.0004
770,0.47755151987075806,1.625267505645752,0.8846153846153846,0.9423076923076923,0.5714285714285714,0.8571428571428571,0.0004
771,0.3990112990140915,1.0575519800186157,0.8653846153846154,0.9423076923076923,0.6428571428571429,0.7142857142857143,0.0004
772,0.41738182306289673,0.9372254610061646,0.9038461538461539,0.9230769230769231,0.8571428571428571,0.8571428571428571,0.0004
773,0.41582033038139343,1.1295580863952637,0.8653846153846154,0.9807692307692307,0.7142857142857143,0.7857142857142857,0.0004
774,0.579282134771347,1.4967502355575562,0.8269230769230769,0.9230769230769231,0.5714285714285714,0.9285714285714286,0.0004
775,0.458522230386734,1.2241432666778564,0.8846153846153846,0.9615384615384616,0.7142857142857143,0.9285714285714286,0.0004
776,0.4763745069503784,0.8176661729812622,0.8653846153846154,0.9230769230769231,0.8571428571428571,0.8571428571428571,0.0004
777,0.3997684419155121,1.5136852264404297,0.8653846153846154,0.9615384615384616,0.7857142857142857,0.7857142857142857,0.0004
778,0.4392606317996979,1.9396824836730957,0.9038461538461539,0.9038461538461539,0.5714285714285714,0.7142857142857143,0.0004
779,0.5315578281879425,0.9037985801696777,0.8846153846153846,0.9423076923076923,0.7857142857142857,0.8571428571428571,0.0004
780,0.4984194338321686,1.013488531112671,0.8653846153846154,0.9423076923076923,0.6428571428571429,0.8571428571428571,0.0004
781,0.516965389251709,0.9063543081283569,0.9038461538461539,0.9038461538461539,0.7857142857142857,0.7857142857142857,0.0004
782,0.48191802203655243,1.469848394393921,0.9230769230769231,0.8461538461538461,0.6428571428571429,0.7857142857142857,0.0004
783,0.3401859998703003,1.1413545608520508,0.9038461538461539,0.9423076923076923,0.5714285714285714,0.7857142857142857,0.0004
784,0.516078770160675,1.1102395057678223,0.8846153846153846,0.9423076923076923,0.7142857142857143,0.7857142857142857,0.0004
785,0.30531109124422073,1.2998040914535522,0.9615384615384616,0.9230769230769231,0.7857142857142857,0.8571428571428571,0.0004
786,0.6228172779083252,0.8600571155548096,0.8269230769230769,0.9038461538461539,0.8571428571428571,0.6428571428571429,0.0004
787,0.4087167978286743,1.1164575815200806,0.8653846153846154,0.9807692307692307,0.7142857142857143,0.8571428571428571,0.0004
788,0.4197574406862259,1.2507325410842896,0.9423076923076923,0.9038461538461539,0.7142857142857143,0.7142857142857143,0.0004
789,0.5672971904277802,1.25319242477417,0.8076923076923077,0.9423076923076923,0.7857142857142857,0.7857142857142857,0.0004
790,0.37906698882579803,1.0202059745788574,0.9038461538461539,0.9230769230769231,0.7142857142857143,0.7857142857142857,0.0004
791,0.43963509798049927,1.1657888889312744,0.8846153846153846,0.9230769230769231,0.6428571428571429,0.7142857142857143,0.0004
792,0.5476834028959274,1.288634181022644,0.8461538461538461,0.9038461538461539,0.6428571428571429,0.9285714285714286,0.0004
793,0.48548412322998047,1.2278566360473633,0.9423076923076923,0.9038461538461539,0.7142857142857143,0.7857142857142857,0.0004
794,0.6809575110673904,0.9133776426315308,0.8461538461538461,0.8846153846153846,0.7142857142857143,0.7142857142857143,0.0004
795,0.5333825051784515,1.5091511011123657,0.8269230769230769,0.9615384615384616,0.5714285714285714,0.6428571428571429,0.0004
796,0.3554687947034836,1.7431955337524414,0.9230769230769231,0.9615384615384616,0.5,0.7857142857142857,0.0004
797,0.4017946422100067,1.5893638134002686,0.9230769230769231,0.9230769230769231,0.7142857142857143,0.7142857142857143,0.0004
798,0.7528941035270691,0.9228878617286682,0.8076923076923077,0.9230769230769231,0.7142857142857143,0.7857142857142857,0.0004
799,0.638990730047226,0.9981688261032104,0.8653846153846154,0.9423076923076923,0.7857142857142857,0.7857142857142857,0.0004
800,0.42593608796596527,1.218106746673584,0.8846153846153846,0.9230769230769231,0.7142857142857143,0.8571428571428571,0.0004
801,0.5814706236124039,1.5563721656799316,0.8846153846153846,0.8846153846153846,0.7857142857142857,0.8571428571428571,0.0004
802,0.6750547289848328,1.5998620986938477,0.8076923076923077,0.9423076923076923,0.6428571428571429,0.7142857142857143,0.0004
803,0.4946599155664444,1.2976293563842773,0.8076923076923077,0.9807692307692307,0.6428571428571429,0.8571428571428571,0.0004
804,0.5709680318832397,0.9984678030014038,0.8653846153846154,0.9038461538461539,0.8571428571428571,0.7142857142857143,0.0004
805,0.37281665205955505,1.6627109050750732,0.9230769230769231,0.9423076923076923,0.7142857142857143,0.5,0.0004
806,0.6479519903659821,1.1927759647369385,0.8653846153846154,0.9038461538461539,0.7142857142857143,0.7857142857142857,0.0004
807,0.49853287637233734,1.310915470123291,0.8846153846153846,0.9423076923076923,0.7142857142857143,0.7142857142857143,0.0004
808,0.45720648765563965,1.1525977849960327,0.9038461538461539,0.9230769230769231,0.7857142857142857,0.6428571428571429,0.0004
809,0.4889785945415497,0.9678685069084167,0.8846153846153846,0.9423076923076923,0.7857142857142857,0.8571428571428571,0.0004
810,0.6052461564540863,1.4024097919464111,0.8269230769230769,0.8846153846153846,0.7142857142857143,0.8571428571428571,0.0004
811,0.5484317541122437,0.6602945327758789,0.9038461538461539,0.9423076923076923,0.8571428571428571,0.8571428571428571,0.0004
812,0.4609243720769882,0.9835289120674133,0.8846153846153846,0.9230769230769231,0.7142857142857143,0.6428571428571429,0.0004
813,0.7305276691913605,0.9953598976135254,0.8269230769230769,0.9038461538461539,0.7857142857142857,0.7142857142857143,0.0004
814,0.5347286462783813,1.2445274591445923,0.8846153846153846,0.9230769230769231,0.6428571428571429,0.8571428571428571,0.0004
815,0.34599463641643524,0.9890180826187134,0.9615384615384616,0.9423076923076923,0.7142857142857143,0.7857142857142857,0.0004
816,0.5006354004144669,0.870962381362915,0.8653846153846154,0.9230769230769231,0.7857142857142857,0.7142857142857143,0.0004
817,0.6168195307254791,1.4617915153503418,0.7692307692307693,0.8846153846153846,0.6428571428571429,0.8571428571428571,0.0004
818,0.61690953373909,1.2978724241256714,0.7884615384615384,0.9423076923076923,0.6428571428571429,0.8571428571428571,0.0004
819,0.6292658746242523,1.14433753490448,0.8269230769230769,0.9230769230769231,0.7857142857142857,0.8571428571428571,0.0004
820,0.5998605489730835,1.3227049112319946,0.8269230769230769,0.9615384615384616,0.5714285714285714,0.9285714285714286,0.0004
821,0.5510251522064209,1.4860005378723145,0.8461538461538461,0.9230769230769231,0.6428571428571429,0.7142857142857143,0.0004
822,0.5553410649299622,1.0975145101547241,0.7692307692307693,0.9615384615384616,0.7142857142857143,0.8571428571428571,0.0004
823,0.4150376170873642,1.4722161293029785,0.8461538461538461,0.9230769230769231,0.42857142857142855,0.8571428571428571,0.0004
824,0.4970729947090149,0.8185574412345886,0.9423076923076923,0.8846153846153846,0.7857142857142857,0.6428571428571429,0.0004
825,0.4798254519701004,1.1265830993652344,0.8653846153846154,0.9230769230769231,0.5714285714285714,0.9285714285714286,0.0004
826,0.4544539153575897,1.2735182046890259,0.8653846153846154,0.9038461538461539,0.7142857142857143,0.8571428571428571,0.0004
827,0.5123143792152405,1.3000990152359009,0.8846153846153846,0.9038461538461539,0.7857142857142857,0.7857142857142857,0.0004
828,0.41328179836273193,0.8595997095108032,0.9038461538461539,0.9615384615384616,0.7857142857142857,0.7857142857142857,0.0004
829,0.38091927766799927,1.179776668548584,0.8846153846153846,0.9230769230769231,0.7857142857142857,0.8571428571428571,0.0004
830,0.456102192401886,1.114600658416748,0.8653846153846154,0.9423076923076923,0.5,0.7142857142857143,0.0004
831,0.3596191480755806,2.2966198921203613,0.9615384615384616,0.9423076923076923,0.7142857142857143,0.5,0.0004
832,0.41372035443782806,1.544689655303955,0.8653846153846154,0.9615384615384616,0.6428571428571429,0.7857142857142857,0.0004
833,0.3708587884902954,1.6463546752929688,0.9807692307692307,0.9423076923076923,0.5714285714285714,0.9285714285714286,0.0004
834,0.38233740627765656,1.9340484142303467,0.9230769230769231,0.9038461538461539,0.5714285714285714,0.8571428571428571,0.0004
835,0.5164978802204132,1.466630458831787,0.8653846153846154,0.9230769230769231,0.7142857142857143,0.8571428571428571,0.0004
836,0.45824360847473145,1.6889797449111938,0.8461538461538461,0.9615384615384616,0.5,0.7857142857142857,0.0004
837,0.4945204555988312,1.3974530696868896,0.8846153846153846,0.9038461538461539,0.7142857142857143,0.7142857142857143,0.0004
838,0.5766313970088959,0.6676601767539978,0.8846153846153846,0.8846153846153846,0.7142857142857143,0.9285714285714286,0.0004
839,0.47251804172992706,1.1202590465545654,0.8653846153846154,0.9615384615384616,0.7857142857142857,0.6428571428571429,0.0004
840,0.4430379569530487,1.1009894609451294,0.8269230769230769,0.9423076923076923,0.7857142857142857,0.7857142857142857,0.0004
841,0.5186078399419785,1.7214622497558594,0.8269230769230769,0.9230769230769231,0.6428571428571429,0.7142857142857143,0.0004
842,0.5213295370340347,1.7207164764404297,0.8461538461538461,0.9038461538461539,0.42857142857142855,0.7857142857142857,0.0004
843,0.48508886992931366,1.5111057758331299,0.8461538461538461,0.9230769230769231,0.6428571428571429,0.7142857142857143,0.0004
844,0.3774535804986954,0.8527446985244751,0.8076923076923077,0.9615384615384616,0.7142857142857143,0.7142857142857143,0.0004
845,0.7193587720394135,1.693604826927185,0.8076923076923077,0.8846153846153846,0.5714285714285714,0.7142857142857143,0.0004
846,0.4162025451660156,1.1051603555679321,0.9038461538461539,0.9423076923076923,0.7857142857142857,0.8571428571428571,0.0004
847,0.5373979806900024,0.9800457954406738,0.8076923076923077,0.9230769230769231,0.7142857142857143,0.6428571428571429,0.0004
848,0.5602793395519257,1.7991424798965454,0.8653846153846154,0.9423076923076923,0.6428571428571429,0.6428571428571429,0.0004
849,0.3539506494998932,0.7218807935714722,0.8846153846153846,1.0,0.7857142857142857,0.7857142857142857,0.0004
850,0.37833093106746674,0.9734864234924316,0.8461538461538461,0.9423076923076923,0.7857142857142857,0.8571428571428571,0.0004
851,0.42196282744407654,1.3196423053741455,0.9230769230769231,0.8846153846153846,0.6428571428571429,0.7857142857142857,0.0004
852,0.593956783413887,1.2722563743591309,0.8461538461538461,0.9423076923076923,0.7142857142857143,0.7857142857142857,0.0004
853,0.5652379393577576,1.4888262748718262,0.7884615384615384,0.9230769230769231,0.6428571428571429,0.7142857142857143,0.0004
854,0.3967280089855194,1.3188968896865845,0.9230769230769231,0.9423076923076923,0.7857142857142857,0.6428571428571429,0.0004
855,0.3027583435177803,1.4684982299804688,0.9038461538461539,0.9807692307692307,0.6428571428571429,0.6428571428571429,0.0004
856,0.3427361994981766,0.5424138307571411,0.9230769230769231,0.9615384615384616,0.8571428571428571,0.8571428571428571,0.0004
857,0.33452416956424713,1.4063730239868164,0.9230769230769231,0.9615384615384616,0.7142857142857143,0.7857142857142857,0.0004
858,0.707886666059494,1.1881407499313354,0.8461538461538461,0.9038461538461539,0.6428571428571429,0.7857142857142857,0.0004
859,0.4055884927511215,1.2278738021850586,0.9423076923076923,0.9807692307692307,0.6428571428571429,0.7857142857142857,0.0004
860,0.41013360023498535,0.7502304315567017,0.8846153846153846,0.9038461538461539,0.7857142857142857,0.8571428571428571,0.0004
861,0.5513405054807663,0.809968888759613,0.9038461538461539,0.9038461538461539,0.7857142857142857,0.8571428571428571,0.0004
862,0.5072581171989441,0.8926992416381836,0.8269230769230769,0.9423076923076923,0.8571428571428571,0.7857142857142857,0.0004
863,0.36350469291210175,0.8671340346336365,0.8653846153846154,0.9615384615384616,0.7142857142857143,0.7857142857142857,0.0004
864,0.4953453838825226,1.553664207458496,0.9038461538461539,0.9423076923076923,0.6428571428571429,0.9285714285714286,0.0004
865,0.48586636781692505,1.6441640853881836,0.8653846153846154,0.9038461538461539,0.6428571428571429,0.8571428571428571,0.0004
866,0.3271176442503929,1.6518609523773193,0.9038461538461539,1.0,0.42857142857142855,0.7142857142857143,0.0004
867,0.4303230345249176,0.9505842328071594,0.9038461538461539,0.8846153846153846,0.7142857142857143,0.7142857142857143,0.0004
868,0.6649268567562103,0.9625898599624634,0.8076923076923077,0.9230769230769231,0.7857142857142857,0.7857142857142857,0.0004
869,0.43593038618564606,1.0896522998809814,0.8269230769230769,0.9807692307692307,0.7142857142857143,0.8571428571428571,0.0004
870,0.5378113389015198,1.7788418531417847,0.7884615384615384,0.9038461538461539,0.5714285714285714,0.8571428571428571,0.0004
871,0.5622956156730652,1.736828327178955,0.7884615384615384,0.9423076923076923,0.7142857142857143,0.7857142857142857,0.0004
872,0.31511469185352325,1.5985726118087769,0.9038461538461539,0.9615384615384616,0.7142857142857143,0.7857142857142857,0.0004
873,0.3793293833732605,1.2462732791900635,0.8461538461538461,0.9615384615384616,0.6428571428571429,0.7142857142857143,0.0004
874,0.5373571962118149,0.7321650981903076,0.8653846153846154,0.9423076923076923,0.8571428571428571,0.7857142857142857,0.0004
875,0.5230626463890076,1.4696016311645508,0.8269230769230769,0.9423076923076923,0.7142857142857143,0.7857142857142857,0.0004
876,0.5232382118701935,1.1972050666809082,0.8846153846153846,0.9423076923076923,0.6428571428571429,0.7857142857142857,0.0004
877,0.5364238619804382,1.1192247867584229,0.8653846153846154,0.9038461538461539,0.7857142857142857,0.5714285714285714,0.0004
878,0.3823580741882324,1.3945846557617188,0.9423076923076923,0.9230769230769231,0.6428571428571429,0.8571428571428571,0.0004
879,0.40202218294143677,1.1761412620544434,0.9038461538461539,0.9423076923076923,0.7857142857142857,0.7142857142857143,0.0004
880,0.42637044191360474,2.0306999683380127,0.9038461538461539,0.9038461538461539,0.5,0.7142857142857143,0.0004
881,0.5137323290109634,1.406930923461914,0.8461538461538461,0.9615384615384616,0.6428571428571429,0.9285714285714286,0.0004
882,0.3479193449020386,0.6569023132324219,0.9038461538461539,0.9807692307692307,0.8571428571428571,0.7857142857142857,0.0004
883,0.3153456002473831,1.5064928531646729,0.9423076923076923,0.9615384615384616,0.7142857142857143,0.8571428571428571,0.0004
884,0.529773473739624,0.8711551427841187,0.8653846153846154,0.9807692307692307,0.7857142857142857,0.9285714285714286,0.0004
885,0.4633641541004181,1.4471747875213623,0.8461538461538461,0.9230769230769231,0.5714285714285714,0.8571428571428571,0.0004
886,0.4032307416200638,1.3382700681686401,0.8846153846153846,0.9423076923076923,0.6428571428571429,0.8571428571428571,0.0004
887,0.44729217886924744,1.1304632425308228,0.8461538461538461,0.9615384615384616,0.6428571428571429,0.8571428571428571,0.0004
888,0.35810935497283936,0.9589881896972656,0.9615384615384616,0.8846153846153846,0.7857142857142857,0.7142857142857143,0.0004
889,0.6347834169864655,1.353541374206543,0.8076923076923077,0.9038461538461539,0.7142857142857143,0.8571428571428571,0.0004
890,0.38471733033657074,1.0040547847747803,0.9423076923076923,0.9230769230769231,0.7142857142857143,0.7142857142857143,0.0004
891,0.3282686918973923,1.3192596435546875,0.9038461538461539,0.9615384615384616,0.7142857142857143,0.8571428571428571,0.0004
892,0.4339665472507477,1.4102294445037842,0.8846153846153846,0.9423076923076923,0.6428571428571429,0.7857142857142857,0.0004
893,0.42385973036289215,1.392104148864746,0.9038461538461539,0.9423076923076923,0.7857142857142857,0.7142857142857143,0.0004
894,0.4756014049053192,1.8699805736541748,0.8846153846153846,0.9423076923076923,0.5,0.7857142857142857,0.0004
895,0.47285303473472595,0.9780474305152893,0.8653846153846154,0.9038461538461539,0.7857142857142857,0.7857142857142857,0.0004
896,0.3441594988107681,0.7935516834259033,0.8846153846153846,0.9807692307692307,0.7142857142857143,0.8571428571428571,0.0004
897,0.43323642015457153,1.7176988124847412,0.8846153846153846,0.9423076923076923,0.5,0.7857142857142857,0.0004
898,0.37967267632484436,1.0789278745651245,0.9423076923076923,0.9423076923076923,0.7142857142857143,0.7142857142857143,0.0004
899,0.39589469134807587,1.2502107620239258,0.9423076923076923,0.9230769230769231,0.6428571428571429,0.7857142857142857,0.0004
900,0.43728499114513397,1.578310251235962,0.8653846153846154,0.9038461538461539,0.6428571428571429,0.7142857142857143,0.0004
901,0.5858869850635529,1.2752864360809326,0.8076923076923077,0.9038461538461539,0.6428571428571429,0.8571428571428571,0.0004
902,0.39075449109077454,2.579740047454834,0.8269230769230769,0.9423076923076923,0.42857142857142855,0.7142857142857143,0.0004
903,0.5484121441841125,0.9840369820594788,0.8461538461538461,0.9038461538461539,0.7142857142857143,0.7142857142857143,0.0004
904,0.3696321099996567,1.4231476783752441,0.9038461538461539,0.9615384615384616,0.5714285714285714,0.7857142857142857,0.0004
905,0.2984521687030792,1.5728840827941895,0.9615384615384616,0.9807692307692307,0.6428571428571429,0.7857142857142857,0.0004
906,0.4795956015586853,1.0018086433410645,0.8846153846153846,0.9230769230769231,0.7142857142857143,0.7142857142857143,0.0004
907,0.4595084637403488,1.4449963569641113,0.8846153846153846,0.9423076923076923,0.6428571428571429,0.8571428571428571,0.0004
908,0.40450164675712585,1.4897669553756714,0.9038461538461539,0.9615384615384616,0.6428571428571429,0.8571428571428571,0.0004
909,0.611242413520813,0.5652350187301636,0.8269230769230769,0.9423076923076923,0.7857142857142857,0.9285714285714286,0.0004
910,0.5043907761573792,1.8409655094146729,0.9038461538461539,0.9230769230769231,0.5714285714285714,0.6428571428571429,0.0004
911,0.6848625093698502,1.0947535037994385,0.8461538461538461,0.9038461538461539,0.7142857142857143,0.6428571428571429,0.0004
912,0.5303533673286438,1.077323079109192,0.8461538461538461,0.9423076923076923,0.7142857142857143,0.7142857142857143,0.0004
913,0.5913389623165131,0.7691569328308105,0.8846153846153846,0.9423076923076923,0.8571428571428571,0.7142857142857143,0.0004
914,0.2822897657752037,1.973633050918579,0.9423076923076923,0.9423076923076923,0.5,0.7857142857142857,0.0004
915,0.5420013964176178,1.1267356872558594,0.8076923076923077,0.9423076923076923,0.6428571428571429,0.8571428571428571,0.0004
916,0.30700691044330597,1.6968311071395874,0.9230769230769231,0.9230769230769231,0.5714285714285714,0.9285714285714286,0.0004
917,0.49837610125541687,2.225517749786377,0.8653846153846154,0.9423076923076923,0.6428571428571429,0.7857142857142857,0.0004
918,0.4779776930809021,1.7342431545257568,0.8846153846153846,0.9038461538461539,0.7142857142857143,0.7857142857142857,0.0004
919,0.44186654686927795,1.3790736198425293,0.8269230769230769,0.9615384615384616,0.7857142857142857,0.7142857142857143,0.0004
920,0.4028344601392746,1.0739918947219849,0.8846153846153846,0.9423076923076923,0.7142857142857143,0.7857142857142857,0.0004
921,0.45010997354984283,1.4280531406402588,0.8846153846153846,0.9615384615384616,0.7142857142857143,0.6428571428571429,0.0004
922,0.8326322734355927,2.2612063884735107,0.8076923076923077,0.8653846153846154,0.6428571428571429,0.5714285714285714,0.0004
923,0.4811521917581558,1.2289812564849854,0.9038461538461539,0.9038461538461539,0.7857142857142857,0.6428571428571429,0.0004
924,0.5127114728093147,1.00787353515625,0.8076923076923077,0.9230769230769231,0.7857142857142857,0.8571428571428571,0.0004
925,0.5090570449829102,1.0310213565826416,0.8076923076923077,0.9038461538461539,0.7857142857142857,0.8571428571428571,0.0004
926,0.4389188587665558,1.7362805604934692,0.8461538461538461,0.9423076923076923,0.5714285714285714,0.9285714285714286,0.0004
927,0.5149671137332916,1.455496072769165,0.8076923076923077,1.0,0.7142857142857143,0.9285714285714286,0.0004
928,0.420695960521698,1.2787320613861084,0.8846153846153846,0.9038461538461539,0.6428571428571429,0.8571428571428571,0.0004
929,0.40532782673835754,1.3609154224395752,0.8846153846153846,0.9230769230769231,0.5714285714285714,0.7857142857142857,0.0004
930,0.49144431948661804,0.6915625333786011,0.8461538461538461,0.9423076923076923,0.8571428571428571,0.7857142857142857,0.0004
931,0.2876662611961365,1.4222570657730103,0.9423076923076923,0.9423076923076923,0.7142857142857143,0.8571428571428571,0.0004
932,0.6392693817615509,1.1182305812835693,0.8653846153846154,0.9038461538461539,0.7857142857142857,0.7857142857142857,0.0004
933,0.5242877006530762,1.2770435810089111,0.8846153846153846,0.9038461538461539,0.7142857142857143,0.8571428571428571,0.0004
934,0.5910181999206543,1.0688854455947876,0.8653846153846154,0.8846153846153846,0.7857142857142857,0.7857142857142857,0.0004
935,0.37978583574295044,1.0209850072860718,0.9038461538461539,0.9230769230769231,0.5714285714285714,0.9285714285714286,0.0004
936,0.3875417560338974,1.5174856185913086,0.9423076923076923,0.9423076923076923,0.6428571428571429,0.7142857142857143,0.0004
937,0.42633485794067383,1.1620137691497803,0.8846153846153846,0.9423076923076923,0.7142857142857143,0.7857142857142857,0.0004
938,0.48476919531822205,0.7930265665054321,0.8846153846153846,0.9038461538461539,0.8571428571428571,0.7142857142857143,0.0004
939,0.7250572443008423,0.9207731485366821,0.7692307692307693,0.8846153846153846,0.7857142857142857,0.7142857142857143,0.0004
940,0.4293908476829529,1.2071747779846191,0.9038461538461539,0.9423076923076923,0.7142857142857143,0.8571428571428571,0.0004
941,0.7024707794189453,1.014045000076294,0.8461538461538461,0.9230769230769231,0.9285714285714286,0.6428571428571429,0.0004
942,0.5125193148851395,1.011444091796875,0.8269230769230769,0.9615384615384616,0.7142857142857143,0.7857142857142857,0.0004
943,0.399085134267807,0.4952129125595093,0.8269230769230769,0.9615384615384616,0.9285714285714286,0.8571428571428571,0.0004
944,0.5561912953853607,0.9005367755889893,0.8461538461538461,0.9038461538461539,0.7857142857142857,0.8571428571428571,0.0004
945,0.385423943400383,1.2040650844573975,0.9230769230769231,0.9038461538461539,0.8571428571428571,0.7142857142857143,0.0004
946,0.5676482915878296,1.5654423236846924,0.8076923076923077,0.9230769230769231,0.7142857142857143,0.7857142857142857,0.0004
947,0.44183264672756195,1.0890066623687744,0.8461538461538461,0.9615384615384616,0.7857142857142857,0.7857142857142857,0.0004
948,0.43682295083999634,1.3924095630645752,0.8846153846153846,0.8846153846153846,0.6428571428571429,0.7857142857142857,0.0004
949,0.3833439201116562,1.5102882385253906,0.9423076923076923,0.9423076923076923,0.6428571428571429,0.6428571428571429,0.0004
950,0.31023091077804565,1.372289776802063,0.8653846153846154,0.9615384615384616,0.7142857142857143,0.7142857142857143,0.0004
951,0.3657624274492264,1.0240484476089478,0.9230769230769231,0.9615384615384616,0.7142857142857143,0.6428571428571429,0.0004
952,0.5173497051000595,1.2741831541061401,0.8461538461538461,0.9423076923076923,0.7857142857142857,0.7142857142857143,0.0004
953,0.434707373380661,0.5979672074317932,0.8461538461538461,0.9423076923076923,0.8571428571428571,0.8571428571428571,0.0004
954,0.39649856090545654,0.9712361097335815,0.8846153846153846,0.9423076923076923,0.7142857142857143,0.7857142857142857,0.0004
955,0.46391943097114563,1.4906169176101685,0.9230769230769231,0.8846153846153846,0.6428571428571429,0.8571428571428571,0.0004
956,0.5391229838132858,1.4267868995666504,0.8461538461538461,0.9423076923076923,0.5714285714285714,0.8571428571428571,0.0004
957,0.41353175044059753,0.9047273397445679,0.8846153846153846,0.9615384615384616,0.6428571428571429,0.7142857142857143,0.0004
958,0.45245106518268585,1.237404465675354,0.8269230769230769,0.9807692307692307,0.6428571428571429,0.8571428571428571,0.0004
959,0.33353087306022644,1.1455427408218384,0.9230769230769231,0.9423076923076923,0.7142857142857143,0.8571428571428571,0.0004
960,0.6088973730802536,0.8634312152862549,0.8461538461538461,0.9615384615384616,0.7142857142857143,0.8571428571428571,0.0004
961,0.46928870677948,1.07472825050354,0.8653846153846154,0.9423076923076923,0.7857142857142857,0.7857142857142857,0.0004
962,0.314064085483551,1.2066669464111328,0.9807692307692307,0.9423076923076923,0.7142857142857143,0.8571428571428571,0.0004
963,0.44911032915115356,1.842680811882019,0.8846153846153846,0.9423076923076923,0.5714285714285714,0.7142857142857143,0.0004
964,0.3427339941263199,0.9837580919265747,0.9423076923076923,0.9615384615384616,0.8571428571428571,0.8571428571428571,0.0004
965,0.4850086569786072,0.7037602066993713,0.9230769230769231,0.9423076923076923,0.9285714285714286,0.7142857142857143,0.0004
966,0.7117697298526764,1.4200172424316406,0.8461538461538461,0.9230769230769231,0.7857142857142857,0.5714285714285714,0.0004
967,0.9529291391372681,1.3964506387710571,0.8076923076923077,0.8461538461538461,0.5714285714285714,0.7142857142857143,0.0004
968,0.4124210923910141,1.0394480228424072,0.9038461538461539,0.9423076923076923,0.8571428571428571,0.8571428571428571,0.0004
969,0.4905822277069092,0.954307496547699,0.9230769230769231,0.9230769230769231,0.7857142857142857,0.7857142857142857,0.0004
970,0.5158036649227142,2.097689628601074,0.8846153846153846,0.9615384615384616,0.7142857142857143,0.6428571428571429,0.0004
971,0.3367707431316376,1.1454311609268188,0.9615384615384616,0.9423076923076923,0.7142857142857143,0.7857142857142857,0.0004
972,0.382593035697937,1.7466553449630737,0.9230769230769231,0.9038461538461539,0.7857142857142857,0.5714285714285714,0.0004
973,0.6124406158924103,0.7929931879043579,0.8269230769230769,0.8846153846153846,0.8571428571428571,0.6428571428571429,0.0004
974,0.4469306766986847,1.4737193584442139,0.8846153846153846,0.9230769230769231,0.7857142857142857,0.7142857142857143,0.0004
975,0.527968168258667,1.5006271600723267,0.8461538461538461,0.9038461538461539,0.5714285714285714,0.7857142857142857,0.0004
976,0.547808974981308,1.6982057094573975,0.8269230769230769,0.9038461538461539,0.6428571428571429,0.7142857142857143,0.0004
977,0.4708101451396942,1.0216809511184692,0.8461538461538461,0.9423076923076923,0.7857142857142857,0.7857142857142857,0.0004
