epoch,train_loss,val_loss,train_acc_action,train_acc_status,val_acc_action,val_acc_status,learning_rate
1,1.6608794927597046,1.537778615951538,0.3076923076923077,0.8269230769230769,0.4285714285714285,0.8571428571428571,0.0004
2,1.6441893577575684,1.7799921035766602,0.3076923076923077,0.8269230769230769,0.3571428571428571,0.8571428571428571,0.0049950668210706
3,1.760728359222412,1.5517168045043943,0.2884615384615384,0.8269230769230769,0.2142857142857142,0.8571428571428571,0.0049802867532861
4,1.6448147296905518,1.6565043926239014,0.3846153846153846,0.8269230769230769,0.2142857142857142,0.8571428571428571,0.0049557181268217
5,1.583504557609558,1.5814882516860962,0.3653846153846153,0.8269230769230769,0.2142857142857142,0.8571428571428571,0.0049214579028215
6,1.5860822200775146,1.5296727418899536,0.3461538461538461,0.8269230769230769,0.3571428571428571,0.8571428571428571,0.0048776412907378
7,1.5768584609031675,1.5256624221801758,0.3461538461538461,0.8269230769230769,0.3571428571428571,0.8571428571428571,0.0048244412147206
8,1.6005558967590332,1.5261847972869873,0.3269230769230769,0.8269230769230769,0.3571428571428571,0.8571428571428571,0.004762067631165
9,1.568463921546936,1.5229718685150146,0.3269230769230769,0.8269230769230769,0.3571428571428571,0.8571428571428571,0.0046907667001096
10,1.5549517273902893,1.5404129028320312,0.3846153846153846,0.8269230769230769,0.2142857142857142,0.8571428571428571,0.004610819813755
11,1.557410180568695,1.5787632465362549,0.3653846153846153,0.8269230769230769,0.2142857142857142,0.8571428571428571,0.0045225424859373
12,1.584461688995361,1.6004832983016968,0.3653846153846153,0.8269230769230769,0.2142857142857142,0.8571428571428571,0.0044262831069394
13,1.6295859813690186,1.5854108333587646,0.3653846153846153,0.8269230769230769,0.2142857142857142,0.8571428571428571,0.0043224215685535
14,1.553859829902649,1.559479832649231,0.3653846153846153,0.8269230769230769,0.2142857142857142,0.8571428571428571,0.0042113677648217
15,1.530190408229828,1.5323227643966677,0.3653846153846153,0.8269230769230769,0.2142857142857142,0.8571428571428571,0.0040935599743717
16,1.5587014555931091,1.524158954620361,0.3653846153846153,0.8269230769230769,0.2142857142857142,0.8571428571428571,0.0039694631307311
17,1.5490649938583374,1.5163999795913696,0.4038461538461538,0.8269230769230769,0.3571428571428571,0.8571428571428571,0.0038395669874474
18,1.5571852922439575,1.513302206993103,0.2692307692307692,0.8269230769230769,0.3571428571428571,0.8571428571428571,0.0037043841852542
19,1.5766654014587402,1.5119396448135376,0.3076923076923077,0.8269230769230769,0.3571428571428571,0.8571428571428571,0.0035644482289126
20,1.5833126306533811,1.5143752098083496,0.2884615384615384,0.8269230769230769,0.3571428571428571,0.8571428571428571,0.0034203113817116
21,1.553222954273224,1.5187547206878662,0.2884615384615384,0.8269230769230769,0.3571428571428571,0.8571428571428571,0.0032725424859373
22,1.5479549765586853,1.5231928825378418,0.3461538461538461,0.8269230769230769,0.3571428571428571,0.8571428571428571,0.0031217247179121
23,1.5660202503204346,1.52640962600708,0.3653846153846153,0.8269230769230769,0.3571428571428571,0.8571428571428571,0.0029684532864643
24,1.5904338955879211,1.5306304693222046,0.3076923076923077,0.8269230769230769,0.2142857142857142,0.8571428571428571,0.0028133330839107
25,1.570309579372406,1.5357593297958374,0.3461538461538461,0.8269230769230769,0.2142857142857142,0.8571428571428571,0.0026569762988232
26,1.5450778007507324,1.5393376350402832,0.3846153846153846,0.8269230769230769,0.2142857142857142,0.8571428571428571,0.0025
27,1.562660276889801,1.543718338012695,0.3653846153846153,0.8269230769230769,0.2142857142857142,0.8571428571428571,0.0023430237011767
28,1.558260798454285,1.5440667867660522,0.3653846153846153,0.8269230769230769,0.2142857142857142,0.8571428571428571,0.0021866669160892
29,1.5774236917495728,1.542302131652832,0.3653846153846153,0.8269230769230769,0.2142857142857142,0.8571428571428571,0.0020315467135356
30,1.5673859119415283,1.5403575897216797,0.3653846153846153,0.8269230769230769,0.2142857142857142,0.8571428571428571,0.0018782752820878
31,1.5409473776817322,1.5391072034835815,0.3653846153846153,0.8269230769230769,0.2142857142857142,0.8571428571428571,0.0017274575140626
32,1.5634783506393433,1.5362632274627686,0.3653846153846153,0.8269230769230769,0.2142857142857142,0.8571428571428571,0.0015796886182883
33,1.5660945177078247,1.5362679958343506,0.3653846153846153,0.8269230769230769,0.2142857142857142,0.8571428571428571,0.0014355517710873
34,1.572344422340393,1.536428689956665,0.3653846153846153,0.8269230769230769,0.2142857142857142,0.8571428571428571,0.0012956158147457
35,1.5371434092521667,1.5364198684692385,0.3461538461538461,0.8269230769230769,0.2142857142857142,0.8571428571428571,0.0011604330125525
36,1.506258249282837,1.5358763933181765,0.3653846153846153,0.8269230769230769,0.2142857142857142,0.8571428571428571,0.0010305368692688
37,1.5505258440971377,1.535069465637207,0.3653846153846153,0.8269230769230769,0.2142857142857142,0.8571428571428571,0.0009064400256282
38,1.577505588531494,1.534278392791748,0.3653846153846153,0.8269230769230769,0.2142857142857142,0.8571428571428571,0.0007886322351782
39,1.5746665000915527,1.534038782119751,0.3846153846153846,0.8269230769230769,0.2142857142857142,0.8571428571428571,0.0006775784314464
40,1.5542966723442078,1.5338209867477417,0.3653846153846153,0.8269230769230769,0.2142857142857142,0.8571428571428571,0.0005737168930605
41,1.5506545901298523,1.5330393314361572,0.3653846153846153,0.8269230769230769,0.2142857142857142,0.8571428571428571,0.0004774575140626
42,1.5540812611579895,1.5323615074157717,0.3846153846153846,0.8269230769230769,0.2142857142857142,0.8571428571428571,0.0003891801862449
43,1.5679693222045898,1.5322444438934326,0.3653846153846153,0.8269230769230769,0.2142857142857142,0.8571428571428571,0.0003092332998903
44,1.5422084331512451,1.53204345703125,0.3653846153846153,0.8269230769230769,0.2142857142857142,0.8571428571428571,0.0002379323688349
45,1.5655805468559263,1.5320743322372437,0.3653846153846153,0.8269230769230769,0.2142857142857142,0.8571428571428571,0.0001755587852793
46,1.5366201996803284,1.5320833921432495,0.3461538461538461,0.8269230769230769,0.2142857142857142,0.8571428571428571,0.0001223587092621
47,1.5748775005340576,1.53202486038208,0.3653846153846153,0.8269230769230769,0.2142857142857142,0.8571428571428571,7.854209717842258e-05
48,1.5400267243385315,1.5319721698760986,0.4038461538461538,0.8269230769230769,0.2142857142857142,0.8571428571428571,4.42818731782782e-05
49,1.5814974308013916,1.5319489240646362,0.3461538461538461,0.8269230769230769,0.2142857142857142,0.8571428571428571,1.9713246713805587e-05
50,1.5662603378295898,1.5319411754608154,0.3461538461538461,0.8269230769230769,0.2142857142857142,0.8571428571428571,4.933178929321102e-06
51,1.5502777099609375,1.5271416902542114,0.3846153846153846,0.8269230769230769,0.2142857142857142,0.8571428571428571,0.005
52,1.5550360083580017,1.5246050357818604,0.25,0.8269230769230769,0.4285714285714285,0.8571428571428571,0.0049987664009143
53,1.5400317907333374,1.530162334442139,0.3269230769230769,0.8269230769230769,0.2142857142857142,0.8571428571428571,0.0049950668210706
54,1.5528914332389832,1.5274995565414429,0.3653846153846153,0.8269230769230769,0.2142857142857142,0.8571428571428571,0.0049889049115077
55,1.5835834741592407,1.52118182182312,0.2884615384615384,0.8269230769230769,0.2142857142857142,0.8571428571428571,0.0049802867532861
56,1.5666550397872925,1.518531322479248,0.4038461538461538,0.8269230769230769,0.2142857142857142,0.8571428571428571,0.0049692208514878
57,1.573166847229004,1.523395299911499,0.3653846153846153,0.8269230769230769,0.2142857142857142,0.8571428571428571,0.0049557181268217
58,1.5484574437141418,1.5318715572357178,0.3653846153846153,0.8269230769230769,0.2142857142857142,0.8571428571428571,0.0049397919048468
59,1.547950565814972,1.5453039407730105,0.3461538461538461,0.8269230769230769,0.2142857142857142,0.8571428571428571,0.0049214579028215
60,1.5384580492973328,1.5564773082733154,0.3653846153846153,0.8269230769230769,0.2142857142857142,0.8571428571428571,0.0049007342141923
61,1.5511701107025146,1.5506340265274048,0.3653846153846153,0.8269230769230769,0.2142857142857142,0.8571428571428571,0.0048776412907378
62,1.5718652606010437,1.5415356159210205,0.3653846153846153,0.8269230769230769,0.2142857142857142,0.8571428571428571,0.0048522019223855
63,1.566020429134369,1.530247688293457,0.3653846153846153,0.8269230769230769,0.2142857142857142,0.8571428571428571,0.0048244412147206
64,1.561569333076477,1.5255287885665894,0.3653846153846153,0.8269230769230769,0.2142857142857142,0.8571428571428571,0.0047943865642099
65,1.5961015820503237,1.5196292400360107,0.3846153846153846,0.8269230769230769,0.2142857142857142,0.8571428571428571,0.004762067631165
66,1.5606178045272827,1.5161864757537842,0.4038461538461538,0.8269230769230769,0.2142857142857142,0.8571428571428571,0.0047275163104709
67,1.55116468667984,1.5143308639526367,0.3653846153846153,0.8269230769230769,0.3571428571428571,0.8571428571428571,0.0046907667001096
68,1.551003873348236,1.5221410989761353,0.3846153846153846,0.8269230769230769,0.3571428571428571,0.8571428571428571,0.0046518550675098
69,1.5840787291526794,1.5347473621368408,0.25,0.8269230769230769,0.2142857142857142,0.8571428571428571,0.004610819813755
70,1.519261121749878,1.5479189157485962,0.3653846153846153,0.8269230769230769,0.2142857142857142,0.8571428571428571,0.0045677014356864
71,1.5419825315475464,1.5543721914291382,0.3653846153846153,0.8269230769230769,0.2142857142857142,0.8571428571428571,0.0045225424859373
72,1.5366906523704529,1.5601258277893066,0.3653846153846153,0.8269230769230769,0.2142857142857142,0.8571428571428571,0.0044753875309392
73,1.570032000541687,1.5639116764068604,0.3653846153846153,0.8269230769230769,0.2142857142857142,0.8571428571428571,0.0044262831069394
74,1.5515609383583069,1.5607450008392334,0.3653846153846153,0.8269230769230769,0.2142857142857142,0.8571428571428571,0.0043752776740761
75,1.545337796211243,1.5513904094696045,0.3653846153846153,0.8269230769230769,0.2142857142857142,0.8571428571428571,0.0043224215685535
76,1.5535783767700195,1.5459710359573364,0.3653846153846153,0.8269230769230769,0.2142857142857142,0.8571428571428571,0.0042677669529663
77,1.560788333415985,1.5389797687530518,0.3653846153846153,0.8269230769230769,0.2142857142857142,0.8571428571428571,0.0042113677648217
78,1.5581040382385254,1.5272486209869385,0.3653846153846153,0.8269230769230769,0.2142857142857142,0.8571428571428571,0.0041532796633091
79,1.5601420998573303,1.5220825672149658,0.3653846153846153,0.8269230769230769,0.2142857142857142,0.8571428571428571,0.0040935599743717
80,1.5870660543441772,1.5210158824920654,0.3461538461538461,0.8269230769230769,0.2142857142857142,0.8571428571428571,0.0040322676341324
81,1.5489291548728945,1.5186444520950315,0.3269230769230769,0.8269230769230769,0.2142857142857142,0.8571428571428571,0.0039694631307311
82,1.5721924304962158,1.5118484497070312,0.3076923076923077,0.8269230769230769,0.4285714285714285,0.8571428571428571,0.0039052084446303
83,1.575875997543335,1.5125716924667358,0.3076923076923077,0.8269230769230769,0.3571428571428571,0.8571428571428571,0.0038395669874474
84,1.5567238926887512,1.5178444385528564,0.3653846153846153,0.8269230769230769,0.3571428571428571,0.8571428571428571,0.0037726035393759
85,1.5994923114776611,1.5204410552978516,0.3461538461538461,0.8269230769230769,0.2142857142857142,0.8571428571428571,0.0037043841852542
86,1.5665066242218018,1.5270521640777588,0.4615384615384615,0.8269230769230769,0.2142857142857142,0.8571428571428571,0.0036349762493488
87,1.5539942979812622,1.533892273902893,0.3461538461538461,0.8269230769230769,0.2142857142857142,0.8571428571428571,0.0035644482289126
88,1.5535579919815063,1.540781021118164,0.3653846153846153,0.8269230769230769,0.2142857142857142,0.8571428571428571,0.0034928697265869
89,1.586252212524414,1.544864535331726,0.3653846153846153,0.8269230769230769,0.2142857142857142,0.8571428571428571,0.0034203113817116
90,1.5643703937530518,1.5459554195404053,0.3653846153846153,0.8269230769230769,0.2142857142857142,0.8571428571428571,0.0033468448006132
91,1.582114040851593,1.546410083770752,0.3461538461538461,0.8269230769230769,0.2142857142857142,0.8571428571428571,0.0032725424859373
92,1.5371793508529663,1.5486551523208618,0.3653846153846153,0.8269230769230769,0.2142857142857142,0.8571428571428571,0.003197477765098
93,1.5642685890197754,1.5491105318069458,0.3653846153846153,0.8269230769230769,0.2142857142857142,0.8571428571428571,0.0031217247179121
94,1.5548120737075806,1.5462253093719482,0.3653846153846153,0.8269230769230769,0.2142857142857142,0.8571428571428571,0.0030453581034913
95,1.569427728652954,1.5404950380325315,0.3653846153846153,0.8269230769230769,0.2142857142857142,0.8571428571428571,0.0029684532864643
96,1.542616069316864,1.5371471643447876,0.3653846153846153,0.8269230769230769,0.2142857142857142,0.8571428571428571,0.0028910861626005
97,1.6179141402244568,1.5361993312835691,0.3653846153846153,0.8269230769230769,0.2142857142857142,0.8571428571428571,0.0028133330839107
98,1.570965051651001,1.5321568250656128,0.3653846153846153,0.8269230769230769,0.2142857142857142,0.8571428571428571,0.0027352707832962
99,1.5370487570762634,1.530362606048584,0.4038461538461538,0.8269230769230769,0.2142857142857142,0.8571428571428571,0.0026569762988232
100,1.579455554485321,1.527787208557129,0.3653846153846153,0.8269230769230769,0.2142857142857142,0.8571428571428571,0.0025785268976953
101,1.5742759108543396,1.52341890335083,0.3653846153846153,0.8269230769230769,0.2142857142857142,0.8571428571428571,0.0025
102,1.5384650230407717,1.5219948291778564,0.3653846153846153,0.8269230769230769,0.2142857142857142,0.8571428571428571,0.0024214731023046
103,1.5275731682777405,1.523983120918274,0.3846153846153846,0.8269230769230769,0.2142857142857142,0.8571428571428571,0.0023430237011767
104,1.5707773566246033,1.525260329246521,0.3846153846153846,0.8269230769230769,0.2142857142857142,0.8571428571428571,0.0022647292167037
105,1.5366389751434326,1.5261592864990234,0.3653846153846153,0.8269230769230769,0.2142857142857142,0.8571428571428571,0.0021866669160892
106,1.5816231966018677,1.528395414352417,0.3461538461538461,0.8269230769230769,0.2142857142857142,0.8571428571428571,0.0021089138373994
107,1.5856599807739258,1.5311238765716553,0.3653846153846153,0.8269230769230769,0.2142857142857142,0.8571428571428571,0.0020315467135356
108,1.5556981563568115,1.5341874361038208,0.3653846153846153,0.8269230769230769,0.2142857142857142,0.8571428571428571,0.0019546418965086
109,1.5935583114624023,1.5374175310134888,0.3846153846153846,0.8269230769230769,0.2142857142857142,0.8571428571428571,0.0018782752820878
110,1.5293642282485962,1.5377821922302246,0.3653846153846153,0.8269230769230769,0.2142857142857142,0.8571428571428571,0.0018025222349019
111,1.5522125959396362,1.5360093116760254,0.3653846153846153,0.8269230769230769,0.2142857142857142,0.8571428571428571,0.0017274575140626
112,1.542014479637146,1.5350337028503418,0.3653846153846153,0.8269230769230769,0.2142857142857142,0.8571428571428571,0.0016531551993867
113,1.524294912815094,1.532341241836548,0.3653846153846153,0.8269230769230769,0.2142857142857142,0.8571428571428571,0.0015796886182883
114,1.5737433433532717,1.529006004333496,0.3653846153846153,0.8269230769230769,0.2142857142857142,0.8571428571428571,0.001507130273413
115,1.5933979749679563,1.526373267173767,0.3846153846153846,0.8269230769230769,0.2142857142857142,0.8571428571428571,0.0014355517710873
116,1.5494707822799685,1.524837613105774,0.3653846153846153,0.8269230769230769,0.2142857142857142,0.8571428571428571,0.0013650237506511
117,1.5670261979103088,1.5248368978500366,0.3653846153846153,0.8269230769230769,0.2142857142857142,0.8571428571428571,0.0012956158147457
118,1.5487068891525269,1.5244759321212769,0.3461538461538461,0.8269230769230769,0.2142857142857142,0.8571428571428571,0.001227396460624
119,1.575133502483368,1.5232882499694824,0.3653846153846153,0.8269230769230769,0.2142857142857142,0.8571428571428571,0.0011604330125525
120,1.5316829681396484,1.5245758295059204,0.3653846153846153,0.8269230769230769,0.2142857142857142,0.8571428571428571,0.0010947915553696
121,1.5338812470436096,1.52433180809021,0.3653846153846153,0.8269230769230769,0.2142857142857142,0.8571428571428571,0.0010305368692688
122,1.5457483530044556,1.5256682634353638,0.3653846153846153,0.8269230769230769,0.2142857142857142,0.8571428571428571,0.0009677323658675
123,1.5312422513961792,1.5272376537322998,0.3846153846153846,0.8269230769230769,0.2142857142857142,0.8571428571428571,0.0009064400256282
124,1.5412341952323914,1.52886962890625,0.3461538461538461,0.8269230769230769,0.2142857142857142,0.8571428571428571,0.0008467203366908
125,1.5693516731262207,1.5297605991363523,0.3653846153846153,0.8269230769230769,0.2142857142857142,0.8571428571428571,0.0007886322351782
126,1.5671305656433103,1.5291273593902588,0.3846153846153846,0.8269230769230769,0.2142857142857142,0.8571428571428571,0.0007322330470336
127,1.55829918384552,1.5292117595672607,0.3653846153846153,0.8269230769230769,0.2142857142857142,0.8571428571428571,0.0006775784314464
128,1.5377352237701416,1.5295510292053225,0.3269230769230769,0.8269230769230769,0.2142857142857142,0.8571428571428571,0.0006247223259238
129,1.5373839735984802,1.5297752618789673,0.3461538461538461,0.8269230769230769,0.2142857142857142,0.8571428571428571,0.0005737168930605
130,1.5442609786987305,1.5304560661315918,0.3653846153846153,0.8269230769230769,0.2142857142857142,0.8571428571428571,0.0005246124690607
131,1.5732507705688477,1.5312018394470217,0.3846153846153846,0.8269230769230769,0.2142857142857142,0.8571428571428571,0.0004774575140626
132,1.592043161392212,1.531833291053772,0.3846153846153846,0.8269230769230769,0.2142857142857142,0.8571428571428571,0.0004322985643135
133,1.5150865316390991,1.5322904586791992,0.3846153846153846,0.8269230769230769,0.2142857142857142,0.8571428571428571,0.0003891801862449
134,1.551829755306244,1.532478094100952,0.3653846153846153,0.8269230769230769,0.2142857142857142,0.8571428571428571,0.0003481449324901
135,1.5834201574325562,1.532447338104248,0.3653846153846153,0.8269230769230769,0.2142857142857142,0.8571428571428571,0.0003092332998903
136,1.5694668292999268,1.532433271408081,0.3653846153846153,0.8269230769230769,0.2142857142857142,0.8571428571428571,0.000272483689529
137,1.546104907989502,1.5323985815048218,0.3653846153846153,0.8269230769230769,0.2142857142857142,0.8571428571428571,0.0002379323688349
138,1.542716920375824,1.5324933528900146,0.3846153846153846,0.8269230769230769,0.2142857142857142,0.8571428571428571,0.00020561343579
139,1.5780328512191772,1.5325696468353271,0.3653846153846153,0.8269230769230769,0.2142857142857142,0.8571428571428571,0.0001755587852793
140,1.5615840554237366,1.532738447189331,0.3653846153846153,0.8269230769230769,0.2142857142857142,0.8571428571428571,0.0001477980776144
141,1.5570194125175476,1.532848834991455,0.3653846153846153,0.8269230769230769,0.2142857142857142,0.8571428571428571,0.0001223587092621
142,1.53458571434021,1.5329264402389526,0.3653846153846153,0.8269230769230769,0.2142857142857142,0.8571428571428571,9.926578580764262e-05
143,1.5577124953269958,1.532872200012207,0.3653846153846153,0.8269230769230769,0.2142857142857142,0.8571428571428571,7.854209717842258e-05
144,1.542417824268341,1.5328608751296997,0.3653846153846153,0.8269230769230769,0.2142857142857142,0.8571428571428571,6.0208095153131695e-05
145,1.5344394445419312,1.5329090356826782,0.3653846153846153,0.8269230769230769,0.2142857142857142,0.8571428571428571,4.42818731782782e-05
146,1.563271403312683,1.532923936843872,0.3653846153846153,0.8269230769230769,0.2142857142857142,0.8571428571428571,3.077914851215585e-05
147,1.5863840579986572,1.5329437255859375,0.3653846153846153,0.8269230769230769,0.2142857142857142,0.8571428571428571,1.9713246713805587e-05
148,1.54668527841568,1.532955765724182,0.3653846153846153,0.8269230769230769,0.2142857142857142,0.8571428571428571,1.109508849230001e-05
149,1.573596179485321,1.5329623222351074,0.3653846153846153,0.8269230769230769,0.2142857142857142,0.8571428571428571,4.933178929321102e-06
150,1.6068689227104187,1.5329644680023191,0.3653846153846153,0.8269230769230769,0.2142857142857142,0.8571428571428571,1.233599085671e-06
151,1.545624315738678,1.5446557998657229,0.3269230769230769,0.8269230769230769,0.2142857142857142,0.8571428571428571,0.005
152,1.5698513984680176,1.5502784252166748,0.3653846153846153,0.8269230769230769,0.2142857142857142,0.8571428571428571,0.0049996915812041
153,1.575151801109314,1.5581848621368408,0.3653846153846153,0.8269230769230769,0.2142857142857142,0.8571428571428571,0.0049987664009143
154,1.551214575767517,1.554531812667847,0.3653846153846153,0.8269230769230769,0.2142857142857142,0.8571428571428571,0.0049972246874049
155,1.559694230556488,1.5503641366958618,0.3653846153846153,0.8269230769230769,0.2142857142857142,0.8571428571428571,0.0049950668210706
156,1.5421945452690125,1.5429081916809082,0.3653846153846153,0.8269230769230769,0.2142857142857142,0.8571428571428571,0.0049922933343328
157,1.608221173286438,1.5378152132034302,0.3653846153846153,0.8269230769230769,0.2142857142857142,0.8571428571428571,0.0049889049115077
158,1.5582955479621887,1.529195785522461,0.3653846153846153,0.8269230769230769,0.2142857142857142,0.8571428571428571,0.0049849023886379
159,1.5519554615020752,1.5252749919891355,0.3461538461538461,0.8269230769230769,0.2142857142857142,0.8571428571428571,0.0049802867532861
160,1.5442672967910769,1.5241942405700684,0.3461538461538461,0.8269230769230769,0.2142857142857142,0.8571428571428571,0.0049750591442913
161,1.599433660507202,1.5297625064849854,0.3461538461538461,0.8269230769230769,0.2142857142857142,0.8571428571428571,0.0049692208514878
162,1.5403349995613098,1.539071559906006,0.3653846153846153,0.8269230769230769,0.2142857142857142,0.8571428571428571,0.0049627733153869
163,1.5553913712501526,1.535915493965149,0.3653846153846153,0.8269230769230769,0.2142857142857142,0.8571428571428571,0.0049557181268217
164,1.5652756690979004,1.5284044742584229,0.3461538461538461,0.8269230769230769,0.2142857142857142,0.8571428571428571,0.0049480570265544
165,1.562700629234314,1.52665114402771,0.3076923076923077,0.8269230769230769,0.2142857142857142,0.8571428571428571,0.0049397919048468
166,1.5841650366783142,1.5188542604446411,0.3461538461538461,0.8269230769230769,0.2142857142857142,0.8571428571428571,0.0049309248009941
167,1.5715491771697998,1.514189839363098,0.2692307692307692,0.8269230769230769,0.2142857142857142,0.8571428571428571,0.0049214579028215
168,1.5341772437095642,1.513764500617981,0.3461538461538461,0.8269230769230769,0.2142857142857142,0.8571428571428571,0.0049113935461444
169,1.537983536720276,1.5195891857147217,0.3653846153846153,0.8269230769230769,0.2142857142857142,0.8571428571428571,0.0049007342141923
170,1.535930633544922,1.5239568948745728,0.3269230769230769,0.8269230769230769,0.2142857142857142,0.8571428571428571,0.0048894825369958
171,1.605138897895813,1.527318239212036,0.3269230769230769,0.8269230769230769,0.2142857142857142,0.8571428571428571,0.0048776412907378
172,1.56302672624588,1.5294493436813354,0.3653846153846153,0.8269230769230769,0.2142857142857142,0.8571428571428571,0.0048652133970688
173,1.5541931986808777,1.5311108827590942,0.3653846153846153,0.8269230769230769,0.2142857142857142,0.8571428571428571,0.0048522019223855
174,1.538016676902771,1.5394243001937866,0.3653846153846153,0.8269230769230769,0.2142857142857142,0.8571428571428571,0.0048386100770746
175,1.5692126154899595,1.5431828498840332,0.3653846153846153,0.8269230769230769,0.2142857142857142,0.8571428571428571,0.0048244412147206
176,1.5601051449775696,1.5480931997299194,0.3653846153846153,0.8269230769230769,0.2142857142857142,0.8571428571428571,0.0048096988312782
177,1.5672089457511902,1.5498738288879397,0.3653846153846153,0.8269230769230769,0.2142857142857142,0.8571428571428571,0.0047943865642099
178,1.5778176188468933,1.5475952625274658,0.3461538461538461,0.8269230769230769,0.2142857142857142,0.8571428571428571,0.0047785081915886
179,1.5721253156661987,1.5399625301361084,0.2692307692307692,0.8269230769230769,0.2142857142857142,0.8571428571428571,0.004762067631165
180,1.546919882297516,1.5357145071029663,0.3846153846153846,0.8269230769230769,0.2142857142857142,0.8571428571428571,0.0047450689394015
181,1.560534656047821,1.5366637706756592,0.3653846153846153,0.8269230769230769,0.2142857142857142,0.8571428571428571,0.0047275163104709
182,1.5796951055526731,1.537233591079712,0.3269230769230769,0.8269230769230769,0.2142857142857142,0.8571428571428571,0.0047094140752217
183,1.5700267553329468,1.5384174585342407,0.3653846153846153,0.8269230769230769,0.2142857142857142,0.8571428571428571,0.0046907667001096
184,1.5331549048423767,1.53497576713562,0.3653846153846153,0.8269230769230769,0.2142857142857142,0.8571428571428571,0.0046715787860954
185,1.5304111242294312,1.530303716659546,0.3461538461538461,0.8269230769230769,0.2142857142857142,0.8571428571428571,0.0046518550675098
186,1.5501725673675537,1.5312196016311646,0.3653846153846153,0.8269230769230769,0.2142857142857142,0.8571428571428571,0.0046316004108852
187,1.558498501777649,1.533493995666504,0.3653846153846153,0.8269230769230769,0.2142857142857142,0.8571428571428571,0.004610819813755
188,1.585946261882782,1.5289591550827026,0.3461538461538461,0.8269230769230769,0.2142857142857142,0.8571428571428571,0.0045895184034206
189,1.5487821698188782,1.530922532081604,0.3653846153846153,0.8269230769230769,0.2142857142857142,0.8571428571428571,0.0045677014356864
190,1.6012966632843018,1.538729190826416,0.3653846153846153,0.8269230769230769,0.2142857142857142,0.8571428571428571,0.0045453742935625
191,1.554158866405487,1.5420496463775637,0.3653846153846153,0.8269230769230769,0.2142857142857142,0.8571428571428571,0.0045225424859373
192,1.615769386291504,1.5443073511123655,0.3653846153846153,0.8269230769230769,0.2142857142857142,0.8571428571428571,0.0044992116462177
193,1.562775194644928,1.5483574867248535,0.3653846153846153,0.8269230769230769,0.2142857142857142,0.8571428571428571,0.0044753875309392
194,1.5699962377548218,1.545994520187378,0.3461538461538461,0.8269230769230769,0.3571428571428571,0.8571428571428571,0.0044510760183458
195,1.5585497617721558,1.5428001880645752,0.3846153846153846,0.8269230769230769,0.2142857142857142,0.8571428571428571,0.0044262831069394
196,1.5514272451400757,1.5386015176773071,0.3269230769230769,0.8269230769230769,0.2142857142857142,0.8571428571428571,0.004401014914
197,1.5605350732803345,1.5310331583023071,0.3269230769230769,0.8269230769230769,0.2142857142857142,0.8571428571428571,0.0043752776740761
198,1.553660213947296,1.5244379043579102,0.3653846153846153,0.8269230769230769,0.2142857142857142,0.8571428571428571,0.0043490777374465
199,1.5434765219688416,1.5217506885528564,0.3653846153846153,0.8269230769230769,0.2142857142857142,0.8571428571428571,0.0043224215685535
200,1.5572577714920044,1.522394776344299,0.3653846153846153,0.8269230769230769,0.2142857142857142,0.8571428571428571,0.0042953157444079
201,1.5534430146217346,1.5237776041030884,0.3461538461538461,0.8269230769230769,0.2142857142857142,0.8571428571428571,0.0042677669529663
202,1.5440394878387451,1.5263075828552246,0.3653846153846153,0.8269230769230769,0.2142857142857142,0.8571428571428571,0.0042397819914807
203,1.5547796487808228,1.5263313055038452,0.3653846153846153,0.8269230769230769,0.2142857142857142,0.8571428571428571,0.0042113677648217
204,1.5603936314582825,1.5280578136444092,0.3653846153846153,0.8269230769230769,0.2142857142857142,0.8571428571428571,0.0041825312837744
205,1.5405731797218325,1.5253262519836426,0.3653846153846153,0.8269230769230769,0.2142857142857142,0.8571428571428571,0.0041532796633091
206,1.5499607920646667,1.5277650356292725,0.3461538461538461,0.8269230769230769,0.2142857142857142,0.8571428571428571,0.0041236201208254
207,1.5314813256263733,1.530720591545105,0.3653846153846153,0.8269230769230769,0.2142857142857142,0.8571428571428571,0.0040935599743717
208,1.579777479171753,1.5310245752334597,0.3653846153846153,0.8269230769230769,0.2142857142857142,0.8571428571428571,0.0040631066408392
209,1.5654852986335754,1.5355116128921509,0.3653846153846153,0.8269230769230769,0.2142857142857142,0.8571428571428571,0.0040322676341324
210,1.5700162649154663,1.5363099575042725,0.3653846153846153,0.8269230769230769,0.2142857142857142,0.8571428571428571,0.0040010505633147
211,1.5524831414222715,1.5414799451828003,0.3846153846153846,0.8269230769230769,0.2142857142857142,0.8571428571428571,0.0039694631307311
212,1.5905044078826904,1.5436029434204102,0.3846153846153846,0.8269230769230769,0.3571428571428571,0.8571428571428571,0.0039375131301081
213,1.5441612005233765,1.5454071760177612,0.3076923076923077,0.8269230769230769,0.3571428571428571,0.8571428571428571,0.0039052084446303
214,1.5910074710845947,1.5426421165466309,0.3461538461538461,0.8269230769230769,0.3571428571428571,0.8571428571428571,0.0038725570449953
215,1.5932358503341677,1.542667031288147,0.3076923076923077,0.8269230769230769,0.2142857142857142,0.8571428571428571,0.0038395669874474
216,1.518469750881195,1.5388588905334473,0.4423076923076923,0.8269230769230769,0.2142857142857142,0.8571428571428571,0.0038062464117898
217,1.5389191508293152,1.533505916595459,0.3269230769230769,0.8269230769230769,0.2142857142857142,0.8571428571428571,0.0037726035393759
218,1.5215302109718325,1.526904821395874,0.3461538461538461,0.8269230769230769,0.2142857142857142,0.8571428571428571,0.003738646671081
219,1.5760343670845032,1.5206198692321775,0.2884615384615384,0.8269230769230769,0.2142857142857142,0.8571428571428571,0.0037043841852542
220,1.552487313747406,1.5179028511047363,0.3269230769230769,0.8269230769230769,0.2142857142857142,0.8571428571428571,0.0036698245356514
221,1.5458743572235107,1.5231493711471558,0.3461538461538461,0.8269230769230769,0.2142857142857142,0.8571428571428571,0.0036349762493488
222,1.5713613033294678,1.5304372310638428,0.3653846153846153,0.8269230769230769,0.2142857142857142,0.8571428571428571,0.0035998479246397
223,1.547091722488403,1.53863525390625,0.3653846153846153,0.8269230769230769,0.2142857142857142,0.8571428571428571,0.0035644482289126
224,1.562103271484375,1.5416853427886963,0.3653846153846153,0.8269230769230769,0.2142857142857142,0.8571428571428571,0.0035287858965127
225,1.554503858089447,1.545539617538452,0.3653846153846153,0.8269230769230769,0.2142857142857142,0.8571428571428571,0.0034928697265869
226,1.5183704495429993,1.548149585723877,0.3653846153846153,0.8269230769230769,0.2142857142857142,0.8571428571428571,0.0034567085809127
227,1.5554925203323364,1.5489355325698853,0.3653846153846153,0.8269230769230769,0.2142857142857142,0.8571428571428571,0.0034203113817116
228,1.544556438922882,1.5452245473861694,0.3653846153846153,0.8269230769230769,0.2142857142857142,0.8571428571428571,0.0033836871094481
229,1.5513968467712402,1.541520595550537,0.3653846153846153,0.8269230769230769,0.2142857142857142,0.8571428571428571,0.0033468448006132
230,1.552622139453888,1.5328571796417236,0.3653846153846153,0.8269230769230769,0.2142857142857142,0.8571428571428571,0.0033097935454953
231,1.6042518019676208,1.5283212661743164,0.3653846153846153,0.8269230769230769,0.2142857142857142,0.8571428571428571,0.0032725424859373
232,1.5365528464317322,1.5221290588378906,0.2884615384615384,0.8269230769230769,0.3571428571428571,0.8571428571428571,0.0032351008130807
233,1.5898754596710205,1.522464632987976,0.2692307692307692,0.8269230769230769,0.3571428571428571,0.8571428571428571,0.003197477765098
234,1.58300119638443,1.5205302238464355,0.3076923076923077,0.8269230769230769,0.3571428571428571,0.8571428571428571,0.0031596826249134
235,1.5618714094161987,1.5196069478988647,0.2692307692307692,0.8269230769230769,0.3571428571428571,0.8571428571428571,0.0031217247179121
236,1.5835536122322085,1.5224512815475464,0.2692307692307692,0.8269230769230769,0.3571428571428571,0.8571428571428571,0.0030836134096397
237,1.5773942470550537,1.5245957374572754,0.3076923076923077,0.8269230769230769,0.3571428571428571,0.8571428571428571,0.0030453581034913
238,1.5728121995925903,1.5286442041397097,0.3269230769230769,0.8269230769230769,0.2142857142857142,0.8571428571428571,0.0030069682383912
239,1.5881569981575012,1.5303856134414673,0.25,0.8269230769230769,0.2142857142857142,0.8571428571428571,0.0029684532864643
240,1.6135860681533811,1.530946969985962,0.3461538461538461,0.8269230769230769,0.2142857142857142,0.8571428571428571,0.0029298227506985
241,1.588939547538757,1.5322682857513428,0.3653846153846153,0.8269230769230769,0.2142857142857142,0.8571428571428571,0.0028910861626005
242,1.5524012446403503,1.5337319374084473,0.3461538461538461,0.8269230769230769,0.2142857142857142,0.8571428571428571,0.0028522530798439
243,1.5557104349136353,1.5336145162582395,0.3076923076923077,0.8269230769230769,0.2142857142857142,0.8571428571428571,0.0028133330839107
244,1.5492461919784546,1.5332342386245728,0.3269230769230769,0.8269230769230769,0.2142857142857142,0.8571428571428571,0.0027743357777276
245,1.519437611103058,1.535667896270752,0.4038461538461538,0.8269230769230769,0.2142857142857142,0.8571428571428571,0.0027352707832962
246,1.526106357574463,1.537211537361145,0.3846153846153846,0.8269230769230769,0.2142857142857142,0.8571428571428571,0.0026961477393196
247,1.5686943531036377,1.5393755435943604,0.3846153846153846,0.8269230769230769,0.2142857142857142,0.8571428571428571,0.0026569762988232
248,1.558882176876068,1.543541431427002,0.3653846153846153,0.8269230769230769,0.2142857142857142,0.8571428571428571,0.0026177661267741
249,1.5500255227088928,1.54521906375885,0.3653846153846153,0.8269230769230769,0.2142857142857142,0.8571428571428571,0.0025785268976953
250,1.5713657140731812,1.5486876964569092,0.3653846153846153,0.8269230769230769,0.2142857142857142,0.8571428571428571,0.0025392682932795
251,1.534803032875061,1.5510010719299316,0.3653846153846153,0.8269230769230769,0.2142857142857142,0.8571428571428571,0.0025
252,1.5245859622955322,1.549383521080017,0.3653846153846153,0.8269230769230769,0.2142857142857142,0.8571428571428571,0.0024607317067204
253,1.585275650024414,1.5494327545166016,0.3653846153846153,0.8269230769230769,0.2142857142857142,0.8571428571428571,0.0024214731023046
254,1.543595254421234,1.5472095012664795,0.3653846153846153,0.8269230769230769,0.2142857142857142,0.8571428571428571,0.0023822338732258
255,1.5655343532562256,1.5451879501342771,0.3653846153846153,0.8269230769230769,0.2142857142857142,0.8571428571428571,0.0023430237011767
256,1.5762429237365725,1.543164610862732,0.3653846153846153,0.8269230769230769,0.2142857142857142,0.8571428571428571,0.0023038522606803
257,1.556582272052765,1.541003942489624,0.3653846153846153,0.8269230769230769,0.2142857142857142,0.8571428571428571,0.0022647292167037
258,1.5697304606437683,1.538072109222412,0.3653846153846153,0.8269230769230769,0.2142857142857142,0.8571428571428571,0.0022256642222723
259,1.533014178276062,1.534553050994873,0.3653846153846153,0.8269230769230769,0.2142857142857142,0.8571428571428571,0.0021866669160892
260,1.5537316799163818,1.5294744968414309,0.3653846153846153,0.8269230769230769,0.2142857142857142,0.8571428571428571,0.002147746920156
261,1.53737211227417,1.5232272148132324,0.3653846153846153,0.8269230769230769,0.2142857142857142,0.8571428571428571,0.0021089138373994
262,1.5473876595497131,1.5196934938430786,0.4038461538461538,0.8269230769230769,0.2142857142857142,0.8571428571428571,0.0020701772493014
263,1.5412017107009888,1.5196969509124756,0.3076923076923077,0.8269230769230769,0.2142857142857142,0.8571428571428571,0.0020315467135356
264,1.5481221079826355,1.519664645195007,0.3461538461538461,0.8269230769230769,0.2142857142857142,0.8571428571428571,0.0019930317616087
265,1.5632344484329224,1.5199280977249146,0.3653846153846153,0.8269230769230769,0.2142857142857142,0.8571428571428571,0.0019546418965086
266,1.5462305545806885,1.5218088626861572,0.2884615384615384,0.8269230769230769,0.2142857142857142,0.8571428571428571,0.0019163865903602
267,1.5683243870735168,1.524484634399414,0.4038461538461538,0.8269230769230769,0.2142857142857142,0.8571428571428571,0.0018782752820878
268,1.5542184114456177,1.5277494192123413,0.2884615384615384,0.8269230769230769,0.2142857142857142,0.8571428571428571,0.0018403173750865
269,1.535097360610962,1.530246019363403,0.3461538461538461,0.8269230769230769,0.2142857142857142,0.8571428571428571,0.0018025222349019
270,1.5315701365470886,1.5332776308059692,0.3846153846153846,0.8269230769230769,0.2142857142857142,0.8571428571428571,0.0017648991869192
271,1.581234335899353,1.536273717880249,0.3653846153846153,0.8269230769230769,0.2142857142857142,0.8571428571428571,0.0017274575140626
272,1.5657220482826233,1.538915514945984,0.3653846153846153,0.8269230769230769,0.2142857142857142,0.8571428571428571,0.0016902064545046
273,1.5477153658866882,1.5405197143554688,0.3653846153846153,0.8269230769230769,0.2142857142857142,0.8571428571428571,0.0016531551993867
274,1.5789856910705566,1.5428078174591064,0.3653846153846153,0.8269230769230769,0.2142857142857142,0.8571428571428571,0.0016163128905518
275,1.5502172112464905,1.5446505546569824,0.3653846153846153,0.8269230769230769,0.2142857142857142,0.8571428571428571,0.0015796886182883
276,1.580705642700195,1.5458965301513672,0.3461538461538461,0.8269230769230769,0.2142857142857142,0.8571428571428571,0.0015432914190872
277,1.555892527103424,1.5465283393859863,0.3653846153846153,0.8269230769230769,0.2142857142857142,0.8571428571428571,0.001507130273413
278,1.5688083171844482,1.5458736419677734,0.3653846153846153,0.8269230769230769,0.2142857142857142,0.8571428571428571,0.0014712141034872
279,1.5403897166252136,1.544660210609436,0.3653846153846153,0.8269230769230769,0.2142857142857142,0.8571428571428571,0.0014355517710873
280,1.5374070405960083,1.5414936542510986,0.3653846153846153,0.8269230769230769,0.2142857142857142,0.8571428571428571,0.0014001520753602
281,1.58112370967865,1.5384998321533203,0.3653846153846153,0.8269230769230769,0.2142857142857142,0.8571428571428571,0.0013650237506511
282,1.5832730531692505,1.535468339920044,0.3653846153846153,0.8269230769230769,0.2142857142857142,0.8571428571428571,0.0013301754643485
283,1.565554678440094,1.533208250999451,0.3846153846153846,0.8269230769230769,0.2142857142857142,0.8571428571428571,0.0012956158147457
284,1.5537320971488953,1.5308598279953003,0.3653846153846153,0.8269230769230769,0.2142857142857142,0.8571428571428571,0.0012613533289189
285,1.559631884098053,1.529258131980896,0.3461538461538461,0.8269230769230769,0.2142857142857142,0.8571428571428571,0.001227396460624
286,1.5825908184051514,1.5282102823257446,0.3653846153846153,0.8269230769230769,0.2142857142857142,0.8571428571428571,0.0011937535882101
287,1.5810463428497314,1.52783203125,0.3461538461538461,0.8269230769230769,0.2142857142857142,0.8571428571428571,0.0011604330125525
288,1.564053654670715,1.527721285820007,0.3461538461538461,0.8269230769230769,0.2142857142857142,0.8571428571428571,0.0011274429550046
289,1.5338305234909058,1.527018666267395,0.3269230769230769,0.8269230769230769,0.2142857142857142,0.8571428571428571,0.0010947915553696
290,1.5646143555641174,1.5268064737319946,0.3653846153846153,0.8269230769230769,0.2142857142857142,0.8571428571428571,0.0010624868698918
291,1.5538316369056702,1.5276867151260376,0.3076923076923077,0.8269230769230769,0.2142857142857142,0.8571428571428571,0.0010305368692688
292,1.579414129257202,1.5287199020385742,0.3846153846153846,0.8269230769230769,0.2142857142857142,0.8571428571428571,0.0009989494366852
293,1.5541542768478394,1.5292038917541504,0.3846153846153846,0.8269230769230769,0.2142857142857142,0.8571428571428571,0.0009677323658675
294,1.5589956641197205,1.5296058654785156,0.3653846153846153,0.8269230769230769,0.2142857142857142,0.8571428571428571,0.0009368933591607
295,1.5531180500984192,1.5298315286636353,0.3653846153846153,0.8269230769230769,0.2142857142857142,0.8571428571428571,0.0009064400256282
296,1.5327304601669312,1.529720425605774,0.3653846153846153,0.8269230769230769,0.2142857142857142,0.8571428571428571,0.0008763798791745
297,1.5574077367782593,1.5293729305267334,0.3653846153846153,0.8269230769230769,0.2142857142857142,0.8571428571428571,0.0008467203366908
298,1.5792794823646543,1.5288665294647217,0.3653846153846153,0.8269230769230769,0.2142857142857142,0.8571428571428571,0.0008174687162255
299,1.5737712383270264,1.5289677381515503,0.3653846153846153,0.8269230769230769,0.2142857142857142,0.8571428571428571,0.0007886322351782
300,1.5484264492988586,1.5298519134521484,0.3653846153846153,0.8269230769230769,0.2142857142857142,0.8571428571428571,0.0007602180085192
301,1.579888939857483,1.5299952030181885,0.3653846153846153,0.8269230769230769,0.2142857142857142,0.8571428571428571,0.0007322330470336
302,1.5208871960639954,1.5305761098861694,0.3653846153846153,0.8269230769230769,0.2142857142857142,0.8571428571428571,0.000704684255592
303,1.561553776264191,1.5306535959243774,0.3653846153846153,0.8269230769230769,0.2142857142857142,0.8571428571428571,0.0006775784314464
304,1.5672274231910706,1.5307250022888184,0.3653846153846153,0.8269230769230769,0.2142857142857142,0.8571428571428571,0.0006509222625534
305,1.55060213804245,1.531067967414856,0.3653846153846153,0.8269230769230769,0.2142857142857142,0.8571428571428571,0.0006247223259238
306,1.5579655170440674,1.531089186668396,0.3653846153846153,0.8269230769230769,0.2142857142857142,0.8571428571428571,0.0005989850859999
307,1.5710082054138184,1.5307725667953491,0.3653846153846153,0.8269230769230769,0.2142857142857142,0.8571428571428571,0.0005737168930605
308,1.5903415083885193,1.5309749841690063,0.3653846153846153,0.8269230769230769,0.2142857142857142,0.8571428571428571,0.0005489239816541
309,1.5954406261444092,1.5309292078018188,0.3653846153846153,0.8269230769230769,0.2142857142857142,0.8571428571428571,0.0005246124690607
310,1.5847760438919067,1.5310101509094238,0.3653846153846153,0.8269230769230769,0.2142857142857142,0.8571428571428571,0.0005007883537822
311,1.5590866804122925,1.5308504104614258,0.3653846153846153,0.8269230769230769,0.2142857142857142,0.8571428571428571,0.0004774575140626
312,1.536429941654205,1.530683994293213,0.3653846153846153,0.8269230769230769,0.2142857142857142,0.8571428571428571,0.0004546257064374
313,1.580786943435669,1.5306956768035889,0.3653846153846153,0.8269230769230769,0.2142857142857142,0.8571428571428571,0.0004322985643135
314,1.5496357083320618,1.5306837558746338,0.3461538461538461,0.8269230769230769,0.2142857142857142,0.8571428571428571,0.0004104815965793
315,1.5294626355171204,1.5310262441635132,0.3653846153846153,0.8269230769230769,0.2142857142857142,0.8571428571428571,0.0003891801862449
316,1.5743231773376465,1.5308510065078735,0.3653846153846153,0.8269230769230769,0.2142857142857142,0.8571428571428571,0.0003683995891147
317,1.5929259061813354,1.5306973457336426,0.3653846153846153,0.8269230769230769,0.2142857142857142,0.8571428571428571,0.0003481449324901
318,1.5331199169158936,1.5307812690734863,0.3653846153846153,0.8269230769230769,0.2142857142857142,0.8571428571428571,0.0003284212139045
319,1.569775640964508,1.530912160873413,0.3653846153846153,0.8269230769230769,0.2142857142857142,0.8571428571428571,0.0003092332998903
320,1.5506190657615662,1.5311226844787598,0.3846153846153846,0.8269230769230769,0.2142857142857142,0.8571428571428571,0.0002905859247782
321,1.570492923259735,1.5312408208847046,0.4038461538461538,0.8269230769230769,0.2142857142857142,0.8571428571428571,0.000272483689529
322,1.553053796291351,1.531416416168213,0.3653846153846153,0.8269230769230769,0.2142857142857142,0.8571428571428571,0.0002549310605984
323,1.5526472330093384,1.531451940536499,0.3653846153846153,0.8269230769230769,0.2142857142857142,0.8571428571428571,0.0002379323688349
324,1.5179923176765442,1.5314654111862185,0.3653846153846153,0.8269230769230769,0.2142857142857142,0.8571428571428571,0.0002214918084113
325,1.5469545125961304,1.531358003616333,0.3653846153846153,0.8269230769230769,0.2142857142857142,0.8571428571428571,0.00020561343579
326,1.5755438804626465,1.5313037633895874,0.3653846153846153,0.8269230769230769,0.2142857142857142,0.8571428571428571,0.0001903011687217
327,1.5797041058540344,1.5313266515731812,0.3653846153846153,0.8269230769230769,0.2142857142857142,0.8571428571428571,0.0001755587852793
328,1.5452908277511597,1.531335711479187,0.3653846153846153,0.8269230769230769,0.2142857142857142,0.8571428571428571,0.0001613899229253
329,1.5596579313278198,1.5312238931655884,0.3653846153846153,0.8269230769230769,0.2142857142857142,0.8571428571428571,0.0001477980776144
330,1.5507017374038696,1.5311145782470703,0.3653846153846153,0.8269230769230769,0.2142857142857142,0.8571428571428571,0.0001347866029311
331,1.572668731212616,1.531021237373352,0.3653846153846153,0.8269230769230769,0.2142857142857142,0.8571428571428571,0.0001223587092621
332,1.5433557629585266,1.5310043096542358,0.3653846153846153,0.8269230769230769,0.2142857142857142,0.8571428571428571,0.0001105174630041
333,1.550312340259552,1.531005620956421,0.3653846153846153,0.8269230769230769,0.2142857142857142,0.8571428571428571,9.926578580764262e-05
334,1.564935564994812,1.530988335609436,0.3653846153846153,0.8269230769230769,0.2142857142857142,0.8571428571428571,8.860645385550508e-05
335,1.5341739654541016,1.5309510231018066,0.3653846153846153,0.8269230769230769,0.2142857142857142,0.8571428571428571,7.854209717842258e-05
336,1.5731021165847778,1.5309321880340576,0.3653846153846153,0.8269230769230769,0.2142857142857142,0.8571428571428571,6.90751990058086e-05
337,1.5416669845581057,1.5309226512908936,0.3653846153846153,0.8269230769230769,0.2142857142857142,0.8571428571428571,6.0208095153131695e-05
338,1.5285723209381104,1.530904769897461,0.3653846153846153,0.8269230769230769,0.2142857142857142,0.8571428571428571,5.194297344558535e-05
339,1.5539178848266602,1.5309184789657593,0.3461538461538461,0.8269230769230769,0.2142857142857142,0.8571428571428571,4.42818731782782e-05
340,1.571353554725647,1.5309398174285889,0.3461538461538461,0.8269230769230769,0.2142857142857142,0.8571428571428571,3.722668461306533e-05
341,1.5679320096969604,1.5309736728668213,0.3653846153846153,0.8269230769230769,0.2142857142857142,0.8571428571428571,3.077914851215585e-05
342,1.558794021606445,1.5310035943984983,0.3653846153846153,0.8269230769230769,0.2142857142857142,0.8571428571428571,2.494085570860616e-05
343,1.541613221168518,1.5310438871383667,0.3653846153846153,0.8269230769230769,0.2142857142857142,0.8571428571428571,1.9713246713805587e-05
344,1.5593482851982117,1.531070113182068,0.3653846153846153,0.8269230769230769,0.2142857142857142,0.8571428571428571,1.5097611362051012e-05
345,1.5945916175842283,1.531091809272766,0.3653846153846153,0.8269230769230769,0.2142857142857142,0.8571428571428571,1.109508849230001e-05
346,1.5506319999694824,1.5311135053634644,0.3653846153846153,0.8269230769230769,0.2142857142857142,0.8571428571428571,7.70666566718009e-06
347,1.546747386455536,1.5311269760131836,0.3846153846153846,0.8269230769230769,0.2142857142857142,0.8571428571428571,4.933178929321102e-06
348,1.5711989402770996,1.5311338901519775,0.3653846153846153,0.8269230769230769,0.2142857142857142,0.8571428571428571,2.775312595075241e-06
349,1.531550645828247,1.5311367511749268,0.3653846153846153,0.8269230769230769,0.2142857142857142,0.8571428571428571,1.233599085671e-06
350,1.57370924949646,1.5311373472213743,0.3653846153846153,0.8269230769230769,0.2142857142857142,0.8571428571428571,3.084187958485308e-07
351,1.6421265006065369,1.6961252689361572,0.3076923076923077,0.8269230769230769,0.21428571428571427,0.8571428571428571,0.005
352,1.662829875946045,1.5562965869903564,0.3269230769230769,0.8269230769230769,0.35714285714285715,0.8571428571428571,0.004995066821070679
353,1.6375641822814941,1.5921493768692017,0.25,0.8269230769230769,0.21428571428571427,0.8571428571428571,0.004980286753286195
354,1.6053045988082886,1.521690845489502,0.36538461538461536,0.8269230769230769,0.21428571428571427,0.8571428571428571,0.004955718126821722
355,1.5625101923942566,1.523455262184143,0.3076923076923077,0.8269230769230769,0.35714285714285715,0.8571428571428571,0.004921457902821578
356,1.5782798528671265,1.5189485549926758,0.3269230769230769,0.8269230769230769,0.35714285714285715,0.8571428571428571,0.0048776412907378846
357,1.5721347332000732,1.5174801349639893,0.3076923076923077,0.8269230769230769,0.21428571428571427,0.8571428571428571,0.004824441214720628
358,1.549516499042511,1.5366874933242798,0.34615384615384615,0.8269230769230769,0.21428571428571427,0.8571428571428571,0.004762067631165049
359,1.5300605297088623,1.5582499504089355,0.36538461538461536,0.8269230769230769,0.21428571428571427,0.8571428571428571,0.0046907667001096585
360,1.6214445233345032,1.5603536367416382,0.36538461538461536,0.8269230769230769,0.21428571428571427,0.8571428571428571,0.004610819813755038
361,1.535564363002777,1.540679693222046,0.36538461538461536,0.8269230769230769,0.21428571428571427,0.8571428571428571,0.0045225424859373685
362,1.6066327095031738,1.5297777652740479,0.36538461538461536,0.8269230769230769,0.21428571428571427,0.8571428571428571,0.004426283106939473
363,1.5529970526695251,1.5346989631652832,0.2692307692307692,0.8269230769230769,0.35714285714285715,0.8571428571428571,0.004322421568553529
364,1.5449402928352356,1.540107250213623,0.3269230769230769,0.8269230769230769,0.21428571428571427,0.8571428571428571,0.004211367764821722
365,1.5371100902557373,1.552283525466919,0.40384615384615385,0.8269230769230769,0.21428571428571427,0.8571428571428571,0.004093559974371724
366,1.5923449993133545,1.5634551048278809,0.4230769230769231,0.8269230769230769,0.21428571428571427,0.8571428571428571,0.003969463130731183
367,1.528857946395874,1.5516605377197266,0.36538461538461536,0.8269230769230769,0.21428571428571427,0.8571428571428571,0.0038395669874474914
368,1.5641156435012817,1.541879415512085,0.36538461538461536,0.8269230769230769,0.21428571428571427,0.8571428571428571,0.0037043841852542883
369,1.5424796342849731,1.5289169549942017,0.36538461538461536,0.8269230769230769,0.21428571428571427,0.8571428571428571,0.003564448228912682
370,1.5349650979042053,1.520010232925415,0.25,0.8269230769230769,0.42857142857142855,0.8571428571428571,0.0034203113817116953
371,1.5807928442955017,1.5188852548599243,0.28846153846153844,0.8269230769230769,0.21428571428571427,0.8571428571428571,0.0032725424859373687
372,1.5435160398483276,1.5228575468063354,0.28846153846153844,0.8269230769230769,0.21428571428571427,0.8571428571428571,0.0031217247179121366
373,1.5632768273353577,1.524515151977539,0.40384615384615385,0.8269230769230769,0.21428571428571427,0.8571428571428571,0.002968453286464312
374,1.558249592781067,1.5319719314575195,0.40384615384615385,0.8269230769230769,0.21428571428571427,0.8571428571428571,0.002813333083910761
375,1.5366789102554321,1.5360702276229858,0.36538461538461536,0.8269230769230769,0.21428571428571427,0.8571428571428571,0.0026569762988232835
376,1.5219993591308594,1.5447992086410522,0.40384615384615385,0.8269230769230769,0.21428571428571427,0.8571428571428571,0.0025
377,1.5482375025749207,1.5519064664840698,0.34615384615384615,0.8269230769230769,0.21428571428571427,0.8571428571428571,0.0023430237011767166
378,1.552786946296692,1.556933879852295,0.36538461538461536,0.8269230769230769,0.21428571428571427,0.8571428571428571,0.0021866669160892395
379,1.588659405708313,1.557143211364746,0.36538461538461536,0.8269230769230769,0.21428571428571427,0.8571428571428571,0.0020315467135356884
380,1.5713638663291931,1.5557760000228882,0.36538461538461536,0.8269230769230769,0.21428571428571427,0.8571428571428571,0.0018782752820878628
381,1.571979582309723,1.5531548261642456,0.36538461538461536,0.8269230769230769,0.21428571428571427,0.8571428571428571,0.0017274575140626323
382,1.5639283657073975,1.549562931060791,0.36538461538461536,0.8269230769230769,0.21428571428571427,0.8571428571428571,0.0015796886182883059
383,1.5292578339576721,1.5446466207504272,0.36538461538461536,0.8269230769230769,0.21428571428571427,0.8571428571428571,0.0014355517710873183
384,1.5284860730171204,1.5399398803710938,0.36538461538461536,0.8269230769230769,0.21428571428571427,0.8571428571428571,0.0012956158147457114
385,1.554192841053009,1.5361342430114746,0.38461538461538464,0.8269230769230769,0.21428571428571427,0.8571428571428571,0.0011604330125525079
386,1.5295257568359375,1.53357994556427,0.36538461538461536,0.8269230769230769,0.21428571428571427,0.8571428571428571,0.0010305368692688174
387,1.5418264269828796,1.530933141708374,0.28846153846153844,0.8269230769230769,0.21428571428571427,0.8571428571428571,0.0009064400256282757
388,1.5529046058654785,1.5290244817733765,0.36538461538461536,0.8269230769230769,0.21428571428571427,0.8571428571428571,0.0007886322351782782
389,1.5669875144958496,1.5265307426452637,0.4230769230769231,0.8269230769230769,0.21428571428571427,0.8571428571428571,0.0006775784314464717
390,1.5501179695129395,1.5253722667694092,0.36538461538461536,0.8269230769230769,0.21428571428571427,0.8571428571428571,0.0005737168930605272
391,1.5482776761054993,1.5240426063537598,0.36538461538461536,0.8269230769230769,0.21428571428571427,0.8571428571428571,0.00047745751406263163
392,1.56113862991333,1.5236421823501587,0.3269230769230769,0.8269230769230769,0.21428571428571427,0.8571428571428571,0.00038918018624496285
393,1.5536972880363464,1.5233750343322754,0.38461538461538464,0.8269230769230769,0.21428571428571427,0.8571428571428571,0.00030923329989034103
394,1.5582059025764465,1.5229859352111816,0.3076923076923077,0.8269230769230769,0.21428571428571427,0.8571428571428571,0.00023793236883495162
395,1.5313607454299927,1.5229570865631104,0.40384615384615385,0.8269230769230769,0.21428571428571427,0.8571428571428571,0.00017555878527937164
396,1.5204100012779236,1.5230231285095215,0.38461538461538464,0.8269230769230769,0.21428571428571427,0.8571428571428571,0.00012235870926211617
397,1.5881255269050598,1.523252248764038,0.3076923076923077,0.8269230769230769,0.21428571428571427,0.8571428571428571,7.854209717842258e-05
398,1.5585469007492065,1.5233299732208252,0.36538461538461536,0.8269230769230769,0.21428571428571427,0.8571428571428571,4.4281873178278196e-05
399,1.5878005623817444,1.5233848094940186,0.34615384615384615,0.8269230769230769,0.21428571428571427,0.8571428571428571,1.9713246713805587e-05
400,1.5841404795646667,1.5233944654464722,0.36538461538461536,0.8269230769230769,0.21428571428571427,0.8571428571428571,4.933178929321102e-06
401,1.5717782974243164,1.5436596870422363,0.34615384615384615,0.8269230769230769,0.21428571428571427,0.8571428571428571,0.005
402,1.5538538098335266,1.5565050840377808,0.36538461538461536,0.8269230769230769,0.21428571428571427,0.8571428571428571,0.0049987664009143295
403,1.54724782705307,1.554350733757019,0.36538461538461536,0.8269230769230769,0.21428571428571427,0.8571428571428571,0.004995066821070679
404,1.5267934799194336,1.543005347251892,0.36538461538461536,0.8269230769230769,0.21428571428571427,0.8571428571428571,0.0049889049115077
405,1.5589244365692139,1.537095069885254,0.34615384615384615,0.8269230769230769,0.21428571428571427,0.8571428571428571,0.004980286753286195
406,1.538370668888092,1.5373247861862183,0.3269230769230769,0.8269230769230769,0.21428571428571427,0.8571428571428571,0.0049692208514878445
407,1.5423833727836609,1.536741018295288,0.38461538461538464,0.8269230769230769,0.21428571428571427,0.8571428571428571,0.004955718126821722
408,1.583880364894867,1.541090726852417,0.40384615384615385,0.8269230769230769,0.21428571428571427,0.8571428571428571,0.004939791904846869
409,1.5661662220954895,1.5370054244995117,0.36538461538461536,0.8269230769230769,0.21428571428571427,0.8571428571428571,0.004921457902821578
410,1.5645620226860046,1.5339518785476685,0.36538461538461536,0.8269230769230769,0.21428571428571427,0.8571428571428571,0.004900734214192358
411,1.5377862453460693,1.536445140838623,0.36538461538461536,0.8269230769230769,0.21428571428571427,0.8571428571428571,0.0048776412907378846
412,1.5844335556030273,1.5406262874603271,0.38461538461538464,0.8269230769230769,0.21428571428571427,0.8571428571428571,0.004852201922385564
413,1.5286220908164978,1.537336826324463,0.36538461538461536,0.8269230769230769,0.21428571428571427,0.8571428571428571,0.004824441214720628
414,1.5445787906646729,1.5286757946014404,0.36538461538461536,0.8269230769230769,0.21428571428571427,0.8571428571428571,0.0047943865642099525
415,1.5431404113769531,1.522933006286621,0.3076923076923077,0.8269230769230769,0.21428571428571427,0.8571428571428571,0.004762067631165049
416,1.5668439269065857,1.5244643688201904,0.4423076923076923,0.8269230769230769,0.21428571428571427,0.8571428571428571,0.00472751631047092
417,1.5385355353355408,1.529064416885376,0.4230769230769231,0.8269230769230769,0.21428571428571427,0.8571428571428571,0.0046907667001096585
418,1.5894993543624878,1.5396456718444824,0.38461538461538464,0.8269230769230769,0.21428571428571427,0.8571428571428571,0.0046518550675098596
419,1.5506402254104614,1.5530126094818115,0.36538461538461536,0.8269230769230769,0.21428571428571427,0.8571428571428571,0.004610819813755038
420,1.5544502139091492,1.5609114170074463,0.3269230769230769,0.8269230769230769,0.21428571428571427,0.8571428571428571,0.004567701435686404
421,1.5623770952224731,1.5623035430908203,0.36538461538461536,0.8269230769230769,0.21428571428571427,0.8571428571428571,0.0045225424859373685
422,1.542791724205017,1.559075951576233,0.36538461538461536,0.8269230769230769,0.21428571428571427,0.8571428571428571,0.0044753875309392266
423,1.5536731481552124,1.551010251045227,0.36538461538461536,0.8269230769230769,0.21428571428571427,0.8571428571428571,0.004426283106939473
424,1.5639044046401978,1.5450003147125244,0.4230769230769231,0.8269230769230769,0.21428571428571427,0.8571428571428571,0.004375277674076149
425,1.5623928308486938,1.5362299680709839,0.34615384615384615,0.8269230769230769,0.21428571428571427,0.8571428571428571,0.004322421568553529
426,1.5670788884162903,1.530339241027832,0.34615384615384615,0.8269230769230769,0.21428571428571427,0.8571428571428571,0.004267766952966369
427,1.5743370056152344,1.5281009674072266,0.34615384615384615,0.8269230769230769,0.21428571428571427,0.8571428571428571,0.004211367764821722
428,1.5369213819503784,1.5256026983261108,0.36538461538461536,0.8269230769230769,0.21428571428571427,0.8571428571428571,0.00415327966330913
429,1.5644710659980774,1.5246812105178833,0.34615384615384615,0.8269230769230769,0.21428571428571427,0.8571428571428571,0.004093559974371724
430,1.5271543264389038,1.5260705947875977,0.34615384615384615,0.8269230769230769,0.21428571428571427,0.8571428571428571,0.004032267634132442
431,1.534658670425415,1.5274112224578857,0.36538461538461536,0.8269230769230769,0.21428571428571427,0.8571428571428571,0.003969463130731183
432,1.5583497285842896,1.5310496091842651,0.36538461538461536,0.8269230769230769,0.21428571428571427,0.8571428571428571,0.003905208444630327
433,1.541674256324768,1.5306732654571533,0.36538461538461536,0.8269230769230769,0.21428571428571427,0.8571428571428571,0.0038395669874474914
434,1.5232713222503662,1.5320301055908203,0.36538461538461536,0.8269230769230769,0.21428571428571427,0.8571428571428571,0.0037726035393759283
435,1.5628336668014526,1.5358442068099976,0.38461538461538464,0.8269230769230769,0.21428571428571427,0.8571428571428571,0.0037043841852542883
436,1.5785983800888062,1.5372437238693237,0.36538461538461536,0.8269230769230769,0.21428571428571427,0.8571428571428571,0.003634976249348867
437,1.5650908946990967,1.5399587154388428,0.36538461538461536,0.8269230769230769,0.21428571428571427,0.8571428571428571,0.003564448228912682
438,1.5543192625045776,1.5430022478103638,0.36538461538461536,0.8269230769230769,0.21428571428571427,0.8571428571428571,0.003492869726586951
439,1.5580226182937622,1.5474762916564941,0.36538461538461536,0.8269230769230769,0.21428571428571427,0.8571428571428571,0.0034203113817116953
440,1.606679081916809,1.5499123334884644,0.36538461538461536,0.8269230769230769,0.21428571428571427,0.8571428571428571,0.0033468448006132292
441,1.5693727731704712,1.5486249923706055,0.36538461538461536,0.8269230769230769,0.21428571428571427,0.8571428571428571,0.0032725424859373687
442,1.5537723898887634,1.5481818914413452,0.36538461538461536,0.8269230769230769,0.21428571428571427,0.8571428571428571,0.0031974777650980737
443,1.5530676245689392,1.5496398210525513,0.3076923076923077,0.8269230769230769,0.21428571428571427,0.8571428571428571,0.0031217247179121366
444,1.560044765472412,1.549211025238037,0.38461538461538464,0.8269230769230769,0.21428571428571427,0.8571428571428571,0.0030453581034913567
445,1.5408729910850525,1.5463811159133911,0.34615384615384615,0.8269230769230769,0.21428571428571427,0.8571428571428571,0.002968453286464312
446,1.5659754872322083,1.5451788902282715,0.38461538461538464,0.8269230769230769,0.21428571428571427,0.8571428571428571,0.0028910861626005773
447,1.565327227115631,1.542487382888794,0.34615384615384615,0.8269230769230769,0.21428571428571427,0.8571428571428571,0.002813333083910761
448,1.5528995394706726,1.5407918691635132,0.36538461538461536,0.8269230769230769,0.21428571428571427,0.8571428571428571,0.002735270783296286
449,1.5494597554206848,1.5396207571029663,0.36538461538461536,0.8269230769230769,0.21428571428571427,0.8571428571428571,0.0026569762988232835
450,1.5999417901039124,1.5362110137939453,0.38461538461538464,0.8269230769230769,0.21428571428571427,0.8571428571428571,0.0025785268976953207
451,1.5606130361557007,1.5315589904785156,0.36538461538461536,0.8269230769230769,0.21428571428571427,0.8571428571428571,0.0025
452,1.5263110399246216,1.5283262729644775,0.38461538461538464,0.8269230769230769,0.21428571428571427,0.8571428571428571,0.0024214731023046794
453,1.5767168402671814,1.525912880897522,0.34615384615384615,0.8269230769230769,0.21428571428571427,0.8571428571428571,0.0023430237011767166
454,1.551450788974762,1.524025321006775,0.34615384615384615,0.8269230769230769,0.21428571428571427,0.8571428571428571,0.002264729216703714
455,1.548622727394104,1.5230212211608887,0.38461538461538464,0.8269230769230769,0.21428571428571427,0.8571428571428571,0.0021866669160892395
456,1.541229784488678,1.523456335067749,0.5,0.8269230769230769,0.21428571428571427,0.8571428571428571,0.002108913837399423
457,1.5569703578948975,1.524564504623413,0.3076923076923077,0.8269230769230769,0.21428571428571427,0.8571428571428571,0.0020315467135356884
458,1.5354459881782532,1.5260909795761108,0.34615384615384615,0.8269230769230769,0.21428571428571427,0.8571428571428571,0.0019546418965086442
459,1.5598951578140259,1.5269279479980469,0.28846153846153844,0.8269230769230769,0.21428571428571427,0.8571428571428571,0.0018782752820878628
460,1.5457560420036316,1.5276474952697754,0.3269230769230769,0.8269230769230769,0.21428571428571427,0.8571428571428571,0.001802522234901927
461,1.5656760931015015,1.5289607048034668,0.34615384615384615,0.8269230769230769,0.21428571428571427,0.8571428571428571,0.0017274575140626323
462,1.5922902822494507,1.5291502475738525,0.36538461538461536,0.8269230769230769,0.21428571428571427,0.8571428571428571,0.0016531551993867715
463,1.5338767766952515,1.5280945301055908,0.34615384615384615,0.8269230769230769,0.21428571428571427,0.8571428571428571,0.0015796886182883059
464,1.55160653591156,1.5267733335494995,0.34615384615384615,0.8269230769230769,0.21428571428571427,0.8571428571428571,0.0015071302734130482
465,1.5819407105445862,1.5261167287826538,0.36538461538461536,0.8269230769230769,0.21428571428571427,0.8571428571428571,0.0014355517710873183
466,1.5438323616981506,1.5255844593048096,0.3269230769230769,0.8269230769230769,0.21428571428571427,0.8571428571428571,0.0013650237506511332
467,1.5746123790740967,1.525709867477417,0.38461538461538464,0.8269230769230769,0.21428571428571427,0.8571428571428571,0.0012956158147457114
468,1.5570620894432068,1.527167797088623,0.34615384615384615,0.8269230769230769,0.21428571428571427,0.8571428571428571,0.0012273964606240718
469,1.5285314917564392,1.528280258178711,0.46153846153846156,0.8269230769230769,0.21428571428571427,0.8571428571428571,0.0011604330125525079
470,1.5388256311416626,1.529826045036316,0.36538461538461536,0.8269230769230769,0.21428571428571427,0.8571428571428571,0.0010947915553696733
471,1.5551201701164246,1.53096604347229,0.36538461538461536,0.8269230769230769,0.21428571428571427,0.8571428571428571,0.0010305368692688174
472,1.5265430212020874,1.5319087505340576,0.40384615384615385,0.8269230769230769,0.21428571428571427,0.8571428571428571,0.0009677323658675585
473,1.574931800365448,1.5321223735809326,0.3269230769230769,0.8269230769230769,0.21428571428571427,0.8571428571428571,0.0009064400256282757
474,1.5565537214279175,1.532665729522705,0.34615384615384615,0.8269230769230769,0.21428571428571427,0.8571428571428571,0.0008467203366908707
475,1.5910004377365112,1.5333061218261719,0.36538461538461536,0.8269230769230769,0.21428571428571427,0.8571428571428571,0.0007886322351782782
476,1.5185167789459229,1.5335277318954468,0.36538461538461536,0.8269230769230769,0.21428571428571427,0.8571428571428571,0.0007322330470336313
477,1.590123176574707,1.5338609218597412,0.36538461538461536,0.8269230769230769,0.21428571428571427,0.8571428571428571,0.0006775784314464717
478,1.5144680738449097,1.5337493419647217,0.36538461538461536,0.8269230769230769,0.21428571428571427,0.8571428571428571,0.0006247223259238514
479,1.5832493901252747,1.5331385135650635,0.36538461538461536,0.8269230769230769,0.21428571428571427,0.8571428571428571,0.0005737168930605272
480,1.5276694893836975,1.5324633121490479,0.36538461538461536,0.8269230769230769,0.21428571428571427,0.8571428571428571,0.000524612469060774
481,1.5150128602981567,1.5319641828536987,0.36538461538461536,0.8269230769230769,0.21428571428571427,0.8571428571428571,0.00047745751406263163
482,1.559613049030304,1.5314048528671265,0.36538461538461536,0.8269230769230769,0.21428571428571427,0.8571428571428571,0.000432298564313596
483,1.5610918402671814,1.530831217765808,0.38461538461538464,0.8269230769230769,0.21428571428571427,0.8571428571428571,0.00038918018624496285
484,1.523916482925415,1.5304187536239624,0.34615384615384615,0.8269230769230769,0.21428571428571427,0.8571428571428571,0.0003481449324901406
485,1.5496357083320618,1.5300838947296143,0.40384615384615385,0.8269230769230769,0.21428571428571427,0.8571428571428571,0.00030923329989034103
486,1.532204508781433,1.5297520160675049,0.38461538461538464,0.8269230769230769,0.21428571428571427,0.8571428571428571,0.00027248368952908055
487,1.5540827512741089,1.5296199321746826,0.36538461538461536,0.8269230769230769,0.21428571428571427,0.8571428571428571,0.00023793236883495162
488,1.5709174275398254,1.5295253992080688,0.34615384615384615,0.8269230769230769,0.21428571428571427,0.8571428571428571,0.0002056134357900477
489,1.5468549132347107,1.5294170379638672,0.40384615384615385,0.8269230769230769,0.21428571428571427,0.8571428571428571,0.00017555878527937164
490,1.5711437463760376,1.5293824672698975,0.38461538461538464,0.8269230769230769,0.21428571428571427,0.8571428571428571,0.00014779807761443637
491,1.5826454162597656,1.529306173324585,0.36538461538461536,0.8269230769230769,0.21428571428571427,0.8571428571428571,0.00012235870926211617
492,1.5630733966827393,1.5292258262634277,0.36538461538461536,0.8269230769230769,0.21428571428571427,0.8571428571428571,9.926578580764262e-05
493,1.5563315153121948,1.529181718826294,0.34615384615384615,0.8269230769230769,0.21428571428571427,0.8571428571428571,7.854209717842258e-05
494,1.570138692855835,1.5292043685913086,0.36538461538461536,0.8269230769230769,0.21428571428571427,0.8571428571428571,6.0208095153131695e-05
495,1.5339303016662598,1.5291898250579834,0.36538461538461536,0.8269230769230769,0.21428571428571427,0.8571428571428571,4.4281873178278196e-05
496,1.5170223116874695,1.5291740894317627,0.34615384615384615,0.8269230769230769,0.21428571428571427,0.8571428571428571,3.077914851215585e-05
497,1.5545134544372559,1.5291709899902344,0.36538461538461536,0.8269230769230769,0.21428571428571427,0.8571428571428571,1.9713246713805587e-05
498,1.5552068948745728,1.5291748046875,0.34615384615384615,0.8269230769230769,0.21428571428571427,0.8571428571428571,1.109508849230001e-05
499,1.5839099287986755,1.5291768312454224,0.36538461538461536,0.8269230769230769,0.21428571428571427,0.8571428571428571,4.933178929321102e-06
500,1.5524434447288513,1.5291779041290283,0.34615384615384615,0.8269230769230769,0.21428571428571427,0.8571428571428571,1.233599085671e-06
501,1.541565716266632,1.5352575778961182,0.36538461538461536,0.8269230769230769,0.21428571428571427,0.8571428571428571,0.005
502,1.5286792516708374,1.5366719961166382,0.38461538461538464,0.8269230769230769,0.21428571428571427,0.8571428571428571,0.004999691581204151
503,1.593318521976471,1.5358518362045288,0.34615384615384615,0.8269230769230769,0.21428571428571427,0.8571428571428571,0.0049987664009143295
504,1.54194974899292,1.5335495471954346,0.34615384615384615,0.8269230769230769,0.21428571428571427,0.8571428571428571,0.004997224687404925
505,1.5868507027626038,1.5285148620605469,0.38461538461538464,0.8269230769230769,0.21428571428571427,0.8571428571428571,0.004995066821070679
506,1.5677949786186218,1.523005485534668,0.40384615384615385,0.8269230769230769,0.35714285714285715,0.8571428571428571,0.00499229333433282
507,1.5506412386894226,1.5227041244506836,0.3076923076923077,0.8269230769230769,0.35714285714285715,0.8571428571428571,0.0049889049115077
508,1.545104205608368,1.5249946117401123,0.38461538461538464,0.8269230769230769,0.35714285714285715,0.8571428571428571,0.004984902388637949
509,1.6048945784568787,1.5294164419174194,0.3076923076923077,0.8269230769230769,0.21428571428571427,0.8571428571428571,0.004980286753286195
510,1.557040810585022,1.5349019765853882,0.4230769230769231,0.8269230769230769,0.21428571428571427,0.8571428571428571,0.004975059144291394
511,1.5550501346588135,1.5378342866897583,0.36538461538461536,0.8269230769230769,0.21428571428571427,0.8571428571428571,0.0049692208514878445
512,1.5781970024108887,1.5367698669433594,0.34615384615384615,0.8269230769230769,0.21428571428571427,0.8571428571428571,0.004962773315386935
513,1.5692482590675354,1.539592981338501,0.40384615384615385,0.8269230769230769,0.21428571428571427,0.8571428571428571,0.004955718126821722
514,1.5741058588027954,1.5415747165679932,0.36538461538461536,0.8269230769230769,0.21428571428571427,0.8571428571428571,0.0049480570265544145
515,1.539099395275116,1.5392290353775024,0.36538461538461536,0.8269230769230769,0.21428571428571427,0.8571428571428571,0.004939791904846869
516,1.5657430291175842,1.5351243019104004,0.34615384615384615,0.8269230769230769,0.21428571428571427,0.8571428571428571,0.004930924800994192
517,1.538205325603485,1.5308517217636108,0.36538461538461536,0.8269230769230769,0.21428571428571427,0.8571428571428571,0.004921457902821578
518,1.55345618724823,1.5304439067840576,0.3076923076923077,0.8269230769230769,0.21428571428571427,0.8571428571428571,0.004911393546144495
519,1.5623273849487305,1.5327852964401245,0.3269230769230769,0.8269230769230769,0.21428571428571427,0.8571428571428571,0.004900734214192358
520,1.5397210121154785,1.5378913879394531,0.38461538461538464,0.8269230769230769,0.21428571428571427,0.8571428571428571,0.004889482536995825
521,1.5343968272209167,1.5428504943847656,0.34615384615384615,0.8269230769230769,0.21428571428571427,0.8571428571428571,0.0048776412907378846
522,1.6002582907676697,1.547905683517456,0.36538461538461536,0.8269230769230769,0.21428571428571427,0.8571428571428571,0.004865213397068863
523,1.6295605897903442,1.5435713529586792,0.36538461538461536,0.8269230769230769,0.21428571428571427,0.8571428571428571,0.004852201922385564
524,1.5433960556983948,1.5382795333862305,0.36538461538461536,0.8269230769230769,0.21428571428571427,0.8571428571428571,0.004838610077074669
525,1.5240496397018433,1.5356606245040894,0.36538461538461536,0.8269230769230769,0.21428571428571427,0.8571428571428571,0.004824441214720628
526,1.570594072341919,1.5327019691467285,0.36538461538461536,0.8269230769230769,0.21428571428571427,0.8571428571428571,0.004809698831278217
527,1.5771337747573853,1.5293694734573364,0.38461538461538464,0.8269230769230769,0.21428571428571427,0.8571428571428571,0.0047943865642099525
528,1.5436590313911438,1.5265331268310547,0.34615384615384615,0.8269230769230769,0.21428571428571427,0.8571428571428571,0.004778508191588613
529,1.5236308574676514,1.5254243612289429,0.38461538461538464,0.8269230769230769,0.21428571428571427,0.8571428571428571,0.004762067631165049
530,1.5402767658233643,1.5255860090255737,0.34615384615384615,0.8269230769230769,0.21428571428571427,0.8571428571428571,0.004745068939401539
531,1.5610555410385132,1.530240774154663,0.38461538461538464,0.8269230769230769,0.21428571428571427,0.8571428571428571,0.00472751631047092
532,1.6072413921356201,1.541128396987915,0.34615384615384615,0.8269230769230769,0.21428571428571427,0.8571428571428571,0.004709414075221734
533,1.5671679973602295,1.547898769378662,0.36538461538461536,0.8269230769230769,0.21428571428571427,0.8571428571428571,0.0046907667001096585
534,1.5380383729934692,1.5474419593811035,0.36538461538461536,0.8269230769230769,0.21428571428571427,0.8571428571428571,0.004671578786095479
535,1.5424962639808655,1.5470507144927979,0.36538461538461536,0.8269230769230769,0.21428571428571427,0.8571428571428571,0.0046518550675098596
536,1.5506055355072021,1.5463329553604126,0.36538461538461536,0.8269230769230769,0.21428571428571427,0.8571428571428571,0.004631600410885231
537,1.5269953608512878,1.5447694063186646,0.36538461538461536,0.8269230769230769,0.21428571428571427,0.8571428571428571,0.004610819813755038
538,1.5744844675064087,1.5414984226226807,0.36538461538461536,0.8269230769230769,0.21428571428571427,0.8571428571428571,0.004589518403420676
539,1.53136545419693,1.5380045175552368,0.36538461538461536,0.8269230769230769,0.21428571428571427,0.8571428571428571,0.004567701435686404
540,1.5808075666427612,1.5340017080307007,0.34615384615384615,0.8269230769230769,0.21428571428571427,0.8571428571428571,0.004545374293562558
541,1.551717221736908,1.5317652225494385,0.36538461538461536,0.8269230769230769,0.21428571428571427,0.8571428571428571,0.0045225424859373685
542,1.514378845691681,1.5287322998046875,0.34615384615384615,0.8269230769230769,0.21428571428571427,0.8571428571428571,0.004499211646217727
543,1.5808789134025574,1.524738073348999,0.36538461538461536,0.8269230769230769,0.21428571428571427,0.8571428571428571,0.0044753875309392266
544,1.5372148156166077,1.5218082666397095,0.36538461538461536,0.8269230769230769,0.21428571428571427,0.8571428571428571,0.004451076018345824
545,1.5510850548744202,1.5215647220611572,0.40384615384615385,0.8269230769230769,0.21428571428571427,0.8571428571428571,0.004426283106939473
546,1.547671616077423,1.52190363407135,0.38461538461538464,0.8269230769230769,0.21428571428571427,0.8571428571428571,0.004401014914000078
547,1.5423826575279236,1.523532748222351,0.36538461538461536,0.8269230769230769,0.21428571428571427,0.8571428571428571,0.004375277674076149
548,1.568485677242279,1.5267009735107422,0.34615384615384615,0.8269230769230769,0.21428571428571427,0.8571428571428571,0.004349077737446524
549,1.532704472541809,1.5291321277618408,0.36538461538461536,0.8269230769230769,0.21428571428571427,0.8571428571428571,0.004322421568553529
550,1.6094418168067932,1.532044768333435,0.36538461538461536,0.8269230769230769,0.21428571428571427,0.8571428571428571,0.004295315744407973
551,1.5346412062644958,1.5324829816818237,0.36538461538461536,0.8269230769230769,0.21428571428571427,0.8571428571428571,0.004267766952966369
552,1.5323303937911987,1.5306751728057861,0.36538461538461536,0.8269230769230769,0.21428571428571427,0.8571428571428571,0.004239781991480785
553,1.5430611371994019,1.5295741558074951,0.36538461538461536,0.8269230769230769,0.21428571428571427,0.8571428571428571,0.004211367764821722
554,1.5655203461647034,1.5302207469940186,0.36538461538461536,0.8269230769230769,0.21428571428571427,0.8571428571428571,0.004182531283774433
555,1.5863487720489502,1.530462622642517,0.36538461538461536,0.8269230769230769,0.21428571428571427,0.8571428571428571,0.00415327966330913
556,1.5251917243003845,1.529374361038208,0.34615384615384615,0.8269230769230769,0.21428571428571427,0.8571428571428571,0.00412362012082546
557,1.5472928881645203,1.5299651622772217,0.4230769230769231,0.8269230769230769,0.21428571428571427,0.8571428571428571,0.004093559974371724
558,1.5291611552238464,1.5323197841644287,0.36538461538461536,0.8269230769230769,0.21428571428571427,0.8571428571428571,0.004063106640839263
559,1.5235106945037842,1.5355490446090698,0.40384615384615385,0.8269230769230769,0.21428571428571427,0.8571428571428571,0.004032267634132442
560,1.5551565885543823,1.5389361381530762,0.36538461538461536,0.8269230769230769,0.21428571428571427,0.8571428571428571,0.004001050563314711
561,1.5541568994522095,1.540048360824585,0.36538461538461536,0.8269230769230769,0.21428571428571427,0.8571428571428571,0.003969463130731183
562,1.517302691936493,1.5396769046783447,0.36538461538461536,0.8269230769230769,0.21428571428571427,0.8571428571428571,0.003937513130108197
563,1.524754822254181,1.5371159315109253,0.36538461538461536,0.8269230769230769,0.21428571428571427,0.8571428571428571,0.003905208444630327
564,1.5317758917808533,1.5343644618988037,0.36538461538461536,0.8269230769230769,0.21428571428571427,0.8571428571428571,0.0038725570449953295
565,1.5358956456184387,1.5327739715576172,0.36538461538461536,0.8269230769230769,0.21428571428571427,0.8571428571428571,0.0038395669874474914
566,1.5476394295692444,1.5310595035552979,0.36538461538461536,0.8269230769230769,0.21428571428571427,0.8571428571428571,0.0038062464117898723
567,1.5162704586982727,1.5309711694717407,0.38461538461538464,0.8269230769230769,0.21428571428571427,0.8571428571428571,0.0037726035393759283
568,1.5612080693244934,1.5317167043685913,0.34615384615384615,0.8269230769230769,0.21428571428571427,0.8571428571428571,0.003738646671081019
569,1.5329845547676086,1.532430648803711,0.36538461538461536,0.8269230769230769,0.21428571428571427,0.8571428571428571,0.0037043841852542883
570,1.5360270142555237,1.534306526184082,0.36538461538461536,0.8269230769230769,0.21428571428571427,0.8571428571428571,0.0036698245356514337
571,1.5714977979660034,1.536982774734497,0.40384615384615385,0.8269230769230769,0.21428571428571427,0.8571428571428571,0.003634976249348867
572,1.5422015190124512,1.5374592542648315,0.36538461538461536,0.8269230769230769,0.21428571428571427,0.8571428571428571,0.0035998479246397877
573,1.5553234815597534,1.5382320880889893,0.25,0.8269230769230769,0.21428571428571427,0.8571428571428571,0.003564448228912682
574,1.5619689226150513,1.5377488136291504,0.38461538461538464,0.8269230769230769,0.21428571428571427,0.8571428571428571,0.0035287858965127724
575,1.5393104553222656,1.5366215705871582,0.36538461538461536,0.8269230769230769,0.21428571428571427,0.8571428571428571,0.003492869726586951
576,1.5631016492843628,1.5360527038574219,0.4230769230769231,0.8269230769230769,0.21428571428571427,0.8571428571428571,0.003456708580912725
577,1.5514055490493774,1.5360544919967651,0.38461538461538464,0.8269230769230769,0.21428571428571427,0.8571428571428571,0.0034203113817116953
578,1.5456470847129822,1.5355517864227295,0.36538461538461536,0.8269230769230769,0.21428571428571427,0.8571428571428571,0.003383687109448143
579,1.5650590658187866,1.5373008251190186,0.36538461538461536,0.8269230769230769,0.21428571428571427,0.8571428571428571,0.0033468448006132292
580,1.5218688249588013,1.5366846323013306,0.36538461538461536,0.8269230769230769,0.21428571428571427,0.8571428571428571,0.003309793545495374
581,1.5357062220573425,1.53727126121521,0.36538461538461536,0.8269230769230769,0.21428571428571427,0.8571428571428571,0.0032725424859373687
582,1.5510095953941345,1.5373907089233398,0.36538461538461536,0.8269230769230769,0.21428571428571427,0.8571428571428571,0.00323510081308076
583,1.6011953949928284,1.5370268821716309,0.36538461538461536,0.8269230769230769,0.21428571428571427,0.8571428571428571,0.0031974777650980737
584,1.5817028880119324,1.5371308326721191,0.36538461538461536,0.8269230769230769,0.21428571428571427,0.8571428571428571,0.003159682624913432
585,1.5259305238723755,1.5356178283691406,0.36538461538461536,0.8269230769230769,0.21428571428571427,0.8571428571428571,0.0031217247179121366
586,1.577292799949646,1.5353355407714844,0.36538461538461536,0.8269230769230769,0.21428571428571427,0.8571428571428571,0.0030836134096397638
587,1.5403149127960205,1.5343482494354248,0.3269230769230769,0.8269230769230769,0.21428571428571427,0.8571428571428571,0.0030453581034913567
588,1.5636265873908997,1.533264398574829,0.36538461538461536,0.8269230769230769,0.21428571428571427,0.8571428571428571,0.0030069682383912816
589,1.540135681629181,1.5345697402954102,0.3269230769230769,0.8269230769230769,0.21428571428571427,0.8571428571428571,0.002968453286464312
590,1.5310481786727905,1.5348714590072632,0.40384615384615385,0.8269230769230769,0.21428571428571427,0.8571428571428571,0.0029298227506985236
591,1.5824295282363892,1.5350232124328613,0.34615384615384615,0.8269230769230769,0.21428571428571427,0.8571428571428571,0.0028910861626005773
592,1.5418620109558105,1.5365746021270752,0.34615384615384615,0.8269230769230769,0.21428571428571427,0.8571428571428571,0.0028522530798439573
593,1.6024606227874756,1.537642240524292,0.40384615384615385,0.8269230769230769,0.21428571428571427,0.8571428571428571,0.002813333083910761
594,1.5557276606559753,1.5386104583740234,0.36538461538461536,0.8269230769230769,0.21428571428571427,0.8571428571428571,0.0027743357777276134
595,1.5912803411483765,1.5416038036346436,0.34615384615384615,0.8269230769230769,0.21428571428571427,0.8571428571428571,0.002735270783296286
596,1.5489284992218018,1.5431902408599854,0.36538461538461536,0.8269230769230769,0.21428571428571427,0.8571428571428571,0.0026961477393196128
597,1.557758092880249,1.5441999435424805,0.36538461538461536,0.8269230769230769,0.21428571428571427,0.8571428571428571,0.0026569762988232835
598,1.5395957827568054,1.543287754058838,0.36538461538461536,0.8269230769230769,0.21428571428571427,0.8571428571428571,0.0026177661267741065
599,1.570810616016388,1.5409140586853027,0.36538461538461536,0.8269230769230769,0.21428571428571427,0.8571428571428571,0.0025785268976953207
600,1.6007945537567139,1.5387771129608154,0.36538461538461536,0.8269230769230769,0.21428571428571427,0.8571428571428571,0.002539268293279552
601,1.5450416207313538,1.533971905708313,0.36538461538461536,0.8269230769230769,0.21428571428571427,0.8571428571428571,0.0025
602,1.5404306054115295,1.5301201343536377,0.38461538461538464,0.8269230769230769,0.21428571428571427,0.8571428571428571,0.002460731706720449
603,1.611156165599823,1.5270932912826538,0.34615384615384615,0.8269230769230769,0.21428571428571427,0.8571428571428571,0.0024214731023046794
604,1.5995832681655884,1.5250812768936157,0.36538461538461536,0.8269230769230769,0.21428571428571427,0.8571428571428571,0.0023822338732258936
605,1.5490877628326416,1.523766279220581,0.38461538461538464,0.8269230769230769,0.21428571428571427,0.8571428571428571,0.0023430237011767166
606,1.5670727491378784,1.5233604907989502,0.3269230769230769,0.8269230769230769,0.21428571428571427,0.8571428571428571,0.002303852260680388
607,1.569414734840393,1.52363121509552,0.3269230769230769,0.8269230769230769,0.35714285714285715,0.8571428571428571,0.002264729216703714
608,1.5681678652763367,1.523605465888977,0.2692307692307692,0.8269230769230769,0.35714285714285715,0.8571428571428571,0.0022256642222723867
609,1.5790557265281677,1.5239858627319336,0.34615384615384615,0.8269230769230769,0.35714285714285715,0.8571428571428571,0.0021866669160892395
610,1.5487510561943054,1.5248937606811523,0.21153846153846154,0.8269230769230769,0.35714285714285715,0.8571428571428571,0.002147746920156044
611,1.5574426651000977,1.5266032218933105,0.23076923076923078,0.8269230769230769,0.35714285714285715,0.8571428571428571,0.002108913837399423
612,1.5580581426620483,1.5284349918365479,0.28846153846153844,0.8269230769230769,0.21428571428571427,0.8571428571428571,0.002070177249301476
613,1.5396897792816162,1.529840350151062,0.3269230769230769,0.8269230769230769,0.21428571428571427,0.8571428571428571,0.0020315467135356884
614,1.5600905418395996,1.5319581031799316,0.28846153846153844,0.8269230769230769,0.21428571428571427,0.8571428571428571,0.001993031761608719
615,1.5539186000823975,1.5343879461288452,0.40384615384615385,0.8269230769230769,0.21428571428571427,0.8571428571428571,0.0019546418965086442
616,1.600537896156311,1.537212610244751,0.38461538461538464,0.8269230769230769,0.21428571428571427,0.8571428571428571,0.0019163865903602361
617,1.5150104761123657,1.5393635034561157,0.36538461538461536,0.8269230769230769,0.21428571428571427,0.8571428571428571,0.0018782752820878628
618,1.5435866713523865,1.5413113832473755,0.36538461538461536,0.8269230769230769,0.21428571428571427,0.8571428571428571,0.0018403173750865679
619,1.5595110058784485,1.543035626411438,0.36538461538461536,0.8269230769230769,0.21428571428571427,0.8571428571428571,0.001802522234901927
620,1.5696728825569153,1.545143961906433,0.36538461538461536,0.8269230769230769,0.21428571428571427,0.8571428571428571,0.0017648991869192404
621,1.5582748055458069,1.5458201169967651,0.36538461538461536,0.8269230769230769,0.21428571428571427,0.8571428571428571,0.0017274575140626323
622,1.567385196685791,1.545607566833496,0.36538461538461536,0.8269230769230769,0.21428571428571427,0.8571428571428571,0.0016902064545046263
623,1.5701972246170044,1.5447301864624023,0.36538461538461536,0.8269230769230769,0.21428571428571427,0.8571428571428571,0.0016531551993867715
624,1.5189583897590637,1.5434646606445312,0.36538461538461536,0.8269230769230769,0.21428571428571427,0.8571428571428571,0.0016163128905518577
625,1.6105951070785522,1.5413084030151367,0.36538461538461536,0.8269230769230769,0.21428571428571427,0.8571428571428571,0.0015796886182883059
626,1.538418471813202,1.5394898653030396,0.36538461538461536,0.8269230769230769,0.21428571428571427,0.8571428571428571,0.0015432914190872762
627,1.5725607872009277,1.5383234024047852,0.36538461538461536,0.8269230769230769,0.21428571428571427,0.8571428571428571,0.0015071302734130482
628,1.5902057886123657,1.5362977981567383,0.36538461538461536,0.8269230769230769,0.21428571428571427,0.8571428571428571,0.001471214103487228
629,1.5545029044151306,1.5342466831207275,0.38461538461538464,0.8269230769230769,0.21428571428571427,0.8571428571428571,0.0014355517710873183
630,1.5485445857048035,1.532956838607788,0.38461538461538464,0.8269230769230769,0.21428571428571427,0.8571428571428571,0.001400152075360212
631,1.5744333267211914,1.5319881439208984,0.36538461538461536,0.8269230769230769,0.21428571428571427,0.8571428571428571,0.0013650237506511332
632,1.5647677183151245,1.5313771963119507,0.38461538461538464,0.8269230769230769,0.21428571428571427,0.8571428571428571,0.001330175464348567
633,1.5460112690925598,1.5311013460159302,0.36538461538461536,0.8269230769230769,0.21428571428571427,0.8571428571428571,0.0012956158147457114
634,1.5212884545326233,1.5303720235824585,0.4230769230769231,0.8269230769230769,0.21428571428571427,0.8571428571428571,0.001261353328918981
635,1.548897385597229,1.5291368961334229,0.34615384615384615,0.8269230769230769,0.21428571428571427,0.8571428571428571,0.0012273964606240718
636,1.5411189794540405,1.528472900390625,0.3269230769230769,0.8269230769230769,0.21428571428571427,0.8571428571428571,0.001193753588210128
637,1.5479708909988403,1.5275834798812866,0.40384615384615385,0.8269230769230769,0.21428571428571427,0.8571428571428571,0.0011604330125525079
638,1.5508959889411926,1.5267784595489502,0.2692307692307692,0.8269230769230769,0.21428571428571427,0.8571428571428571,0.0011274429550046702
639,1.585128128528595,1.5262759923934937,0.3269230769230769,0.8269230769230769,0.21428571428571427,0.8571428571428571,0.0010947915553696733
640,1.5216567516326904,1.5258715152740479,0.38461538461538464,0.8269230769230769,0.21428571428571427,0.8571428571428571,0.0010624868698918036
641,1.5355167388916016,1.525792121887207,0.36538461538461536,0.8269230769230769,0.21428571428571427,0.8571428571428571,0.0010305368692688174
642,1.5544981956481934,1.5261640548706055,0.38461538461538464,0.8269230769230769,0.21428571428571427,0.8571428571428571,0.0009989494366852902
643,1.5848885774612427,1.5267943143844604,0.36538461538461536,0.8269230769230769,0.21428571428571427,0.8571428571428571,0.0009677323658675585
644,1.5316547751426697,1.5277636051177979,0.36538461538461536,0.8269230769230769,0.21428571428571427,0.8571428571428571,0.000936893359160737
645,1.5798497200012207,1.5287292003631592,0.34615384615384615,0.8269230769230769,0.21428571428571427,0.8571428571428571,0.0009064400256282757
646,1.549069106578827,1.5292959213256836,0.36538461538461536,0.8269230769230769,0.21428571428571427,0.8571428571428571,0.0008763798791745412
647,1.5542574524879456,1.5303244590759277,0.36538461538461536,0.8269230769230769,0.21428571428571427,0.8571428571428571,0.0008467203366908707
648,1.549594759941101,1.5307377576828003,0.34615384615384615,0.8269230769230769,0.21428571428571427,0.8571428571428571,0.0008174687162255665
649,1.5384859442710876,1.5311933755874634,0.34615384615384615,0.8269230769230769,0.21428571428571427,0.8571428571428571,0.0007886322351782782
650,1.5613881349563599,1.5317002534866333,0.34615384615384615,0.8269230769230769,0.21428571428571427,0.8571428571428571,0.0007602180085192142
651,1.5413310527801514,1.5319514274597168,0.36538461538461536,0.8269230769230769,0.21428571428571427,0.8571428571428571,0.0007322330470336313
652,1.535650372505188,1.5321909189224243,0.38461538461538464,0.8269230769230769,0.21428571428571427,0.8571428571428571,0.0007046842555920282
653,1.5334417819976807,1.5325844287872314,0.36538461538461536,0.8269230769230769,0.21428571428571427,0.8571428571428571,0.0006775784314464717
654,1.5860734581947327,1.5326945781707764,0.36538461538461536,0.8269230769230769,0.21428571428571427,0.8571428571428571,0.0006509222625534758
655,1.5611813068389893,1.5329428911209106,0.36538461538461536,0.8269230769230769,0.21428571428571427,0.8571428571428571,0.0006247223259238514
656,1.5758471488952637,1.532745122909546,0.36538461538461536,0.8269230769230769,0.21428571428571427,0.8571428571428571,0.0005989850859999227
657,1.527522087097168,1.5326436758041382,0.36538461538461536,0.8269230769230769,0.21428571428571427,0.8571428571428571,0.0005737168930605272
658,1.530544638633728,1.532606601715088,0.38461538461538464,0.8269230769230769,0.21428571428571427,0.8571428571428571,0.000548923981654176
659,1.5360369086265564,1.5326416492462158,0.38461538461538464,0.8269230769230769,0.21428571428571427,0.8571428571428571,0.000524612469060774
660,1.5658994317054749,1.5326926708221436,0.36538461538461536,0.8269230769230769,0.21428571428571427,0.8571428571428571,0.0005007883537822738
661,1.565588891506195,1.53252112865448,0.36538461538461536,0.8269230769230769,0.21428571428571427,0.8571428571428571,0.00047745751406263163
662,1.5682640075683594,1.5324265956878662,0.36538461538461536,0.8269230769230769,0.21428571428571427,0.8571428571428571,0.00045462570643744175
663,1.5765673518180847,1.5321900844573975,0.3269230769230769,0.8269230769230769,0.21428571428571427,0.8571428571428571,0.000432298564313596
664,1.5490593314170837,1.5319691896438599,0.40384615384615385,0.8269230769230769,0.21428571428571427,0.8571428571428571,0.00041048159657932487
665,1.5550764203071594,1.5320534706115723,0.36538461538461536,0.8269230769230769,0.21428571428571427,0.8571428571428571,0.00038918018624496285
666,1.5587238073349,1.532226800918579,0.34615384615384615,0.8269230769230769,0.21428571428571427,0.8571428571428571,0.00036839958911477014
667,1.5693352818489075,1.5322343111038208,0.38461538461538464,0.8269230769230769,0.21428571428571427,0.8571428571428571,0.0003481449324901406
668,1.537248134613037,1.5324814319610596,0.34615384615384615,0.8269230769230769,0.21428571428571427,0.8571428571428571,0.0003284212139045217
669,1.5461127758026123,1.5325489044189453,0.40384615384615385,0.8269230769230769,0.21428571428571427,0.8571428571428571,0.00030923329989034103
670,1.54213148355484,1.5325924158096313,0.34615384615384615,0.8269230769230769,0.21428571428571427,0.8571428571428571,0.00029058592477826633
671,1.5486146807670593,1.5326461791992188,0.36538461538461536,0.8269230769230769,0.21428571428571427,0.8571428571428571,0.00027248368952908055
672,1.5509087443351746,1.5326967239379883,0.3076923076923077,0.8269230769230769,0.21428571428571427,0.8571428571428571,0.00025493106059846116
673,1.5496957898139954,1.5328000783920288,0.36538461538461536,0.8269230769230769,0.21428571428571427,0.8571428571428571,0.00023793236883495162
674,1.591197669506073,1.5328621864318848,0.38461538461538464,0.8269230769230769,0.21428571428571427,0.8571428571428571,0.00022149180841138732
675,1.553991973400116,1.5329711437225342,0.36538461538461536,0.8269230769230769,0.21428571428571427,0.8571428571428571,0.0002056134357900477
676,1.5800827741622925,1.5330969095230103,0.38461538461538464,0.8269230769230769,0.21428571428571427,0.8571428571428571,0.0001903011687217837
677,1.5371805429458618,1.5331456661224365,0.36538461538461536,0.8269230769230769,0.21428571428571427,0.8571428571428571,0.00017555878527937164
678,1.5661829710006714,1.5332388877868652,0.38461538461538464,0.8269230769230769,0.21428571428571427,0.8571428571428571,0.00016138992292533155
679,1.5497412085533142,1.5333267450332642,0.36538461538461536,0.8269230769230769,0.21428571428571427,0.8571428571428571,0.00014779807761443637
680,1.5358781218528748,1.5333647727966309,0.38461538461538464,0.8269230769230769,0.21428571428571427,0.8571428571428571,0.00013478660293113676
681,1.5197745561599731,1.5334079265594482,0.38461538461538464,0.8269230769230769,0.21428571428571427,0.8571428571428571,0.00012235870926211617
682,1.5646926164627075,1.533439040184021,0.36538461538461536,0.8269230769230769,0.21428571428571427,0.8571428571428571,0.0001105174630041747
683,1.5696824193000793,1.5334595441818237,0.34615384615384615,0.8269230769230769,0.21428571428571427,0.8571428571428571,9.926578580764262e-05
684,1.5641331672668457,1.5334832668304443,0.3269230769230769,0.8269230769230769,0.21428571428571427,0.8571428571428571,8.860645385550508e-05
685,1.5584188103675842,1.5335274934768677,0.38461538461538464,0.8269230769230769,0.21428571428571427,0.8571428571428571,7.854209717842258e-05
686,1.513789415359497,1.5335602760314941,0.40384615384615385,0.8269230769230769,0.21428571428571427,0.8571428571428571,6.90751990058086e-05
687,1.5179294347763062,1.533563494682312,0.3269230769230769,0.8269230769230769,0.21428571428571427,0.8571428571428571,6.0208095153131695e-05
688,1.5674498081207275,1.5335617065429688,0.34615384615384615,0.8269230769230769,0.21428571428571427,0.8571428571428571,5.194297344558535e-05
689,1.5580188632011414,1.5335564613342285,0.36538461538461536,0.8269230769230769,0.21428571428571427,0.8571428571428571,4.4281873178278196e-05
690,1.549910306930542,1.5335699319839478,0.36538461538461536,0.8269230769230769,0.21428571428571427,0.8571428571428571,3.7226684613065334e-05
691,1.548521101474762,1.533585548400879,0.38461538461538464,0.8269230769230769,0.21428571428571427,0.8571428571428571,3.077914851215585e-05
692,1.5863938927650452,1.533590316772461,0.36538461538461536,0.8269230769230769,0.21428571428571427,0.8571428571428571,2.4940855708606158e-05
693,1.5486765503883362,1.5335956811904907,0.4230769230769231,0.8269230769230769,0.21428571428571427,0.8571428571428571,1.9713246713805587e-05
694,1.5800098180770874,1.5335991382598877,0.38461538461538464,0.8269230769230769,0.21428571428571427,0.8571428571428571,1.5097611362051012e-05
695,1.5423659086227417,1.5336006879806519,0.36538461538461536,0.8269230769230769,0.21428571428571427,0.8571428571428571,1.109508849230001e-05
696,1.5463964343070984,1.5335991382598877,0.36538461538461536,0.8269230769230769,0.21428571428571427,0.8571428571428571,7.70666566718009e-06
697,1.577043056488037,1.533600091934204,0.34615384615384615,0.8269230769230769,0.21428571428571427,0.8571428571428571,4.933178929321102e-06
698,1.5678992867469788,1.5336005687713623,0.34615384615384615,0.8269230769230769,0.21428571428571427,0.8571428571428571,2.775312595075241e-06
699,1.5585154294967651,1.53360116481781,0.36538461538461536,0.8269230769230769,0.21428571428571427,0.8571428571428571,1.233599085671e-06
700,1.5375261902809143,1.5336012840270996,0.38461538461538464,0.8269230769230769,0.21428571428571427,0.8571428571428571,3.0841879584853074e-07
