epoch,train_loss,val_loss,train_acc_action,train_acc_status,val_acc_action,val_acc_status,learning_rate
1,1.7485820651054382,1.5836610794067383,0.28846153846153844,0.5192307692307693,0.2857142857142857,0.8571428571428571,0.0004
2,1.5832511186599731,1.5909647941589355,0.38461538461538464,0.7884615384615384,0.21428571428571427,0.8571428571428571,0.0004
3,1.4621838331222534,1.5838277339935303,0.5576923076923077,0.8269230769230769,0.35714285714285715,0.8571428571428571,0.0004
4,1.4954385161399841,1.6091560125350952,0.5192307692307693,0.8269230769230769,0.35714285714285715,0.8571428571428571,0.0004
5,1.540016770362854,1.4438203573226929,0.4423076923076923,0.8269230769230769,0.5,0.8571428571428571,0.0004
6,1.3737038373947144,1.486246109008789,0.5576923076923077,0.8269230769230769,0.42857142857142855,0.8571428571428571,0.0004
7,1.3904336094856262,1.5521928071975708,0.5384615384615384,0.8269230769230769,0.2857142857142857,0.8571428571428571,0.0004
8,1.311337947845459,1.2594971656799316,0.5961538461538461,0.8269230769230769,0.7857142857142857,0.8571428571428571,0.0004
9,1.281876802444458,1.2909772396087646,0.5384615384615384,0.8269230769230769,0.42857142857142855,0.8571428571428571,0.0004
10,1.5262956023216248,1.4005061388015747,0.3269230769230769,0.8269230769230769,0.42857142857142855,0.8571428571428571,0.0004
11,1.358535885810852,1.3570547103881836,0.5,0.8269230769230769,0.42857142857142855,0.8571428571428571,0.0004
12,1.3557490110397339,1.3101849555969238,0.6538461538461539,0.8269230769230769,0.5714285714285714,0.8571428571428571,0.0004
13,1.3930845856666565,1.3630188703536987,0.36538461538461536,0.8269230769230769,0.42857142857142855,0.8571428571428571,0.0004
14,1.245668351650238,1.4214558601379395,0.5576923076923077,0.8269230769230769,0.42857142857142855,0.8571428571428571,0.0004
15,1.1179113984107971,1.3849806785583496,0.5961538461538461,0.8269230769230769,0.5,0.8571428571428571,0.0004
16,1.318565309047699,1.2166661024093628,0.5961538461538461,0.8269230769230769,0.5714285714285714,0.7857142857142857,0.0004
17,1.293357789516449,1.165359377861023,0.6153846153846154,0.8461538461538461,0.6428571428571429,0.8571428571428571,0.0004
18,1.2826696038246155,1.2718104124069214,0.5961538461538461,0.8269230769230769,0.5714285714285714,0.8571428571428571,0.0004
19,1.3492924571037292,1.4044928550720215,0.5576923076923077,0.8269230769230769,0.35714285714285715,0.8571428571428571,0.0004
20,1.1659600734710693,1.3471713066101074,0.5769230769230769,0.8269230769230769,0.42857142857142855,0.8571428571428571,0.0004
21,1.390891194343567,1.3892621994018555,0.5769230769230769,0.8269230769230769,0.5714285714285714,0.8571428571428571,0.0004
22,1.1882473230361938,1.3576641082763672,0.6538461538461539,0.8269230769230769,0.42857142857142855,0.8571428571428571,0.0004
23,1.1995761394500732,1.277042269706726,0.6538461538461539,0.8269230769230769,0.5714285714285714,0.8571428571428571,0.0004
24,1.3052253127098083,1.391642689704895,0.5192307692307693,0.8269230769230769,0.35714285714285715,0.8571428571428571,0.0004
25,1.2698392271995544,1.5540435314178467,0.5384615384615384,0.8269230769230769,0.35714285714285715,0.8571428571428571,0.0004
26,1.277981162071228,1.2661958932876587,0.5576923076923077,0.8269230769230769,0.7142857142857143,0.8571428571428571,0.0004
27,1.1955721974372864,1.2859247922897339,0.7115384615384616,0.8269230769230769,0.6428571428571429,0.8571428571428571,0.0004
28,1.2633739709854126,1.5451751947402954,0.5576923076923077,0.8461538461538461,0.35714285714285715,0.7857142857142857,0.0004
29,1.338411569595337,1.5695571899414062,0.5769230769230769,0.8461538461538461,0.35714285714285715,0.6428571428571429,0.0004
30,1.1458271741867065,1.423710823059082,0.6346153846153846,0.8461538461538461,0.42857142857142855,0.8571428571428571,0.0004
31,1.1915150880813599,1.298921823501587,0.6730769230769231,0.8653846153846154,0.42857142857142855,0.6428571428571429,0.0004
32,1.143951416015625,1.4340968132019043,0.5769230769230769,0.8269230769230769,0.5,0.6428571428571429,0.0004
33,1.3723976612091064,1.2387340068817139,0.6346153846153846,0.8076923076923077,0.7142857142857143,0.7857142857142857,0.0004
34,1.059437096118927,1.335768699645996,0.6346153846153846,0.8269230769230769,0.5714285714285714,0.8571428571428571,0.0004
35,1.233159452676773,1.5005412101745605,0.5576923076923077,0.8076923076923077,0.2857142857142857,0.8571428571428571,0.0004
36,1.3277888298034668,1.5626555681228638,0.5961538461538461,0.8461538461538461,0.42857142857142855,0.8571428571428571,0.0004
37,1.183176875114441,1.232926607131958,0.6730769230769231,0.8269230769230769,0.5,0.8571428571428571,0.0004
38,1.2950637340545654,1.5857741832733154,0.5769230769230769,0.8269230769230769,0.2857142857142857,0.7857142857142857,0.0004
39,1.389482855796814,1.3981924057006836,0.5576923076923077,0.7884615384615384,0.42857142857142855,0.8571428571428571,0.0004
40,1.2251198291778564,1.314788818359375,0.5961538461538461,0.8461538461538461,0.5,0.6428571428571429,0.0004
41,1.2534340620040894,1.5661003589630127,0.5769230769230769,0.7884615384615384,0.2857142857142857,0.6428571428571429,0.0004
42,1.2045738697052002,1.4664918184280396,0.6153846153846154,0.7884615384615384,0.42857142857142855,0.7142857142857143,0.0004
43,1.2167058289051056,1.3967483043670654,0.5192307692307693,0.8653846153846154,0.5,0.6428571428571429,0.0004
44,1.2167769074440002,1.7679808139801025,0.5192307692307693,0.7884615384615384,0.42857142857142855,0.7142857142857143,0.0004
45,1.1292295157909393,1.593857765197754,0.6538461538461539,0.8846153846153846,0.35714285714285715,0.6428571428571429,0.0004
46,1.1966671347618103,1.342386245727539,0.5384615384615384,0.8269230769230769,0.42857142857142855,0.7142857142857143,0.0004
47,1.1442648768424988,1.2364544868469238,0.6538461538461539,0.8076923076923077,0.5,0.8571428571428571,0.0004
48,1.2770376801490784,1.133519172668457,0.5576923076923077,0.8269230769230769,0.5714285714285714,0.8571428571428571,0.0004
49,1.0844852328300476,1.3344433307647705,0.6538461538461539,0.8269230769230769,0.5,0.8571428571428571,0.0004
50,1.230154573917389,1.2075666189193726,0.6346153846153846,0.8269230769230769,0.42857142857142855,0.8571428571428571,0.0004
51,1.2140673398971558,1.3996939659118652,0.6153846153846154,0.8269230769230769,0.5,0.8571428571428571,0.0004
52,1.2237321138381958,1.320666790008545,0.6153846153846154,0.8269230769230769,0.5,0.7857142857142857,0.0004
53,1.2706153988838196,1.4877269268035889,0.5961538461538461,0.8076923076923077,0.35714285714285715,0.6428571428571429,0.0004
54,1.3961447477340698,1.342902660369873,0.5769230769230769,0.7884615384615384,0.5714285714285714,0.7142857142857143,0.0004
55,1.168225646018982,1.144244909286499,0.6153846153846154,0.7692307692307693,0.5714285714285714,0.7142857142857143,0.0004
56,1.1394288539886475,1.5760775804519653,0.5961538461538461,0.8846153846153846,0.42857142857142855,0.7857142857142857,0.0004
57,1.2363513112068176,1.3935028314590454,0.6538461538461539,0.8076923076923077,0.42857142857142855,0.6428571428571429,0.0004
58,1.2596587538719177,1.4846664667129517,0.6346153846153846,0.8076923076923077,0.35714285714285715,0.7142857142857143,0.0004
59,1.2033599615097046,1.186205506324768,0.5769230769230769,0.8076923076923077,0.6428571428571429,0.8571428571428571,0.0004
60,1.076701819896698,1.0921591520309448,0.6730769230769231,0.8269230769230769,0.6428571428571429,0.8571428571428571,0.0004
61,1.176333487033844,1.5787490606307983,0.6538461538461539,0.8269230769230769,0.42857142857142855,0.8571428571428571,0.0004
62,1.325690746307373,1.779510498046875,0.6346153846153846,0.8269230769230769,0.2857142857142857,0.8571428571428571,0.0004
63,1.1816979050636292,1.269122838973999,0.5961538461538461,0.8269230769230769,0.5,0.8571428571428571,0.0004
64,1.3196479678153992,1.3100512027740479,0.6346153846153846,0.8269230769230769,0.5714285714285714,0.8571428571428571,0.0004
65,1.0577543377876282,1.3919912576675415,0.6346153846153846,0.8269230769230769,0.5,0.8571428571428571,0.0004
66,1.19316565990448,1.456963300704956,0.5769230769230769,0.8269230769230769,0.42857142857142855,0.8571428571428571,0.0004
67,1.2957003116607666,1.493028998374939,0.5961538461538461,0.8076923076923077,0.35714285714285715,0.7142857142857143,0.0004
68,1.281079649925232,1.4530073404312134,0.6153846153846154,0.8269230769230769,0.42857142857142855,0.7142857142857143,0.0004
69,1.0228381156921387,1.3377920389175415,0.6730769230769231,0.8269230769230769,0.42857142857142855,0.7142857142857143,0.0004
70,1.226195752620697,2.0245275497436523,0.5961538461538461,0.8269230769230769,0.14285714285714285,0.6428571428571429,0.0004
71,1.3462172746658325,1.3713529109954834,0.5192307692307693,0.7692307692307693,0.5,0.5714285714285714,0.0004
72,1.330184280872345,1.3356668949127197,0.5576923076923077,0.7692307692307693,0.42857142857142855,0.7857142857142857,0.0004
73,1.2221559882164001,1.2090193033218384,0.6538461538461539,0.8076923076923077,0.5,0.8571428571428571,0.0004
74,1.0720975399017334,1.507156252861023,0.6730769230769231,0.8269230769230769,0.42857142857142855,0.8571428571428571,0.0004
75,1.2215650081634521,1.2366665601730347,0.5961538461538461,0.8269230769230769,0.5714285714285714,0.8571428571428571,0.0004
76,1.166757583618164,1.2564152479171753,0.6346153846153846,0.8269230769230769,0.5,0.8571428571428571,0.0004
77,1.2003917694091797,1.2655748128890991,0.5961538461538461,0.8269230769230769,0.6428571428571429,0.8571428571428571,0.0004
78,1.257011592388153,1.3485050201416016,0.5961538461538461,0.8269230769230769,0.42857142857142855,0.8571428571428571,0.0004
79,1.3476699590682983,1.3275904655456543,0.5961538461538461,0.8269230769230769,0.42857142857142855,0.8571428571428571,0.0004
80,1.0793528258800507,1.4664175510406494,0.6730769230769231,0.8269230769230769,0.35714285714285715,0.8571428571428571,0.0004
81,1.2542645931243896,1.3293488025665283,0.5384615384615384,0.8076923076923077,0.6428571428571429,0.6428571428571429,0.0004
82,1.1925668120384216,1.4167466163635254,0.5769230769230769,0.8846153846153846,0.5714285714285714,0.7142857142857143,0.0004
83,1.341013491153717,1.2843430042266846,0.5192307692307693,0.8269230769230769,0.5714285714285714,0.7857142857142857,0.0004
84,1.0515149235725403,1.2456233501434326,0.6346153846153846,0.8461538461538461,0.5,0.7857142857142857,0.0004
85,1.1079244315624237,1.385239601135254,0.6538461538461539,0.8269230769230769,0.6428571428571429,0.8571428571428571,0.0004
86,1.0454042553901672,1.3794662952423096,0.5961538461538461,0.8653846153846154,0.6428571428571429,0.8571428571428571,0.0004
87,1.1106880903244019,1.2715564966201782,0.6923076923076923,0.8269230769230769,0.5,0.8571428571428571,0.0004
88,1.206471860408783,1.3596152067184448,0.6153846153846154,0.8269230769230769,0.35714285714285715,0.8571428571428571,0.0004
89,1.1535964608192444,1.6503636837005615,0.5769230769230769,0.8269230769230769,0.42857142857142855,0.8571428571428571,0.0004
90,1.1424784064292908,1.2390131950378418,0.6730769230769231,0.8269230769230769,0.35714285714285715,0.8571428571428571,0.0004
91,1.1540296077728271,1.379730224609375,0.6346153846153846,0.8269230769230769,0.42857142857142855,0.8571428571428571,0.0004
92,1.1445549726486206,1.1630725860595703,0.6538461538461539,0.8269230769230769,0.5,0.7857142857142857,0.0004
93,1.0430752635002136,1.4575766324996948,0.6730769230769231,0.8269230769230769,0.35714285714285715,0.7142857142857143,0.0004
94,1.1089958548545837,1.199162244796753,0.6346153846153846,0.8269230769230769,0.5714285714285714,0.6428571428571429,0.0004
95,0.9633187055587769,1.231552243232727,0.6923076923076923,0.8461538461538461,0.5714285714285714,0.5714285714285714,0.0004
96,1.204992413520813,1.2329155206680298,0.6538461538461539,0.8269230769230769,0.6428571428571429,0.6428571428571429,0.0004
97,1.1197229623794556,1.2893037796020508,0.5769230769230769,0.8846153846153846,0.5,0.5714285714285714,0.0004
98,1.0853413343429565,1.2087901830673218,0.6538461538461539,0.8076923076923077,0.5714285714285714,0.7142857142857143,0.0004
99,1.2478025555610657,1.4088587760925293,0.5961538461538461,0.7884615384615384,0.42857142857142855,0.6428571428571429,0.0004
100,1.116080641746521,1.4291512966156006,0.6346153846153846,0.8076923076923077,0.5,0.6428571428571429,0.0004
101,1.0386131405830383,1.5206178426742554,0.6153846153846154,0.8269230769230769,0.5,0.6428571428571429,0.0004
102,1.2054539918899536,1.301216721534729,0.6346153846153846,0.8461538461538461,0.42857142857142855,0.7142857142857143,0.0004
103,1.0086589455604553,1.2715815305709839,0.6923076923076923,0.8461538461538461,0.5,0.7142857142857143,0.0004
104,1.1232900023460388,1.1880457401275635,0.5961538461538461,0.7692307692307693,0.5,0.6428571428571429,0.0004
105,1.2059789299964905,1.4015860557556152,0.6538461538461539,0.8076923076923077,0.5,0.6428571428571429,0.0004
106,1.0029626488685608,1.1702537536621094,0.6923076923076923,0.8461538461538461,0.5714285714285714,0.7142857142857143,0.0004
107,1.2088949084281921,1.3968207836151123,0.6730769230769231,0.8269230769230769,0.42857142857142855,0.8571428571428571,0.0004
108,1.1630982756614685,1.4910968542099,0.6538461538461539,0.8269230769230769,0.42857142857142855,0.8571428571428571,0.0004
109,1.104422926902771,1.3144162893295288,0.6346153846153846,0.8269230769230769,0.6428571428571429,0.8571428571428571,0.0004
110,1.02456796169281,1.6079847812652588,0.5769230769230769,0.8269230769230769,0.5,0.8571428571428571,0.0004
111,1.4492244720458984,1.5580699443817139,0.5192307692307693,0.8269230769230769,0.5,0.8571428571428571,0.0004
112,1.118040144443512,1.3600845336914062,0.5961538461538461,0.8269230769230769,0.42857142857142855,0.8571428571428571,0.0004
113,1.2671753764152527,1.1080186367034912,0.6153846153846154,0.8269230769230769,0.5714285714285714,0.8571428571428571,0.0004
114,1.0799068808555603,1.1705753803253174,0.6923076923076923,0.8269230769230769,0.5,0.8571428571428571,0.0004
115,1.1228352189064026,1.1743407249450684,0.6730769230769231,0.8269230769230769,0.5,0.8571428571428571,0.0004
116,1.1629616022109985,1.229475498199463,0.5961538461538461,0.8269230769230769,0.42857142857142855,0.8571428571428571,0.0004
117,1.0608060359954834,1.4342137575149536,0.5961538461538461,0.8269230769230769,0.35714285714285715,0.8571428571428571,0.0004
118,1.1972920894622803,1.300220251083374,0.5961538461538461,0.8269230769230769,0.35714285714285715,0.8571428571428571,0.0004
119,1.1956626176834106,1.2129240036010742,0.6153846153846154,0.8269230769230769,0.5714285714285714,0.8571428571428571,0.0004
120,1.2562219500541687,1.3380279541015625,0.5961538461538461,0.8269230769230769,0.5,0.8571428571428571,0.0004
121,1.1774370074272156,1.205341100692749,0.6153846153846154,0.8269230769230769,0.42857142857142855,0.8571428571428571,0.0004
122,1.254855990409851,1.5855591297149658,0.5,0.8269230769230769,0.5,0.8571428571428571,0.0004
123,1.1365007758140564,1.6101166009902954,0.5961538461538461,0.8269230769230769,0.5,0.8571428571428571,0.0004
124,1.2622659802436829,1.3931435346603394,0.4807692307692308,0.8269230769230769,0.42857142857142855,0.8571428571428571,0.0004
125,1.279780626296997,1.5642719268798828,0.4807692307692308,0.8269230769230769,0.42857142857142855,0.8571428571428571,0.0004
126,1.2211397886276245,1.3073800802230835,0.6538461538461539,0.8269230769230769,0.5,0.8571428571428571,0.0004
127,1.238903522491455,1.657475471496582,0.6538461538461539,0.8269230769230769,0.42857142857142855,0.8571428571428571,0.0004
128,1.2029327154159546,1.291295051574707,0.5769230769230769,0.8269230769230769,0.5,0.8571428571428571,0.0004
129,1.0940582752227783,1.4531934261322021,0.6346153846153846,0.8269230769230769,0.35714285714285715,0.8571428571428571,0.0004
130,1.19134920835495,1.5941355228424072,0.6153846153846154,0.8269230769230769,0.35714285714285715,0.8571428571428571,0.0004
131,1.2544185519218445,1.0933241844177246,0.6538461538461539,0.8269230769230769,0.6428571428571429,0.8571428571428571,0.0004
132,1.1631156206130981,1.3746867179870605,0.5769230769230769,0.8269230769230769,0.42857142857142855,0.8571428571428571,0.0004
133,1.1530374884605408,1.305052638053894,0.6346153846153846,0.8269230769230769,0.5714285714285714,0.8571428571428571,0.0004
134,1.1788415908813477,1.2118890285491943,0.5769230769230769,0.8269230769230769,0.5,0.8571428571428571,0.0004
135,1.3596026301383972,1.540398120880127,0.5576923076923077,0.8269230769230769,0.42857142857142855,0.8571428571428571,0.0004
136,1.1542937755584717,1.4976301193237305,0.5384615384615384,0.8269230769230769,0.35714285714285715,0.8571428571428571,0.0004
137,1.1505340337753296,1.4295495748519897,0.6923076923076923,0.8076923076923077,0.5,0.8571428571428571,0.0004
138,1.231282114982605,1.3139796257019043,0.5961538461538461,0.8269230769230769,0.42857142857142855,0.8571428571428571,0.0004
139,1.1417787671089172,1.2859314680099487,0.5961538461538461,0.8269230769230769,0.5,0.8571428571428571,0.0004
140,1.2698519229888916,1.2974268198013306,0.6153846153846154,0.8269230769230769,0.5,0.8571428571428571,0.0004
141,1.324108064174652,1.2148017883300781,0.5384615384615384,0.8269230769230769,0.6428571428571429,0.8571428571428571,0.0004
142,1.1539058685302734,1.3433470726013184,0.6538461538461539,0.8269230769230769,0.5,0.8571428571428571,0.0004
143,1.2547744512557983,1.244588851928711,0.5961538461538461,0.8269230769230769,0.5714285714285714,0.8571428571428571,0.0004
144,1.1556723713874817,1.1827772855758667,0.6538461538461539,0.8269230769230769,0.5714285714285714,0.8571428571428571,0.0004
145,1.0719468295574188,1.3200711011886597,0.6730769230769231,0.8269230769230769,0.5,0.8571428571428571,0.0004
146,1.2037434577941895,1.2057394981384277,0.6153846153846154,0.8269230769230769,0.5,0.8571428571428571,0.0004
147,1.4443496465682983,1.352279782295227,0.5,0.8269230769230769,0.35714285714285715,0.8571428571428571,0.0004
148,1.1370415687561035,1.5498794317245483,0.6730769230769231,0.8269230769230769,0.6428571428571429,0.8571428571428571,0.0004
149,1.0997031927108765,1.3275593519210815,0.5769230769230769,0.8461538461538461,0.5,0.8571428571428571,0.0004
150,1.1655051112174988,1.4954371452331543,0.6538461538461539,0.8269230769230769,0.42857142857142855,0.8571428571428571,0.0004
151,1.1157114505767822,1.2934279441833496,0.6538461538461539,0.8269230769230769,0.5,0.8571428571428571,0.0004
152,1.1857009530067444,1.5415703058242798,0.6346153846153846,0.8269230769230769,0.35714285714285715,0.8571428571428571,0.0004
153,1.1282255053520203,1.2437107563018799,0.6923076923076923,0.8076923076923077,0.42857142857142855,0.6428571428571429,0.0004
154,1.109404981136322,1.2315819263458252,0.6346153846153846,0.8461538461538461,0.6428571428571429,0.7857142857142857,0.0004
155,1.165622889995575,1.4662617444992065,0.5961538461538461,0.8269230769230769,0.5,0.7142857142857143,0.0004
156,1.0022512078285217,1.357525110244751,0.6538461538461539,0.8461538461538461,0.5714285714285714,0.7142857142857143,0.0004
157,1.1708555221557617,1.5803776979446411,0.6538461538461539,0.8076923076923077,0.42857142857142855,0.7857142857142857,0.0004
158,1.1687129735946655,1.267276406288147,0.6730769230769231,0.8461538461538461,0.5714285714285714,0.7142857142857143,0.0004
159,1.0773106813430786,1.7888708114624023,0.6538461538461539,0.8269230769230769,0.2857142857142857,0.7142857142857143,0.0004
160,1.0076584219932556,1.2439687252044678,0.6538461538461539,0.7884615384615384,0.42857142857142855,0.7857142857142857,0.0004
161,1.4088969826698303,1.3362972736358643,0.5769230769230769,0.8076923076923077,0.42857142857142855,0.6428571428571429,0.0004
162,1.1958061456680298,1.209071159362793,0.6346153846153846,0.8269230769230769,0.5714285714285714,0.6428571428571429,0.0004
163,1.1247791349887848,1.3710570335388184,0.5961538461538461,0.7884615384615384,0.5,0.7857142857142857,0.0004
164,1.246053159236908,1.205467700958252,0.5961538461538461,0.8076923076923077,0.5,0.6428571428571429,0.0004
165,1.1493154764175415,1.5030455589294434,0.6346153846153846,0.8461538461538461,0.42857142857142855,0.6428571428571429,0.0004
166,1.0698301196098328,1.1607249975204468,0.6346153846153846,0.8461538461538461,0.5714285714285714,0.7857142857142857,0.0004
167,1.3713279962539673,1.4073426723480225,0.5384615384615384,0.8653846153846154,0.42857142857142855,0.7857142857142857,0.0004
168,0.8804284632205963,1.367387056350708,0.7307692307692307,0.8269230769230769,0.42857142857142855,0.7142857142857143,0.0004
169,1.0515705943107605,1.3842095136642456,0.6346153846153846,0.8846153846153846,0.5714285714285714,0.6428571428571429,0.0004
170,1.1181026101112366,1.4095396995544434,0.5384615384615384,0.8653846153846154,0.42857142857142855,0.7857142857142857,0.0004
171,1.13993901014328,1.1487220525741577,0.7115384615384616,0.75,0.6428571428571429,0.8571428571428571,0.0004
172,1.0152209103107452,1.3034379482269287,0.6923076923076923,0.8461538461538461,0.5,0.7857142857142857,0.0004
173,1.1218695044517517,1.343421459197998,0.6346153846153846,0.8653846153846154,0.5,0.7857142857142857,0.0004
174,1.3273327946662903,1.4186592102050781,0.5961538461538461,0.7692307692307693,0.35714285714285715,0.7857142857142857,0.0004
175,1.270691066980362,1.2193968296051025,0.5961538461538461,0.8461538461538461,0.5714285714285714,0.5714285714285714,0.0004
176,1.154858112335205,1.3000679016113281,0.6153846153846154,0.8461538461538461,0.5,0.6428571428571429,0.0004
177,1.0808091759681702,1.4984157085418701,0.6923076923076923,0.8269230769230769,0.35714285714285715,0.6428571428571429,0.0004
178,1.0853429734706879,1.0819302797317505,0.6923076923076923,0.8461538461538461,0.6428571428571429,0.7142857142857143,0.0004
179,1.159675657749176,1.6122238636016846,0.6346153846153846,0.8076923076923077,0.5,0.5714285714285714,0.0004
180,1.0037594735622406,1.5449846982955933,0.6153846153846154,0.8076923076923077,0.35714285714285715,0.7142857142857143,0.0004
181,1.122344046831131,1.3700624704360962,0.5576923076923077,0.8269230769230769,0.5,0.7142857142857143,0.0004
182,1.191446602344513,1.383183479309082,0.5576923076923077,0.8653846153846154,0.5,0.6428571428571429,0.0004
183,1.1603639125823975,1.33042573928833,0.5384615384615384,0.8653846153846154,0.5,0.7142857142857143,0.0004
184,1.0747104287147522,1.601534128189087,0.6346153846153846,0.7692307692307693,0.35714285714285715,0.7857142857142857,0.0004
185,1.178049474954605,1.3565077781677246,0.5769230769230769,0.8269230769230769,0.35714285714285715,0.8571428571428571,0.0004
186,1.065795123577118,1.1748024225234985,0.6923076923076923,0.8269230769230769,0.5,0.8571428571428571,0.0004
187,1.2130749821662903,1.1318585872650146,0.5961538461538461,0.8269230769230769,0.6428571428571429,0.8571428571428571,0.0004
188,1.0196452140808105,1.3749520778656006,0.6153846153846154,0.8269230769230769,0.5,0.8571428571428571,0.0004
189,1.1527155637741089,1.2777539491653442,0.5961538461538461,0.8269230769230769,0.42857142857142855,0.8571428571428571,0.0004
190,1.2181187272071838,1.2263469696044922,0.5961538461538461,0.8269230769230769,0.5,0.8571428571428571,0.0004
191,1.1865195631980896,1.2427914142608643,0.5576923076923077,0.8269230769230769,0.5,0.8571428571428571,0.0004
192,0.9652227163314819,1.60422682762146,0.7884615384615384,0.8269230769230769,0.5,0.8571428571428571,0.0004
193,1.2853842973709106,1.4789819717407227,0.5576923076923077,0.8269230769230769,0.42857142857142855,0.8571428571428571,0.0004
194,1.0557386875152588,1.2663205862045288,0.6153846153846154,0.8269230769230769,0.5,0.8571428571428571,0.0004
195,1.0720011591911316,1.4677352905273438,0.6346153846153846,0.8269230769230769,0.5,0.8571428571428571,0.0004
196,1.1089658439159393,1.547244668006897,0.6153846153846154,0.8269230769230769,0.42857142857142855,0.6428571428571429,0.0004
197,1.2515207529067993,1.465479850769043,0.6153846153846154,0.8076923076923077,0.5,0.7857142857142857,0.0004
198,1.1933976411819458,1.2034918069839478,0.5769230769230769,0.8461538461538461,0.5714285714285714,0.7857142857142857,0.0004
199,1.1969758868217468,1.4627070426940918,0.6538461538461539,0.8461538461538461,0.42857142857142855,0.8571428571428571,0.0004
200,1.2147126197814941,1.3912582397460938,0.5384615384615384,0.7884615384615384,0.5,0.7142857142857143,0.0004
201,1.1244428157806396,1.2075186967849731,0.6923076923076923,0.7884615384615384,0.5714285714285714,0.7142857142857143,0.0004
202,1.1701381206512451,1.1938250064849854,0.5961538461538461,0.8653846153846154,0.5714285714285714,0.7857142857142857,0.0004
203,1.008871853351593,1.2672865390777588,0.6538461538461539,0.7692307692307693,0.5714285714285714,0.7857142857142857,0.0004
204,1.0797719955444336,1.3286153078079224,0.6346153846153846,0.8269230769230769,0.5,0.5714285714285714,0.0004
205,1.0240682363510132,1.3868663311004639,0.6730769230769231,0.8846153846153846,0.5,0.6428571428571429,0.0004
206,1.0716080367565155,1.749843716621399,0.6730769230769231,0.8076923076923077,0.5,0.5714285714285714,0.0004
207,1.154611051082611,1.4547741413116455,0.6346153846153846,0.8461538461538461,0.42857142857142855,0.6428571428571429,0.0004
208,1.113480567932129,1.2700802087783813,0.5961538461538461,0.8461538461538461,0.5714285714285714,0.5714285714285714,0.0004
209,1.225289762020111,1.2870433330535889,0.5384615384615384,0.8076923076923077,0.6428571428571429,0.6428571428571429,0.0004
210,1.063003957271576,1.2815210819244385,0.6923076923076923,0.8846153846153846,0.5,0.6428571428571429,0.0004
211,1.1616055369377136,1.3144444227218628,0.6346153846153846,0.8461538461538461,0.42857142857142855,0.7142857142857143,0.0004
212,1.0353155732154846,1.3551214933395386,0.6346153846153846,0.9230769230769231,0.5714285714285714,0.6428571428571429,0.0004
213,1.211901605129242,1.3113536834716797,0.5961538461538461,0.8653846153846154,0.5714285714285714,0.5714285714285714,0.0004
214,1.2607507705688477,1.2223011255264282,0.5,0.8269230769230769,0.6428571428571429,0.7142857142857143,0.0004
215,1.0458623766899109,1.5127474069595337,0.7115384615384616,0.8269230769230769,0.5,0.5,0.0004
216,1.0498756170272827,1.3498976230621338,0.6730769230769231,0.8461538461538461,0.42857142857142855,0.7142857142857143,0.0004
217,0.9662072658538818,1.523852825164795,0.6923076923076923,0.7884615384615384,0.42857142857142855,0.7142857142857143,0.0004
218,1.143031358718872,1.4043073654174805,0.6153846153846154,0.8653846153846154,0.5714285714285714,0.8571428571428571,0.0004
219,0.9918415546417236,1.3113727569580078,0.7115384615384616,0.8653846153846154,0.5,0.7857142857142857,0.0004
220,1.0388665795326233,1.5932279825210571,0.6153846153846154,0.8846153846153846,0.35714285714285715,0.7142857142857143,0.0004
221,1.178638994693756,1.6271889209747314,0.5576923076923077,0.8461538461538461,0.42857142857142855,0.5714285714285714,0.0004
222,1.1134501695632935,1.8179755210876465,0.6730769230769231,0.8269230769230769,0.35714285714285715,0.7857142857142857,0.0004
223,1.3269289135932922,1.661104679107666,0.5,0.8269230769230769,0.35714285714285715,0.7857142857142857,0.0004
224,1.1597195267677307,1.4213999509811401,0.6730769230769231,0.8461538461538461,0.5,0.7142857142857143,0.0004
225,1.1588507294654846,1.231109857559204,0.6538461538461539,0.8461538461538461,0.5714285714285714,0.8571428571428571,0.0004
226,1.2348287105560303,1.4088046550750732,0.6153846153846154,0.8269230769230769,0.42857142857142855,0.8571428571428571,0.0004
227,1.122412621974945,1.5478606224060059,0.6538461538461539,0.8269230769230769,0.35714285714285715,0.7857142857142857,0.0004
228,0.9252372086048126,1.7186427116394043,0.6346153846153846,0.8269230769230769,0.42857142857142855,0.6428571428571429,0.0004
229,1.2079641222953796,1.6702370643615723,0.5769230769230769,0.8269230769230769,0.5714285714285714,0.6428571428571429,0.0004
230,1.1479456424713135,1.5297060012817383,0.5576923076923077,0.8653846153846154,0.5714285714285714,0.7142857142857143,0.0004
231,1.0548553466796875,1.5284218788146973,0.6730769230769231,0.8653846153846154,0.42857142857142855,0.7142857142857143,0.0004
232,1.0642265677452087,1.7963106632232666,0.6538461538461539,0.8461538461538461,0.35714285714285715,0.6428571428571429,0.0004
233,1.0683550238609314,1.2694422006607056,0.6730769230769231,0.8269230769230769,0.6428571428571429,0.7857142857142857,0.0004
234,1.0199012458324432,1.1577385663986206,0.6923076923076923,0.8846153846153846,0.5,0.8571428571428571,0.0004
235,1.1560869812965393,1.306891918182373,0.6346153846153846,0.8846153846153846,0.5714285714285714,0.7142857142857143,0.0004
236,1.2031125128269196,1.6804813146591187,0.5576923076923077,0.8461538461538461,0.2857142857142857,0.6428571428571429,0.0004
237,1.1121538281440735,1.5067834854125977,0.6538461538461539,0.8653846153846154,0.6428571428571429,0.7857142857142857,0.0004
238,1.1601483821868896,1.7203102111816406,0.6730769230769231,0.8653846153846154,0.42857142857142855,0.7142857142857143,0.0004
239,0.9352481663227081,1.7132012844085693,0.7307692307692307,0.8461538461538461,0.42857142857142855,0.7142857142857143,0.0004
240,1.0492344200611115,1.8046936988830566,0.6923076923076923,0.9230769230769231,0.42857142857142855,0.7142857142857143,0.0004
241,1.205127775669098,1.5234432220458984,0.5769230769230769,0.8461538461538461,0.42857142857142855,0.7857142857142857,0.0004
242,1.0264564156532288,1.3225488662719727,0.6538461538461539,0.8461538461538461,0.5714285714285714,0.7142857142857143,0.0004
243,1.0797902941703796,1.4356260299682617,0.6730769230769231,0.8269230769230769,0.5,0.7857142857142857,0.0004
244,1.232100486755371,1.3953516483306885,0.6538461538461539,0.8461538461538461,0.5,0.7142857142857143,0.0004
245,1.0165345072746277,1.7090904712677002,0.6538461538461539,0.8269230769230769,0.5,0.6428571428571429,0.0004
246,1.0489006638526917,1.6830618381500244,0.7307692307692307,0.8461538461538461,0.5714285714285714,0.6428571428571429,0.0004
247,1.1113386452198029,1.3876733779907227,0.6538461538461539,0.8269230769230769,0.5,0.7857142857142857,0.0004
248,0.9219420850276947,1.6970207691192627,0.6923076923076923,0.9038461538461539,0.42857142857142855,0.7142857142857143,0.0004
249,1.3143487572669983,1.870699167251587,0.6153846153846154,0.8076923076923077,0.42857142857142855,0.6428571428571429,0.0004
250,1.147903323173523,1.34949791431427,0.5769230769230769,0.7884615384615384,0.5714285714285714,0.7857142857142857,0.0004
251,1.1739080548286438,1.9235873222351074,0.6153846153846154,0.8076923076923077,0.5714285714285714,0.42857142857142855,0.0004
252,1.2023833990097046,1.4086909294128418,0.6153846153846154,0.8269230769230769,0.6428571428571429,0.7142857142857143,0.0004
253,1.1443374156951904,1.7927085161209106,0.5961538461538461,0.8269230769230769,0.5714285714285714,0.5714285714285714,0.0004
254,1.0382598042488098,1.778616189956665,0.6538461538461539,0.9038461538461539,0.42857142857142855,0.5714285714285714,0.0004
255,1.1538053750991821,1.533351182937622,0.6153846153846154,0.8846153846153846,0.5714285714285714,0.7142857142857143,0.0004
256,1.1838364005088806,1.5532689094543457,0.6346153846153846,0.7692307692307693,0.42857142857142855,0.6428571428571429,0.0004
257,1.1353832483291626,1.1757622957229614,0.5961538461538461,0.8269230769230769,0.6428571428571429,0.7142857142857143,0.0004
258,0.9612965881824493,1.831186294555664,0.6538461538461539,0.9230769230769231,0.5,0.5,0.0004
259,1.2305138111114502,1.885162353515625,0.6730769230769231,0.8461538461538461,0.42857142857142855,0.42857142857142855,0.0004
260,1.2017951607704163,1.3903253078460693,0.6153846153846154,0.8653846153846154,0.5714285714285714,0.7142857142857143,0.0004
261,1.2156347036361694,1.4949727058410645,0.5769230769230769,0.8269230769230769,0.5,0.6428571428571429,0.0004
262,1.2085018157958984,1.4174093008041382,0.6538461538461539,0.8076923076923077,0.5714285714285714,0.7142857142857143,0.0004
263,1.0853667259216309,1.3475031852722168,0.5961538461538461,0.9038461538461539,0.5714285714285714,0.7857142857142857,0.0004
264,1.1810994744300842,1.6362581253051758,0.6153846153846154,0.8653846153846154,0.5714285714285714,0.42857142857142855,0.0004
265,1.0481141805648804,1.2794395685195923,0.6730769230769231,0.8461538461538461,0.5714285714285714,0.6428571428571429,0.0004
266,1.225329339504242,1.7568844556808472,0.5769230769230769,0.7884615384615384,0.42857142857142855,0.5,0.0004
267,1.1429720520973206,1.3982027769088745,0.6153846153846154,0.8461538461538461,0.5,0.7142857142857143,0.0004
268,1.2121822237968445,1.6961342096328735,0.6538461538461539,0.8269230769230769,0.42857142857142855,0.5,0.0004
269,1.047511637210846,1.497323751449585,0.6538461538461539,0.8653846153846154,0.5714285714285714,0.6428571428571429,0.0004
270,1.1835055947303772,1.682955026626587,0.5961538461538461,0.8653846153846154,0.42857142857142855,0.42857142857142855,0.0004
271,1.0930345058441162,1.6486485004425049,0.5769230769230769,0.8461538461538461,0.7142857142857143,0.42857142857142855,0.0004
272,1.0682504177093506,1.5633859634399414,0.6346153846153846,0.7692307692307693,0.42857142857142855,0.5714285714285714,0.0004
273,1.1062026619911194,1.7780067920684814,0.6538461538461539,0.8653846153846154,0.42857142857142855,0.6428571428571429,0.0004
274,1.2208880186080933,1.4029253721237183,0.5769230769230769,0.8653846153846154,0.5,0.7142857142857143,0.0004
275,1.0682207345962524,1.4434092044830322,0.6153846153846154,0.8846153846153846,0.35714285714285715,0.7142857142857143,0.0004
276,1.108568549156189,1.2844219207763672,0.5769230769230769,0.8461538461538461,0.5,0.7857142857142857,0.0004
277,1.2444400191307068,1.4136079549789429,0.5576923076923077,0.8269230769230769,0.5,0.8571428571428571,0.0004
278,1.2408801317214966,1.179794192314148,0.5576923076923077,0.8269230769230769,0.5714285714285714,0.8571428571428571,0.0004
279,1.1248254477977753,1.1982125043869019,0.6153846153846154,0.8269230769230769,0.5,0.8571428571428571,0.0004
280,1.0871809124946594,1.348862886428833,0.6346153846153846,0.8269230769230769,0.42857142857142855,0.8571428571428571,0.0004
281,1.0401424765586853,1.3161921501159668,0.6730769230769231,0.8269230769230769,0.42857142857142855,0.8571428571428571,0.0004
282,0.9958334863185883,1.256995439529419,0.6538461538461539,0.8269230769230769,0.42857142857142855,0.7857142857142857,0.0004
283,1.0880936980247498,1.5397164821624756,0.6346153846153846,0.8846153846153846,0.6428571428571429,0.5714285714285714,0.0004
284,0.9446300864219666,1.5653047561645508,0.5769230769230769,0.9038461538461539,0.35714285714285715,0.7857142857142857,0.0004
285,1.2304908633232117,1.266553282737732,0.5769230769230769,0.8653846153846154,0.5714285714285714,0.8571428571428571,0.0004
286,1.0519797205924988,1.5396690368652344,0.6538461538461539,0.8653846153846154,0.35714285714285715,0.7142857142857143,0.0004
287,1.114649474620819,1.5988051891326904,0.5769230769230769,0.8269230769230769,0.5714285714285714,0.6428571428571429,0.0004
288,1.1878437399864197,1.3273001909255981,0.5769230769230769,0.8269230769230769,0.6428571428571429,0.7142857142857143,0.0004
289,1.1002881526947021,1.6508185863494873,0.6346153846153846,0.8076923076923077,0.5714285714285714,0.5714285714285714,0.0004
290,1.0940743684768677,1.655453085899353,0.5769230769230769,0.8653846153846154,0.5714285714285714,0.6428571428571429,0.0004
291,1.0515681505203247,2.198476791381836,0.7115384615384616,0.8846153846153846,0.35714285714285715,0.5714285714285714,0.0004
292,1.08442884683609,2.0061771869659424,0.6346153846153846,0.8461538461538461,0.5,0.5714285714285714,0.0004
293,1.261351227760315,1.886265754699707,0.5769230769230769,0.8461538461538461,0.42857142857142855,0.6428571428571429,0.0004
294,1.0135988593101501,1.768584966659546,0.6346153846153846,0.8846153846153846,0.5714285714285714,0.7142857142857143,0.0004
295,1.1439945101737976,1.9972856044769287,0.7115384615384616,0.8076923076923077,0.5,0.6428571428571429,0.0004
296,1.257781744003296,1.706283450126648,0.5384615384615384,0.8269230769230769,0.42857142857142855,0.7857142857142857,0.0004
297,1.1657699346542358,1.7439216375350952,0.5192307692307693,0.8269230769230769,0.42857142857142855,0.7142857142857143,0.0004
298,1.2734083533287048,1.6728463172912598,0.5576923076923077,0.8461538461538461,0.5,0.7142857142857143,0.0004
299,1.1747028827667236,2.1252758502960205,0.6538461538461539,0.8076923076923077,0.42857142857142855,0.6428571428571429,0.0004
300,1.0881927609443665,1.5791232585906982,0.6153846153846154,0.8269230769230769,0.5714285714285714,0.7142857142857143,0.0004
301,1.3152092695236206,1.5212290287017822,0.5769230769230769,0.8461538461538461,0.42857142857142855,0.8571428571428571,0.0004
302,1.1723538637161255,1.671525478363037,0.5384615384615384,0.8269230769230769,0.5,0.7857142857142857,0.0004
303,1.0999995172023773,1.6283624172210693,0.6730769230769231,0.8269230769230769,0.5714285714285714,0.7142857142857143,0.0004
304,0.8911296427249908,2.1841607093811035,0.75,0.9038461538461539,0.35714285714285715,0.5714285714285714,0.0004
305,1.1598724126815796,1.6220645904541016,0.6153846153846154,0.8461538461538461,0.42857142857142855,0.8571428571428571,0.0004
306,1.0365360081195831,1.8818459510803223,0.6730769230769231,0.8461538461538461,0.5,0.6428571428571429,0.0004
307,1.1287038326263428,1.6778749227523804,0.5961538461538461,0.8269230769230769,0.42857142857142855,0.7142857142857143,0.0004
308,1.002213716506958,1.5527691841125488,0.6346153846153846,0.8461538461538461,0.5714285714285714,0.7857142857142857,0.0004
309,1.2369146347045898,1.9041668176651,0.5769230769230769,0.8846153846153846,0.35714285714285715,0.7142857142857143,0.0004
310,1.1228924989700317,1.874474048614502,0.6538461538461539,0.8269230769230769,0.42857142857142855,0.6428571428571429,0.0004
311,1.0728732347488403,1.4223792552947998,0.7115384615384616,0.8653846153846154,0.5714285714285714,0.7857142857142857,0.0004
312,1.2643587589263916,1.8654111623764038,0.6153846153846154,0.8653846153846154,0.5,0.6428571428571429,0.0004
313,1.1541239023208618,1.7480800151824951,0.5384615384615384,0.8461538461538461,0.5714285714285714,0.6428571428571429,0.0004
314,1.162335455417633,2.2132270336151123,0.7307692307692307,0.8269230769230769,0.35714285714285715,0.5714285714285714,0.0004
315,1.0343098044395447,1.7903603315353394,0.6153846153846154,0.8461538461538461,0.5,0.6428571428571429,0.0004
316,0.9688662588596344,1.702263593673706,0.6346153846153846,0.8653846153846154,0.5714285714285714,0.6428571428571429,0.0004
317,1.066403865814209,1.3043867349624634,0.5961538461538461,0.8653846153846154,0.5,0.7857142857142857,0.0004
318,1.127121388912201,1.707701325416565,0.5961538461538461,0.8461538461538461,0.35714285714285715,0.8571428571428571,0.0004
319,1.0496526956558228,1.463460087776184,0.6923076923076923,0.8653846153846154,0.5,0.8571428571428571,0.0004
320,1.2052456140518188,1.9904935359954834,0.5961538461538461,0.8846153846153846,0.35714285714285715,0.7142857142857143,0.0004
321,1.0669742822647095,1.5370912551879883,0.6730769230769231,0.8653846153846154,0.5,0.7142857142857143,0.0004
322,0.9655694961547852,1.7440903186798096,0.6923076923076923,0.8461538461538461,0.5,0.7857142857142857,0.0004
323,1.2324252724647522,2.6458678245544434,0.5576923076923077,0.8269230769230769,0.2857142857142857,0.5714285714285714,0.0004
324,1.0936619639396667,2.000391960144043,0.7115384615384616,0.8461538461538461,0.5714285714285714,0.5714285714285714,0.0004
325,1.20517098903656,1.9779618978500366,0.6346153846153846,0.8461538461538461,0.42857142857142855,0.5714285714285714,0.0004
326,1.0447839498519897,2.106193780899048,0.6153846153846154,0.8653846153846154,0.2857142857142857,0.5714285714285714,0.0004
327,1.1033598184585571,1.7828600406646729,0.6730769230769231,0.8846153846153846,0.42857142857142855,0.5714285714285714,0.0004
328,1.2754738330841064,1.6704754829406738,0.6346153846153846,0.8461538461538461,0.5714285714285714,0.6428571428571429,0.0004
329,1.1719409227371216,1.5323271751403809,0.5769230769230769,0.8461538461538461,0.5,0.7142857142857143,0.0004
330,1.0709869265556335,1.416641116142273,0.6923076923076923,0.8269230769230769,0.42857142857142855,0.8571428571428571,0.0004
331,1.2853063344955444,1.8380024433135986,0.6153846153846154,0.8846153846153846,0.5714285714285714,0.6428571428571429,0.0004
332,1.027342677116394,1.804856538772583,0.6153846153846154,0.9038461538461539,0.5714285714285714,0.5714285714285714,0.0004
333,1.1261524558067322,1.712721824645996,0.5961538461538461,0.8269230769230769,0.6428571428571429,0.7142857142857143,0.0004
334,0.9880882501602173,1.7658698558807373,0.5769230769230769,0.9038461538461539,0.5,0.6428571428571429,0.0004
335,0.8991025388240814,1.5437042713165283,0.6730769230769231,0.9038461538461539,0.5,0.8571428571428571,0.0004
336,1.0147483050823212,1.7035205364227295,0.7115384615384616,0.8846153846153846,0.5,0.7857142857142857,0.0004
337,0.9234892129898071,1.9145159721374512,0.6538461538461539,0.9038461538461539,0.42857142857142855,0.7857142857142857,0.0004
338,1.1074033975601196,1.8283538818359375,0.5769230769230769,0.8269230769230769,0.5714285714285714,0.7142857142857143,0.0004
339,1.032522827386856,1.8178921937942505,0.6730769230769231,0.8653846153846154,0.6428571428571429,0.7142857142857143,0.0004
340,0.9430404901504517,1.9457831382751465,0.7115384615384616,0.8653846153846154,0.42857142857142855,0.6428571428571429,0.0004
341,0.9909111559391022,2.3888330459594727,0.6538461538461539,0.8461538461538461,0.5,0.5714285714285714,0.0004
342,0.962586909532547,1.8780417442321777,0.6538461538461539,0.8461538461538461,0.42857142857142855,0.6428571428571429,0.0004
343,1.0507450103759766,2.0046908855438232,0.6730769230769231,0.8269230769230769,0.5714285714285714,0.6428571428571429,0.0004
344,1.0694290399551392,1.593050479888916,0.5576923076923077,0.8653846153846154,0.5,0.7142857142857143,0.0004
345,1.1646079421043396,1.5373945236206055,0.5769230769230769,0.8461538461538461,0.5,0.8571428571428571,0.0004
346,1.2044021487236023,2.2402212619781494,0.5192307692307693,0.8269230769230769,0.42857142857142855,0.5714285714285714,0.0004
347,0.8944589495658875,1.7297406196594238,0.6346153846153846,0.8653846153846154,0.5714285714285714,0.7142857142857143,0.0004
348,1.115609049797058,2.084493398666382,0.6346153846153846,0.8653846153846154,0.42857142857142855,0.6428571428571429,0.0004
349,1.1677736043930054,2.0793256759643555,0.6153846153846154,0.8653846153846154,0.5,0.6428571428571429,0.0004
350,1.1602765023708344,1.8917741775512695,0.5961538461538461,0.8269230769230769,0.35714285714285715,0.6428571428571429,0.0004
351,0.8936036825180054,1.8730261325836182,0.6923076923076923,0.8846153846153846,0.5714285714285714,0.7142857142857143,0.0004
352,1.2038804292678833,1.9652825593948364,0.6153846153846154,0.8269230769230769,0.42857142857142855,0.7142857142857143,0.0004
353,0.8885279595851898,2.058035373687744,0.7115384615384616,0.8653846153846154,0.5,0.6428571428571429,0.0004
354,1.068964660167694,1.6324303150177002,0.5576923076923077,0.8269230769230769,0.42857142857142855,0.7142857142857143,0.0004
355,1.272660255432129,2.0182743072509766,0.6346153846153846,0.8269230769230769,0.35714285714285715,0.7857142857142857,0.0004
356,1.14297217130661,1.8069322109222412,0.6730769230769231,0.8461538461538461,0.5714285714285714,0.6428571428571429,0.0004
357,1.0846453309059143,2.2541909217834473,0.6923076923076923,0.8653846153846154,0.42857142857142855,0.5714285714285714,0.0004
358,0.9909200072288513,1.922717571258545,0.6538461538461539,0.8653846153846154,0.5,0.6428571428571429,0.0004
359,1.167913556098938,1.705896019935608,0.6730769230769231,0.8269230769230769,0.5,0.7857142857142857,0.0004
360,0.9414660334587097,1.871185541152954,0.6346153846153846,0.9038461538461539,0.35714285714285715,0.7142857142857143,0.0004
361,1.1648334860801697,2.050802707672119,0.6538461538461539,0.8653846153846154,0.42857142857142855,0.6428571428571429,0.0004
362,1.1248419284820557,2.4717838764190674,0.7115384615384616,0.8461538461538461,0.35714285714285715,0.42857142857142855,0.0004
363,1.0671895146369934,1.4827532768249512,0.6538461538461539,0.8076923076923077,0.5,0.6428571428571429,0.0004
364,1.006564199924469,1.5991706848144531,0.6538461538461539,0.9230769230769231,0.5,0.5714285714285714,0.0004
365,1.196286141872406,2.2080466747283936,0.5961538461538461,0.8653846153846154,0.42857142857142855,0.5,0.0004
366,1.1105479300022125,2.1152706146240234,0.5961538461538461,0.8653846153846154,0.42857142857142855,0.7142857142857143,0.0004
367,0.9398602545261383,1.3088487386703491,0.7307692307692307,0.8846153846153846,0.42857142857142855,0.8571428571428571,0.0004
368,1.0625855326652527,2.304286003112793,0.6153846153846154,0.8076923076923077,0.5,0.6428571428571429,0.0004
369,1.1889973878860474,1.8549752235412598,0.6346153846153846,0.8461538461538461,0.5,0.7142857142857143,0.0004
370,0.9774680733680725,2.090824604034424,0.6923076923076923,0.8653846153846154,0.42857142857142855,0.6428571428571429,0.0004
371,0.7198424637317657,1.3220359086990356,0.75,0.8846153846153846,0.5714285714285714,0.8571428571428571,0.0004
372,1.1428971886634827,2.2478384971618652,0.5961538461538461,0.8269230769230769,0.42857142857142855,0.7142857142857143,0.0004
373,1.3108871281147003,1.6172940731048584,0.5384615384615384,0.8269230769230769,0.5,0.8571428571428571,0.0004
374,1.0678478479385376,1.5869240760803223,0.6923076923076923,0.8269230769230769,0.42857142857142855,0.7857142857142857,0.0004
375,1.2516633868217468,1.4083771705627441,0.6153846153846154,0.8076923076923077,0.5714285714285714,0.7857142857142857,0.0004
376,1.0080240964889526,2.1954593658447266,0.6153846153846154,0.8653846153846154,0.5,0.5,0.0004
377,1.0794714987277985,1.4612302780151367,0.6346153846153846,0.8461538461538461,0.42857142857142855,0.7857142857142857,0.0004
378,1.0917229652404785,1.6959123611450195,0.6923076923076923,0.7884615384615384,0.5714285714285714,0.5714285714285714,0.0004
379,1.057016283273697,1.4267494678497314,0.5769230769230769,0.8653846153846154,0.5714285714285714,0.7857142857142857,0.0004
380,1.124315321445465,1.9304351806640625,0.6730769230769231,0.8076923076923077,0.35714285714285715,0.5714285714285714,0.0004
381,1.1381201148033142,1.486610770225525,0.5769230769230769,0.8269230769230769,0.5,0.7857142857142857,0.0004
382,0.8976411521434784,1.3762047290802002,0.7307692307692307,0.9038461538461539,0.5,0.9285714285714286,0.0004
383,1.1559484004974365,2.1304376125335693,0.5769230769230769,0.8461538461538461,0.5,0.6428571428571429,0.0004
384,1.0635570883750916,2.188833713531494,0.6153846153846154,0.8653846153846154,0.42857142857142855,0.6428571428571429,0.0004
385,0.9392455220222473,2.0922045707702637,0.5961538461538461,0.9038461538461539,0.7142857142857143,0.6428571428571429,0.0004
386,0.9744133055210114,2.446160316467285,0.5769230769230769,0.9038461538461539,0.42857142857142855,0.5714285714285714,0.0004
387,1.1571632027626038,2.1108100414276123,0.6153846153846154,0.8269230769230769,0.5714285714285714,0.7142857142857143,0.0004
388,0.8609172403812408,2.395378828048706,0.7115384615384616,0.8461538461538461,0.5,0.5714285714285714,0.0004
389,1.174517810344696,2.148782253265381,0.6730769230769231,0.8076923076923077,0.6428571428571429,0.6428571428571429,0.0004
390,1.0139691233634949,2.0328943729400635,0.6153846153846154,0.8461538461538461,0.5,0.7142857142857143,0.0004
391,1.0883086919784546,1.771974802017212,0.6538461538461539,0.8461538461538461,0.7142857142857143,0.7142857142857143,0.0004
392,1.1343536376953125,1.8843367099761963,0.5769230769230769,0.8461538461538461,0.5714285714285714,0.6428571428571429,0.0004
393,1.0800169110298157,1.8947091102600098,0.5961538461538461,0.8269230769230769,0.5714285714285714,0.6428571428571429,0.0004
394,0.9251130223274231,1.643092155456543,0.7115384615384616,0.9038461538461539,0.6428571428571429,0.7142857142857143,0.0004
395,1.2767860293388367,1.5919520854949951,0.5576923076923077,0.8653846153846154,0.5,0.5714285714285714,0.0004
396,1.1194462180137634,1.4411189556121826,0.6346153846153846,0.8076923076923077,0.5714285714285714,0.6428571428571429,0.0004
397,1.1399754881858826,2.396691083908081,0.6923076923076923,0.8846153846153846,0.35714285714285715,0.5,0.0004
398,0.9458856284618378,1.769454002380371,0.75,0.9038461538461539,0.42857142857142855,0.7142857142857143,0.0004
399,1.0688409805297852,2.001826763153076,0.5961538461538461,0.9038461538461539,0.42857142857142855,0.7142857142857143,0.0004
400,1.0161867141723633,1.7192610502243042,0.6538461538461539,0.8653846153846154,0.5714285714285714,0.5714285714285714,0.0004
401,1.0100802779197693,1.6943575143814087,0.6923076923076923,0.8846153846153846,0.42857142857142855,0.6428571428571429,0.0004
402,1.0642823576927185,1.9256210327148438,0.6346153846153846,0.8461538461538461,0.5,0.5714285714285714,0.0004
403,1.2938913702964783,2.104520320892334,0.5769230769230769,0.8461538461538461,0.35714285714285715,0.42857142857142855,0.0004
404,1.1442049145698547,1.7693723440170288,0.5961538461538461,0.8653846153846154,0.35714285714285715,0.7142857142857143,0.0004
405,1.0415707230567932,2.379671096801758,0.5576923076923077,0.8461538461538461,0.2857142857142857,0.5714285714285714,0.0004
406,0.9793607592582703,1.6622314453125,0.7115384615384616,0.8846153846153846,0.5,0.6428571428571429,0.0004
407,1.0287926197052002,1.8456714153289795,0.6730769230769231,0.8653846153846154,0.42857142857142855,0.6428571428571429,0.0004
408,1.0984874963760376,1.420410394668579,0.6153846153846154,0.8076923076923077,0.42857142857142855,0.6428571428571429,0.0004
409,1.1109030544757843,1.616615653038025,0.6538461538461539,0.8076923076923077,0.5,0.7142857142857143,0.0004
410,0.8455280363559723,2.061626434326172,0.6923076923076923,0.9230769230769231,0.5,0.5714285714285714,0.0004
411,0.9114394783973694,2.343498706817627,0.6730769230769231,0.9038461538461539,0.35714285714285715,0.42857142857142855,0.0004
412,1.2242404222488403,2.6066668033599854,0.5961538461538461,0.8269230769230769,0.35714285714285715,0.35714285714285715,0.0004
413,1.1704866886138916,1.7398134469985962,0.6346153846153846,0.8461538461538461,0.5714285714285714,0.6428571428571429,0.0004
414,0.8558769226074219,2.3789467811584473,0.75,0.8653846153846154,0.5,0.6428571428571429,0.0004
415,0.9587416052818298,2.0225536823272705,0.6538461538461539,0.8461538461538461,0.2857142857142857,0.7857142857142857,0.0004
416,1.2002188861370087,2.016367197036743,0.6346153846153846,0.7884615384615384,0.5714285714285714,0.6428571428571429,0.0004
417,1.0893519520759583,2.430996894836426,0.5384615384615384,0.8653846153846154,0.5,0.6428571428571429,0.0004
418,0.9063864946365356,2.0374388694763184,0.6730769230769231,0.8653846153846154,0.5,0.6428571428571429,0.0004
419,1.0337187051773071,2.116964817047119,0.6538461538461539,0.8076923076923077,0.5,0.5714285714285714,0.0004
420,1.099297434091568,1.7868924140930176,0.5769230769230769,0.8461538461538461,0.5,0.5714285714285714,0.0004
421,1.141332745552063,1.9462491273880005,0.6730769230769231,0.8461538461538461,0.42857142857142855,0.7142857142857143,0.0004
422,1.1195332407951355,1.930812120437622,0.6538461538461539,0.8076923076923077,0.42857142857142855,0.5,0.0004
423,1.1578159928321838,1.519545316696167,0.5576923076923077,0.8653846153846154,0.5714285714285714,0.6428571428571429,0.0004
424,1.1739267110824585,1.7566664218902588,0.6346153846153846,0.8269230769230769,0.35714285714285715,0.5714285714285714,0.0004
425,1.248285710811615,1.9217066764831543,0.5769230769230769,0.8269230769230769,0.5714285714285714,0.5,0.0004
426,1.022448718547821,1.2630804777145386,0.7692307692307693,0.8076923076923077,0.5,0.7857142857142857,0.0004
427,1.1469401121139526,2.1599678993225098,0.6346153846153846,0.8269230769230769,0.35714285714285715,0.5714285714285714,0.0004
428,1.1061003506183624,1.7865134477615356,0.5961538461538461,0.8653846153846154,0.5,0.5,0.0004
429,1.39693945646286,1.7353113889694214,0.5192307692307693,0.8846153846153846,0.42857142857142855,0.7142857142857143,0.0004
430,0.9183287024497986,1.679349422454834,0.7692307692307693,0.8846153846153846,0.35714285714285715,0.7142857142857143,0.0004
431,1.0532731413841248,1.3824992179870605,0.6923076923076923,0.8269230769230769,0.5,0.9285714285714286,0.0004
432,0.970341145992279,1.676727294921875,0.6730769230769231,0.8461538461538461,0.5714285714285714,0.6428571428571429,0.0004
433,0.9450804889202118,1.6592354774475098,0.7115384615384616,0.8269230769230769,0.42857142857142855,0.8571428571428571,0.0004
434,1.0233787894248962,2.14908504486084,0.6538461538461539,0.8461538461538461,0.42857142857142855,0.7142857142857143,0.0004
435,1.123214602470398,1.8177430629730225,0.5961538461538461,0.8269230769230769,0.42857142857142855,0.8571428571428571,0.0004
436,0.8916499614715576,1.325068712234497,0.7307692307692307,0.8846153846153846,0.5714285714285714,0.8571428571428571,0.0004
437,1.0653750896453857,1.9634157419204712,0.5384615384615384,0.8461538461538461,0.5714285714285714,0.7142857142857143,0.0004
438,1.048659086227417,1.6642916202545166,0.6346153846153846,0.8269230769230769,0.5,0.7142857142857143,0.0004
439,1.1740661263465881,2.317460298538208,0.5769230769230769,0.8846153846153846,0.5714285714285714,0.5,0.0004
440,1.069758266210556,2.0461268424987793,0.5961538461538461,0.8653846153846154,0.6428571428571429,0.5,0.0004
441,1.1981863975524902,1.7809672355651855,0.6923076923076923,0.8076923076923077,0.42857142857142855,0.5714285714285714,0.0004
442,0.8992287516593933,1.963097333908081,0.75,0.8653846153846154,0.42857142857142855,0.42857142857142855,0.0004
443,1.095198154449463,2.102541446685791,0.6538461538461539,0.8846153846153846,0.42857142857142855,0.5714285714285714,0.0004
444,0.8126736283302307,1.9175362586975098,0.75,0.8846153846153846,0.2857142857142857,0.6428571428571429,0.0004
445,0.9580070972442627,1.8478388786315918,0.6538461538461539,0.8461538461538461,0.5,0.6428571428571429,0.0004
446,1.0395614802837372,2.3466849327087402,0.6730769230769231,0.8076923076923077,0.5,0.5714285714285714,0.0004
447,0.974647045135498,1.7489943504333496,0.7115384615384616,0.8461538461538461,0.42857142857142855,0.7142857142857143,0.0004
448,0.9597084224224091,2.170383930206299,0.6538461538461539,0.8846153846153846,0.42857142857142855,0.7142857142857143,0.0004
449,1.0897130370140076,2.195570468902588,0.6538461538461539,0.8846153846153846,0.5714285714285714,0.6428571428571429,0.0004
450,1.0098676681518555,2.4718527793884277,0.6923076923076923,0.8269230769230769,0.42857142857142855,0.5714285714285714,0.0004
451,1.2119566798210144,1.9032540321350098,0.6923076923076923,0.8076923076923077,0.5,0.7857142857142857,0.0004
452,1.0718410015106201,1.3045912981033325,0.75,0.8269230769230769,0.5,1.0,0.0004
453,1.0931829810142517,2.184776544570923,0.7115384615384616,0.8653846153846154,0.42857142857142855,0.7142857142857143,0.0004
454,1.0562080442905426,2.124948501586914,0.6346153846153846,0.8846153846153846,0.5714285714285714,0.6428571428571429,0.0004
455,1.1154661774635315,2.1554431915283203,0.5961538461538461,0.7884615384615384,0.42857142857142855,0.7142857142857143,0.0004
456,1.2257372736930847,1.946287751197815,0.6153846153846154,0.8269230769230769,0.42857142857142855,0.6428571428571429,0.0004
457,1.1063548922538757,1.283473253250122,0.6346153846153846,0.8653846153846154,0.6428571428571429,0.7857142857142857,0.0004
458,1.0385746657848358,1.3004910945892334,0.7115384615384616,0.8269230769230769,0.5714285714285714,0.7857142857142857,0.0004
459,1.1774671077728271,1.5705468654632568,0.6346153846153846,0.8461538461538461,0.35714285714285715,0.8571428571428571,0.0004
460,1.1212984323501587,1.4408708810806274,0.6346153846153846,0.8269230769230769,0.5714285714285714,0.8571428571428571,0.0004
461,1.1289955377578735,1.9257893562316895,0.5576923076923077,0.8461538461538461,0.5,0.5714285714285714,0.0004
462,1.0503427386283875,2.204559326171875,0.6730769230769231,0.8461538461538461,0.35714285714285715,0.5714285714285714,0.0004
463,1.09188511967659,1.952545166015625,0.7115384615384616,0.9038461538461539,0.5,0.6428571428571429,0.0004
464,0.9612423479557037,2.187009572982788,0.6923076923076923,0.8653846153846154,0.5,0.7142857142857143,0.0004
465,1.08981853723526,3.0652146339416504,0.5576923076923077,0.8846153846153846,0.42857142857142855,0.42857142857142855,0.0004
466,0.9819362163543701,1.6490660905838013,0.6153846153846154,0.8846153846153846,0.42857142857142855,0.6428571428571429,0.0004
467,1.0028145611286163,2.042224407196045,0.7115384615384616,0.8846153846153846,0.5714285714285714,0.6428571428571429,0.0004
468,0.9937022924423218,1.582143783569336,0.8076923076923077,0.8846153846153846,0.7857142857142857,0.7142857142857143,0.0004
469,1.0162512063980103,2.3261606693267822,0.6153846153846154,0.8846153846153846,0.5,0.7142857142857143,0.0004
470,0.8284122943878174,2.1911745071411133,0.6923076923076923,0.9038461538461539,0.42857142857142855,0.7142857142857143,0.0004
471,0.88744255900383,2.3235225677490234,0.7307692307692307,0.9230769230769231,0.42857142857142855,0.5,0.0004
472,1.0559729635715485,1.8062430620193481,0.6923076923076923,0.7692307692307693,0.5,0.7142857142857143,0.0004
473,1.0632479786872864,2.354774236679077,0.6346153846153846,0.8076923076923077,0.5,0.5714285714285714,0.0004
474,0.9489619731903076,2.4064784049987793,0.7115384615384616,0.8461538461538461,0.5,0.5714285714285714,0.0004
475,1.2014827132225037,2.1157236099243164,0.6538461538461539,0.8461538461538461,0.5,0.7142857142857143,0.0004
476,0.9377850294113159,1.5191776752471924,0.6538461538461539,0.8846153846153846,0.5,0.9285714285714286,0.0004
477,0.9340581893920898,1.9102427959442139,0.6730769230769231,0.8653846153846154,0.5,0.7857142857142857,0.0004
478,1.2160801887512207,1.9289815425872803,0.5961538461538461,0.8269230769230769,0.5,0.7857142857142857,0.0004
479,1.0856606364250183,2.0186126232147217,0.5769230769230769,0.8461538461538461,0.35714285714285715,0.7857142857142857,0.0004
480,1.1406376957893372,1.7767387628555298,0.5769230769230769,0.8846153846153846,0.42857142857142855,0.7857142857142857,0.0004
481,1.1915315985679626,1.8409340381622314,0.5769230769230769,0.8269230769230769,0.5714285714285714,0.6428571428571429,0.0004
482,1.038585603237152,1.8726937770843506,0.6346153846153846,0.8653846153846154,0.42857142857142855,0.7142857142857143,0.0004
483,1.0659627318382263,1.7470654249191284,0.5769230769230769,0.8846153846153846,0.42857142857142855,0.7857142857142857,0.0004
484,0.9833600521087646,2.111900806427002,0.6923076923076923,0.8461538461538461,0.35714285714285715,0.6428571428571429,0.0004
485,1.0601288974285126,1.6274195909500122,0.5961538461538461,0.8653846153846154,0.5,0.7857142857142857,0.0004
486,1.0469116568565369,1.8272055387496948,0.6346153846153846,0.8269230769230769,0.42857142857142855,0.7857142857142857,0.0004
487,1.0744085609912872,2.2425808906555176,0.5961538461538461,0.8653846153846154,0.2857142857142857,0.6428571428571429,0.0004
488,0.9684667587280273,1.3106073141098022,0.7115384615384616,0.8653846153846154,0.5714285714285714,0.8571428571428571,0.0004
489,0.9424951374530792,1.8164596557617188,0.6538461538461539,0.8653846153846154,0.5,0.7142857142857143,0.0004
490,0.8605482578277588,1.8904807567596436,0.6730769230769231,0.8846153846153846,0.42857142857142855,0.7142857142857143,0.0004
491,1.0479715168476105,2.2435314655303955,0.6538461538461539,0.8269230769230769,0.5,0.6428571428571429,0.0004
492,0.899798572063446,1.8973207473754883,0.6730769230769231,0.8461538461538461,0.5714285714285714,0.7142857142857143,0.0004
493,1.105157732963562,2.3578290939331055,0.6730769230769231,0.8461538461538461,0.42857142857142855,0.5714285714285714,0.0004
494,0.9203079640865326,1.7689870595932007,0.8269230769230769,0.8653846153846154,0.6428571428571429,0.6428571428571429,0.0004
495,1.0948851108551025,1.977243185043335,0.5576923076923077,0.8269230769230769,0.5,0.5714285714285714,0.0004
496,1.117697536945343,2.3122477531433105,0.5961538461538461,0.8846153846153846,0.5,0.35714285714285715,0.0004
497,1.0765467286109924,1.6121349334716797,0.6923076923076923,0.8461538461538461,0.5,0.6428571428571429,0.0004
498,1.1654123663902283,2.0984411239624023,0.6346153846153846,0.8269230769230769,0.5,0.5,0.0004
499,1.0544395446777344,2.1308116912841797,0.5769230769230769,0.8461538461538461,0.5,0.5714285714285714,0.0004
500,1.2129216194152832,1.921208381652832,0.6346153846153846,0.8076923076923077,0.5,0.7142857142857143,0.0004
501,1.2588871717453003,1.282431721687317,0.6346153846153846,0.8653846153846154,0.5,0.9285714285714286,0.0004
502,1.133870005607605,1.2692296504974365,0.6346153846153846,0.8653846153846154,0.6428571428571429,0.8571428571428571,0.0004
503,1.1776557862758636,1.6999529600143433,0.6346153846153846,0.8653846153846154,0.5,0.6428571428571429,0.0004
504,1.0173469185829163,1.3138974905014038,0.6730769230769231,0.8269230769230769,0.5714285714285714,0.8571428571428571,0.0004
505,1.0260953307151794,1.6928980350494385,0.6538461538461539,0.8461538461538461,0.5,0.7857142857142857,0.0004
506,0.9448370337486267,1.840684413909912,0.7307692307692307,0.8846153846153846,0.5,0.7142857142857143,0.0004
507,1.2085524201393127,1.4439014196395874,0.6153846153846154,0.8461538461538461,0.5,0.7857142857142857,0.0004
508,0.9337316155433655,1.9859412908554077,0.6730769230769231,0.8846153846153846,0.35714285714285715,0.7857142857142857,0.0004
509,0.9244883060455322,2.7937684059143066,0.75,0.8653846153846154,0.42857142857142855,0.5714285714285714,0.0004
510,0.8601184487342834,2.8266208171844482,0.7692307692307693,0.8653846153846154,0.35714285714285715,0.6428571428571429,0.0004
511,1.164307713508606,2.6231679916381836,0.6346153846153846,0.8076923076923077,0.42857142857142855,0.5714285714285714,0.0004
512,1.021819531917572,1.9788057804107666,0.6346153846153846,0.8653846153846154,0.6428571428571429,0.6428571428571429,0.0004
513,1.0453780889511108,2.641301155090332,0.7115384615384616,0.8653846153846154,0.42857142857142855,0.6428571428571429,0.0004
514,1.2545127272605896,1.887007236480713,0.5576923076923077,0.8269230769230769,0.5,0.7857142857142857,0.0004
515,1.0743004977703094,2.3577637672424316,0.6923076923076923,0.8653846153846154,0.5714285714285714,0.5714285714285714,0.0004
516,1.1509304642677307,1.797764778137207,0.6153846153846154,0.8653846153846154,0.5714285714285714,0.7142857142857143,0.0004
517,1.3821688890457153,2.5325329303741455,0.6346153846153846,0.7884615384615384,0.42857142857142855,0.6428571428571429,0.0004
518,1.1159812808036804,1.7554768323898315,0.5769230769230769,0.8653846153846154,0.42857142857142855,0.7857142857142857,0.0004
519,1.0642927885055542,1.3375823497772217,0.5961538461538461,0.8846153846153846,0.5714285714285714,0.8571428571428571,0.0004
520,1.08881676197052,1.773352861404419,0.6346153846153846,0.8269230769230769,0.5,0.7857142857142857,0.0004
521,1.1540601253509521,2.123403310775757,0.5769230769230769,0.8461538461538461,0.35714285714285715,0.5714285714285714,0.0004
522,1.029434472322464,1.75532066822052,0.6153846153846154,0.8653846153846154,0.5,0.7142857142857143,0.0004
523,1.1328916251659393,1.6020851135253906,0.6153846153846154,0.8269230769230769,0.42857142857142855,0.5,0.0004
524,0.9393299520015717,1.6700708866119385,0.7115384615384616,0.8461538461538461,0.5,0.7857142857142857,0.0004
525,0.9881325960159302,1.9837915897369385,0.6538461538461539,0.8269230769230769,0.35714285714285715,0.5714285714285714,0.0004
526,1.1902133226394653,1.6420050859451294,0.5576923076923077,0.8269230769230769,0.42857142857142855,0.7857142857142857,0.0004
527,1.1249950230121613,1.8649444580078125,0.6538461538461539,0.8653846153846154,0.5,0.6428571428571429,0.0004
528,1.000217229127884,1.6142842769622803,0.6923076923076923,0.8846153846153846,0.5714285714285714,0.7857142857142857,0.0004
529,1.0601615011692047,2.0577757358551025,0.6153846153846154,0.8653846153846154,0.5,0.5714285714285714,0.0004
530,1.0739948749542236,1.9459383487701416,0.5961538461538461,0.8653846153846154,0.6428571428571429,0.7142857142857143,0.0004
531,0.9973589777946472,2.1331570148468018,0.6730769230769231,0.8461538461538461,0.35714285714285715,0.7857142857142857,0.0004
532,0.9407703876495361,2.0055017471313477,0.7115384615384616,0.8461538461538461,0.5714285714285714,0.5714285714285714,0.0004
533,1.2049346566200256,2.5773043632507324,0.5961538461538461,0.8269230769230769,0.42857142857142855,0.5714285714285714,0.0004
534,1.0866820216178894,1.964829444885254,0.7115384615384616,0.8269230769230769,0.5714285714285714,0.6428571428571429,0.0004
535,1.170039176940918,2.427278757095337,0.7115384615384616,0.8269230769230769,0.5,0.7142857142857143,0.0004
536,1.0136142373085022,1.7273139953613281,0.6923076923076923,0.8269230769230769,0.6428571428571429,0.7142857142857143,0.0004
537,1.099189668893814,3.1384878158569336,0.6730769230769231,0.7692307692307693,0.35714285714285715,0.5714285714285714,0.0004
538,1.1571972370147705,2.693854331970215,0.6730769230769231,0.7884615384615384,0.35714285714285715,0.7857142857142857,0.0004
539,1.0726197361946106,1.533048391342163,0.5961538461538461,0.8461538461538461,0.5,0.9285714285714286,0.0004
540,1.2006644010543823,2.0959205627441406,0.5961538461538461,0.8269230769230769,0.42857142857142855,0.7142857142857143,0.0004
541,1.1503308415412903,1.4141960144042969,0.6730769230769231,0.8653846153846154,0.42857142857142855,0.8571428571428571,0.0004
542,1.2031427025794983,1.5284620523452759,0.5961538461538461,0.8269230769230769,0.5,0.7857142857142857,0.0004
543,1.040486752986908,1.3946969509124756,0.6538461538461539,0.8269230769230769,0.5714285714285714,0.5714285714285714,0.0004
544,0.9615584015846252,1.8424608707427979,0.7307692307692307,0.8269230769230769,0.2857142857142857,0.8571428571428571,0.0004
545,1.1783295273780823,1.5326201915740967,0.5576923076923077,0.8269230769230769,0.35714285714285715,0.8571428571428571,0.0004
546,1.1381584405899048,1.3111038208007812,0.5192307692307693,0.8269230769230769,0.5,0.8571428571428571,0.0004
547,1.0437247455120087,1.4617921113967896,0.5769230769230769,0.8269230769230769,0.42857142857142855,0.8571428571428571,0.0004
548,1.0886545181274414,1.2194867134094238,0.5769230769230769,0.8269230769230769,0.5714285714285714,0.8571428571428571,0.0004
549,1.1378161013126373,1.2153414487838745,0.6346153846153846,0.8269230769230769,0.5714285714285714,0.8571428571428571,0.0004
550,1.1237582564353943,1.540596604347229,0.6153846153846154,0.8269230769230769,0.5,0.8571428571428571,0.0004
551,1.0161856710910797,1.680208444595337,0.6730769230769231,0.8461538461538461,0.5,0.7857142857142857,0.0004
552,1.081079363822937,1.7507209777832031,0.5576923076923077,0.8269230769230769,0.35714285714285715,0.8571428571428571,0.0004
553,1.0965654850006104,1.562671184539795,0.5961538461538461,0.8461538461538461,0.42857142857142855,0.8571428571428571,0.0004
554,1.0417689681053162,1.4042348861694336,0.5769230769230769,0.8461538461538461,0.5,0.7857142857142857,0.0004
555,1.0881577730178833,1.8329944610595703,0.5576923076923077,0.8269230769230769,0.35714285714285715,0.8571428571428571,0.0004
556,1.125282883644104,1.2608363628387451,0.75,0.8269230769230769,0.5714285714285714,0.7857142857142857,0.0004
557,1.241629809141159,1.3503676652908325,0.6153846153846154,0.8076923076923077,0.5,0.7142857142857143,0.0004
558,1.166516125202179,1.196606159210205,0.5961538461538461,0.8269230769230769,0.5,0.7142857142857143,0.0004
559,1.0369089841842651,1.7694225311279297,0.6730769230769231,0.8269230769230769,0.5,0.7142857142857143,0.0004
560,1.242766559123993,1.5371257066726685,0.6346153846153846,0.8076923076923077,0.5,0.5714285714285714,0.0004
561,1.1719785332679749,1.7316088676452637,0.5769230769230769,0.7884615384615384,0.2857142857142857,0.5714285714285714,0.0004
562,1.1034266352653503,1.7260541915893555,0.7692307692307693,0.8461538461538461,0.2857142857142857,0.5714285714285714,0.0004
563,1.133421540260315,1.4828754663467407,0.6538461538461539,0.8461538461538461,0.42857142857142855,0.7142857142857143,0.0004
564,1.09712553024292,1.3460662364959717,0.6730769230769231,0.8653846153846154,0.5,0.7857142857142857,0.0004
565,1.256246030330658,2.2228877544403076,0.5576923076923077,0.8461538461538461,0.35714285714285715,0.5714285714285714,0.0004
566,1.3022444248199463,1.7189128398895264,0.5961538461538461,0.7884615384615384,0.42857142857142855,0.8571428571428571,0.0004
567,1.1405701041221619,1.7791812419891357,0.6346153846153846,0.8653846153846154,0.35714285714285715,0.7857142857142857,0.0004
568,1.1739615201950073,1.7884440422058105,0.6153846153846154,0.8653846153846154,0.35714285714285715,0.6428571428571429,0.0004
569,0.8968981504440308,1.859635829925537,0.7307692307692307,0.9230769230769231,0.2857142857142857,0.5714285714285714,0.0004
570,1.0582302808761597,1.1829440593719482,0.5961538461538461,0.8846153846153846,0.5,0.8571428571428571,0.0004
571,1.04069983959198,1.4463880062103271,0.6923076923076923,0.8076923076923077,0.5,0.8571428571428571,0.0004
572,1.217809796333313,1.8681093454360962,0.6730769230769231,0.7884615384615384,0.35714285714285715,0.7142857142857143,0.0004
573,1.0712565183639526,1.5749595165252686,0.6923076923076923,0.8461538461538461,0.5,0.7857142857142857,0.0004
574,1.0791986584663391,1.7506217956542969,0.6538461538461539,0.8076923076923077,0.42857142857142855,0.7142857142857143,0.0004
575,0.9700499176979065,1.8136683702468872,0.6923076923076923,0.8653846153846154,0.42857142857142855,0.7142857142857143,0.0004
576,1.3196096420288086,1.446382761001587,0.5769230769230769,0.8461538461538461,0.5714285714285714,0.7857142857142857,0.0004
577,1.1724324226379395,1.5487065315246582,0.6538461538461539,0.8269230769230769,0.5714285714285714,0.7142857142857143,0.0004
578,1.0229427218437195,2.0218024253845215,0.7307692307692307,0.8076923076923077,0.2857142857142857,0.6428571428571429,0.0004
579,1.0421000719070435,1.8602745532989502,0.6153846153846154,0.8846153846153846,0.42857142857142855,0.5714285714285714,0.0004
580,1.0472943186759949,1.650559663772583,0.6153846153846154,0.8076923076923077,0.42857142857142855,0.6428571428571429,0.0004
581,1.1966574788093567,1.3711687326431274,0.6538461538461539,0.8461538461538461,0.5,0.7142857142857143,0.0004
582,1.083935260772705,1.5212795734405518,0.6153846153846154,0.8461538461538461,0.5,0.42857142857142855,0.0004
583,1.1635032296180725,1.8569018840789795,0.6153846153846154,0.8269230769230769,0.2857142857142857,0.7142857142857143,0.0004
584,1.0496226847171783,1.415878176689148,0.6538461538461539,0.8461538461538461,0.5714285714285714,0.7857142857142857,0.0004
585,0.9377449154853821,1.624200701713562,0.7307692307692307,0.8461538461538461,0.42857142857142855,0.5,0.0004
586,1.1142303347587585,1.5151945352554321,0.6153846153846154,0.7884615384615384,0.5,0.5714285714285714,0.0004
587,1.103781819343567,1.6637957096099854,0.5961538461538461,0.8653846153846154,0.42857142857142855,0.42857142857142855,0.0004
588,1.1369478106498718,1.8121803998947144,0.6730769230769231,0.8076923076923077,0.42857142857142855,0.6428571428571429,0.0004
589,1.230847179889679,1.6222752332687378,0.6538461538461539,0.8461538461538461,0.5,0.5714285714285714,0.0004
590,1.1162764132022858,1.8834413290023804,0.6346153846153846,0.8653846153846154,0.35714285714285715,0.5714285714285714,0.0004
591,0.9713619351387024,1.4802460670471191,0.7115384615384616,0.8269230769230769,0.5714285714285714,0.7142857142857143,0.0004
592,1.0093755722045898,1.86417555809021,0.6730769230769231,0.8846153846153846,0.42857142857142855,0.5714285714285714,0.0004
593,1.0078233182430267,1.7299182415008545,0.7115384615384616,0.8461538461538461,0.5714285714285714,0.5714285714285714,0.0004
594,1.11114501953125,1.9795634746551514,0.5961538461538461,0.8269230769230769,0.5,0.5,0.0004
595,1.1652309894561768,1.5047359466552734,0.6538461538461539,0.8461538461538461,0.5,0.7857142857142857,0.0004
596,1.0519729256629944,1.7421181201934814,0.6923076923076923,0.8076923076923077,0.5714285714285714,0.5714285714285714,0.0004
597,1.0923314094543457,1.5195591449737549,0.6730769230769231,0.8269230769230769,0.5,0.7857142857142857,0.0004
598,0.8857181072235107,1.8399014472961426,0.7115384615384616,0.8653846153846154,0.35714285714285715,0.5714285714285714,0.0004
599,0.9582522809505463,1.7059941291809082,0.6538461538461539,0.8269230769230769,0.35714285714285715,0.7142857142857143,0.0004
600,0.8968309164047241,1.833200216293335,0.75,0.8653846153846154,0.5714285714285714,0.7142857142857143,0.0004
601,1.0712200999259949,2.2926928997039795,0.6730769230769231,0.7692307692307693,0.5,0.35714285714285715,0.0004
602,0.9139895141124725,1.6121923923492432,0.6730769230769231,0.8461538461538461,0.5714285714285714,0.7142857142857143,0.0004
603,0.8267747461795807,1.9402267932891846,0.8076923076923077,0.8653846153846154,0.42857142857142855,0.6428571428571429,0.0004
604,1.0152424573898315,2.0157861709594727,0.6153846153846154,0.8653846153846154,0.5,0.6428571428571429,0.0004
605,1.0761722326278687,1.9204427003860474,0.6730769230769231,0.8461538461538461,0.5,0.6428571428571429,0.0004
606,1.065288245677948,1.9190189838409424,0.6538461538461539,0.8076923076923077,0.5714285714285714,0.42857142857142855,0.0004
607,1.1971041560173035,2.14259672164917,0.5961538461538461,0.8461538461538461,0.42857142857142855,0.42857142857142855,0.0004
608,0.9387719035148621,1.7227425575256348,0.7307692307692307,0.8653846153846154,0.5714285714285714,0.5714285714285714,0.0004
609,1.1950650811195374,1.469871163368225,0.6153846153846154,0.7884615384615384,0.5,0.6428571428571429,0.0004
610,0.8974813222885132,1.6850767135620117,0.75,0.8653846153846154,0.5,0.5,0.0004
611,1.0334741473197937,1.6710736751556396,0.6346153846153846,0.8461538461538461,0.42857142857142855,0.7142857142857143,0.0004
612,1.091611623764038,1.9358348846435547,0.7115384615384616,0.8461538461538461,0.5,0.7142857142857143,0.0004
613,1.143006980419159,1.7824857234954834,0.5576923076923077,0.8461538461538461,0.42857142857142855,0.7142857142857143,0.0004
614,0.9688898921012878,1.6841257810592651,0.6538461538461539,0.8461538461538461,0.42857142857142855,0.6428571428571429,0.0004
615,0.9997416734695435,1.7517263889312744,0.7115384615384616,0.8461538461538461,0.42857142857142855,0.6428571428571429,0.0004
616,1.351937711238861,1.8621525764465332,0.5769230769230769,0.8076923076923077,0.5,0.6428571428571429,0.0004
617,1.298365831375122,1.9945024251937866,0.5576923076923077,0.8461538461538461,0.42857142857142855,0.7142857142857143,0.0004
618,1.0402727127075195,2.0057692527770996,0.7115384615384616,0.8653846153846154,0.5,0.6428571428571429,0.0004
619,1.1101834774017334,2.1957154273986816,0.6923076923076923,0.8076923076923077,0.42857142857142855,0.7857142857142857,0.0004
620,0.8864486813545227,1.5113009214401245,0.7115384615384616,0.8846153846153846,0.42857142857142855,0.8571428571428571,0.0004
621,1.1005621552467346,1.7108728885650635,0.6153846153846154,0.8269230769230769,0.42857142857142855,0.6428571428571429,0.0004
622,1.0970211029052734,2.0158276557922363,0.6730769230769231,0.8461538461538461,0.35714285714285715,0.7142857142857143,0.0004
623,0.9612874388694763,2.1968648433685303,0.75,0.8461538461538461,0.5,0.5,0.0004
624,1.105452835559845,1.9539943933486938,0.6538461538461539,0.8461538461538461,0.42857142857142855,0.7857142857142857,0.0004
625,1.2225731015205383,1.3578441143035889,0.6346153846153846,0.8653846153846154,0.5,0.8571428571428571,0.0004
626,0.9487861692905426,1.3479206562042236,0.6923076923076923,0.8653846153846154,0.5714285714285714,0.9285714285714286,0.0004
627,1.1124982237815857,1.5219206809997559,0.6538461538461539,0.8461538461538461,0.5714285714285714,0.7857142857142857,0.0004
628,1.0718204379081726,1.951444149017334,0.6346153846153846,0.8269230769230769,0.35714285714285715,0.7142857142857143,0.0004
629,1.0047232508659363,1.6472558975219727,0.6730769230769231,0.8653846153846154,0.5714285714285714,0.7142857142857143,0.0004
630,1.0046290755271912,1.7599377632141113,0.6730769230769231,0.8269230769230769,0.5714285714285714,0.6428571428571429,0.0004
631,1.1566990613937378,1.6677815914154053,0.5961538461538461,0.8653846153846154,0.42857142857142855,0.7857142857142857,0.0004
632,0.9804929494857788,1.530956745147705,0.6346153846153846,0.8846153846153846,0.5714285714285714,0.7857142857142857,0.0004
633,1.0600787699222565,1.7170403003692627,0.5769230769230769,0.8846153846153846,0.42857142857142855,0.7142857142857143,0.0004
634,1.0023366808891296,2.1141364574432373,0.6538461538461539,0.8461538461538461,0.42857142857142855,0.7142857142857143,0.0004
635,1.0743554830551147,2.0711398124694824,0.5961538461538461,0.8653846153846154,0.42857142857142855,0.5714285714285714,0.0004
636,1.0385093092918396,1.7191143035888672,0.6923076923076923,0.8846153846153846,0.5714285714285714,0.7142857142857143,0.0004
637,1.0007919669151306,2.0366194248199463,0.6538461538461539,0.8076923076923077,0.5,0.7142857142857143,0.0004
638,0.9683690071105957,2.070012331008911,0.6923076923076923,0.8269230769230769,0.5,0.6428571428571429,0.0004
639,0.9119058847427368,1.3665549755096436,0.7115384615384616,0.9038461538461539,0.6428571428571429,0.7857142857142857,0.0004
640,1.0516594648361206,1.8202656507492065,0.6538461538461539,0.8076923076923077,0.5714285714285714,0.7857142857142857,0.0004
641,1.0028352439403534,1.9124794006347656,0.7115384615384616,0.8269230769230769,0.5,0.7142857142857143,0.0004
642,1.244560420513153,2.2886712551116943,0.6346153846153846,0.8461538461538461,0.42857142857142855,0.5714285714285714,0.0004
643,1.0535701513290405,1.5342555046081543,0.6923076923076923,0.8653846153846154,0.5714285714285714,0.8571428571428571,0.0004
644,0.9505353569984436,2.4224865436553955,0.6346153846153846,0.9038461538461539,0.2857142857142857,0.6428571428571429,0.0004
645,1.4830348491668701,2.580735445022583,0.4807692307692308,0.8269230769230769,0.21428571428571427,0.7142857142857143,0.0004
646,1.404699444770813,1.2426738739013672,0.5576923076923077,0.8269230769230769,0.5,0.8571428571428571,0.0004
647,1.2606723308563232,1.3218060731887817,0.5576923076923077,0.8269230769230769,0.5,0.8571428571428571,0.0004
648,1.1657580733299255,1.9660522937774658,0.6538461538461539,0.8269230769230769,0.35714285714285715,0.7857142857142857,0.0004
649,1.2344930171966553,1.3924710750579834,0.5961538461538461,0.8269230769230769,0.5,0.9285714285714286,0.0004
650,0.9784473478794098,1.809931755065918,0.6538461538461539,0.8461538461538461,0.35714285714285715,0.7857142857142857,0.0004
651,1.234595239162445,1.8590314388275146,0.6153846153846154,0.8269230769230769,0.2857142857142857,0.7857142857142857,0.0004
652,1.2432031631469727,2.1367063522338867,0.5576923076923077,0.8269230769230769,0.21428571428571427,0.7142857142857143,0.0004
653,1.0686179995536804,1.8166335821151733,0.5384615384615384,0.8653846153846154,0.5,0.7142857142857143,0.0004
654,1.295539379119873,2.155409336090088,0.5769230769230769,0.8076923076923077,0.35714285714285715,0.7142857142857143,0.0004
655,1.1636949181556702,1.7242358922958374,0.5961538461538461,0.8653846153846154,0.5,0.7142857142857143,0.0004
656,1.1779178380966187,1.7797675132751465,0.6346153846153846,0.8076923076923077,0.42857142857142855,0.7857142857142857,0.0004
657,1.2891745567321777,2.465353012084961,0.5384615384615384,0.8269230769230769,0.35714285714285715,0.5714285714285714,0.0004
658,1.266590654850006,2.0141735076904297,0.5576923076923077,0.8653846153846154,0.2857142857142857,0.7857142857142857,0.0004
659,1.104223370552063,1.9861669540405273,0.6730769230769231,0.8269230769230769,0.42857142857142855,0.7857142857142857,0.0004
660,1.2318838834762573,1.9251277446746826,0.6346153846153846,0.8269230769230769,0.5,0.7142857142857143,0.0004
661,1.29751455783844,2.0938029289245605,0.5576923076923077,0.8269230769230769,0.42857142857142855,0.7857142857142857,0.0004
662,1.2731793522834778,2.126976251602173,0.5576923076923077,0.8269230769230769,0.5714285714285714,0.7142857142857143,0.0004
663,1.3617262840270996,1.5759689807891846,0.5384615384615384,0.8269230769230769,0.42857142857142855,0.8571428571428571,0.0004
664,1.0338066220283508,1.9220268726348877,0.6346153846153846,0.8653846153846154,0.5,0.7142857142857143,0.0004
665,1.1024835109710693,1.8164570331573486,0.6346153846153846,0.8269230769230769,0.35714285714285715,0.7857142857142857,0.0004
666,1.21335768699646,1.6606426239013672,0.6153846153846154,0.8269230769230769,0.5,0.7857142857142857,0.0004
667,1.310039222240448,1.591264247894287,0.5576923076923077,0.8269230769230769,0.5714285714285714,0.7857142857142857,0.0004
668,1.1904282569885254,1.687021255493164,0.6346153846153846,0.8269230769230769,0.35714285714285715,0.8571428571428571,0.0004
669,1.1857630908489227,1.915717363357544,0.6346153846153846,0.8269230769230769,0.42857142857142855,0.6428571428571429,0.0004
670,1.1903881430625916,2.3409948348999023,0.5961538461538461,0.7884615384615384,0.35714285714285715,0.6428571428571429,0.0004
671,1.0889194011688232,1.6139960289001465,0.5961538461538461,0.8461538461538461,0.35714285714285715,0.8571428571428571,0.0004
672,1.205574870109558,1.6384994983673096,0.5384615384615384,0.8269230769230769,0.42857142857142855,0.7857142857142857,0.0004
673,1.117782473564148,1.476068377494812,0.5961538461538461,0.8653846153846154,0.5,0.7857142857142857,0.0004
674,1.1818024516105652,1.4794940948486328,0.6153846153846154,0.8269230769230769,0.42857142857142855,0.9285714285714286,0.0004
675,1.2632195949554443,1.5092192888259888,0.5384615384615384,0.8076923076923077,0.5714285714285714,0.7857142857142857,0.0004
676,1.1177954077720642,1.501530408859253,0.6346153846153846,0.8076923076923077,0.5,0.7857142857142857,0.0004
677,1.246969759464264,1.9795217514038086,0.5384615384615384,0.8461538461538461,0.42857142857142855,0.7142857142857143,0.0004
678,1.258273959159851,1.6125340461730957,0.5576923076923077,0.8269230769230769,0.5,0.7142857142857143,0.0004
679,1.1652615070343018,1.327081561088562,0.5576923076923077,0.8076923076923077,0.5,0.9285714285714286,0.0004
680,1.0784446597099304,1.9945387840270996,0.6153846153846154,0.8653846153846154,0.5,0.42857142857142855,0.0004
681,1.3613097071647644,1.6446152925491333,0.5192307692307693,0.8269230769230769,0.42857142857142855,0.7142857142857143,0.0004
682,1.3398158550262451,1.6595690250396729,0.5192307692307693,0.7692307692307693,0.42857142857142855,0.6428571428571429,0.0004
683,1.231340229511261,2.008960485458374,0.5384615384615384,0.8461538461538461,0.5,0.5,0.0004
684,1.262359082698822,1.5606197118759155,0.5384615384615384,0.7692307692307693,0.5,0.7142857142857143,0.0004
685,1.2437395453453064,2.3319993019104004,0.5961538461538461,0.8076923076923077,0.42857142857142855,0.6428571428571429,0.0004
686,1.0752255618572235,2.2022032737731934,0.6538461538461539,0.8269230769230769,0.35714285714285715,0.5714285714285714,0.0004
687,1.2050763368606567,1.6015732288360596,0.5576923076923077,0.8461538461538461,0.35714285714285715,0.7857142857142857,0.0004
688,1.1289878487586975,1.9746060371398926,0.5192307692307693,0.8846153846153846,0.35714285714285715,0.7142857142857143,0.0004
689,1.0936954021453857,2.0917165279388428,0.6153846153846154,0.8461538461538461,0.5,0.5714285714285714,0.0004
690,1.0337918996810913,1.4145042896270752,0.6538461538461539,0.8846153846153846,0.5,0.8571428571428571,0.0004
691,1.0361984968185425,1.8591042757034302,0.6538461538461539,0.8653846153846154,0.5,0.6428571428571429,0.0004
692,1.1404174268245697,2.464113712310791,0.5192307692307693,0.8461538461538461,0.21428571428571427,0.5714285714285714,0.0004
693,1.167958676815033,2.701310873031616,0.5384615384615384,0.8269230769230769,0.21428571428571427,0.5714285714285714,0.0004
694,1.0349056124687195,2.2558932304382324,0.6923076923076923,0.8846153846153846,0.35714285714285715,0.7142857142857143,0.0004
695,1.1235949397087097,1.8955042362213135,0.6346153846153846,0.8269230769230769,0.42857142857142855,0.7142857142857143,0.0004
696,1.1598186492919922,2.53753662109375,0.6730769230769231,0.8461538461538461,0.35714285714285715,0.5714285714285714,0.0004
697,0.9268897175788879,2.116631031036377,0.6538461538461539,0.8846153846153846,0.5,0.6428571428571429,0.0004
698,1.200045108795166,2.1139168739318848,0.5961538461538461,0.8653846153846154,0.42857142857142855,0.6428571428571429,0.0004
699,1.1836019158363342,2.2042040824890137,0.6730769230769231,0.8076923076923077,0.35714285714285715,0.7142857142857143,0.0004
700,1.1886891722679138,1.8390915393829346,0.5384615384615384,0.8269230769230769,0.5,0.7857142857142857,0.0004
701,1.1282007098197937,1.983614444732666,0.6153846153846154,0.8461538461538461,0.5,0.7142857142857143,0.0004
702,1.2201013267040253,1.9193488359451294,0.5576923076923077,0.8269230769230769,0.42857142857142855,0.7857142857142857,0.0004
703,1.2318384647369385,2.249990463256836,0.5192307692307693,0.8461538461538461,0.42857142857142855,0.6428571428571429,0.0004
704,1.2311604619026184,2.7010080814361572,0.6153846153846154,0.8269230769230769,0.35714285714285715,0.5714285714285714,0.0004
705,1.3717078566551208,1.6050772666931152,0.5576923076923077,0.8269230769230769,0.5714285714285714,0.7857142857142857,0.0004
706,1.043762594461441,2.110468864440918,0.6153846153846154,0.8653846153846154,0.42857142857142855,0.7142857142857143,0.0004
707,1.207091212272644,2.430420398712158,0.6153846153846154,0.8461538461538461,0.42857142857142855,0.5714285714285714,0.0004
708,1.1556740999221802,2.0247573852539062,0.5384615384615384,0.8653846153846154,0.5,0.6428571428571429,0.0004
709,1.1691914796829224,2.0525403022766113,0.5576923076923077,0.8461538461538461,0.5,0.7142857142857143,0.0004
710,1.1939902901649475,2.270965099334717,0.5769230769230769,0.8269230769230769,0.35714285714285715,0.5714285714285714,0.0004
711,1.0983909964561462,1.8091464042663574,0.5769230769230769,0.8653846153846154,0.5714285714285714,0.7142857142857143,0.0004
712,1.2809381484985352,1.7190614938735962,0.5,0.8269230769230769,0.5714285714285714,0.7142857142857143,0.0004
713,1.2313526272773743,2.031249761581421,0.7115384615384616,0.8461538461538461,0.5,0.7142857142857143,0.0004
714,1.1255221366882324,2.0269947052001953,0.5769230769230769,0.8461538461538461,0.42857142857142855,0.5714285714285714,0.0004
715,1.0980298519134521,2.028482437133789,0.6923076923076923,0.8269230769230769,0.5714285714285714,0.6428571428571429,0.0004
716,1.2217867374420166,2.0857949256896973,0.5961538461538461,0.8269230769230769,0.35714285714285715,0.7142857142857143,0.0004
717,1.2752958536148071,1.5107903480529785,0.5769230769230769,0.8269230769230769,0.5,0.8571428571428571,0.0004
718,1.0369214415550232,2.2840962409973145,0.6923076923076923,0.8461538461538461,0.2857142857142857,0.6428571428571429,0.0004
719,1.2011983394622803,2.035919189453125,0.6153846153846154,0.8269230769230769,0.42857142857142855,0.6428571428571429,0.0004
720,1.1196953058242798,1.53973388671875,0.6538461538461539,0.8461538461538461,0.5714285714285714,0.7857142857142857,0.0004
721,1.009312093257904,1.9504098892211914,0.6346153846153846,0.8461538461538461,0.42857142857142855,0.7857142857142857,0.0004
722,1.0463804602622986,1.9466872215270996,0.7115384615384616,0.8461538461538461,0.5,0.7142857142857143,0.0004
723,1.0785903334617615,2.1731419563293457,0.5576923076923077,0.9038461538461539,0.42857142857142855,0.6428571428571429,0.0004
724,1.2591526508331299,2.201943874359131,0.5769230769230769,0.8269230769230769,0.42857142857142855,0.6428571428571429,0.0004
725,0.9602612257003784,2.0568556785583496,0.6923076923076923,0.8461538461538461,0.42857142857142855,0.7142857142857143,0.0004
726,1.1998780369758606,2.00740122795105,0.6153846153846154,0.8269230769230769,0.5714285714285714,0.6428571428571429,0.0004
727,1.243589699268341,1.934784173965454,0.6538461538461539,0.8653846153846154,0.5714285714285714,0.5714285714285714,0.0004
728,1.3237205147743225,1.6474032402038574,0.4807692307692308,0.8269230769230769,0.5714285714285714,0.42857142857142855,0.0004
729,1.057680368423462,2.1649723052978516,0.7115384615384616,0.7884615384615384,0.42857142857142855,0.6428571428571429,0.0004
730,1.0673920512199402,1.8199065923690796,0.6153846153846154,0.8461538461538461,0.5,0.5,0.0004
731,0.9921197295188904,1.5702996253967285,0.7115384615384616,0.8846153846153846,0.5,0.7142857142857143,0.0004
732,1.215999275445938,1.5403907299041748,0.6346153846153846,0.7692307692307693,0.6428571428571429,0.5714285714285714,0.0004
733,1.177980124950409,1.6720870733261108,0.7115384615384616,0.8269230769230769,0.6428571428571429,0.6428571428571429,0.0004
734,0.9688684940338135,2.062814474105835,0.6923076923076923,0.8461538461538461,0.5,0.5,0.0004
735,1.2620696425437927,2.1910524368286133,0.5576923076923077,0.8269230769230769,0.5,0.5714285714285714,0.0004
736,1.2753958702087402,2.0309548377990723,0.5961538461538461,0.8076923076923077,0.42857142857142855,0.6428571428571429,0.0004
737,1.1726305484771729,2.3333311080932617,0.5769230769230769,0.8461538461538461,0.35714285714285715,0.5714285714285714,0.0004
738,1.0453113913536072,2.195577621459961,0.6346153846153846,0.8846153846153846,0.5,0.42857142857142855,0.0004
739,1.2411901354789734,1.9509031772613525,0.5576923076923077,0.8076923076923077,0.35714285714285715,0.5714285714285714,0.0004
740,1.0753049552440643,1.4811521768569946,0.6346153846153846,0.8269230769230769,0.5,0.7857142857142857,0.0004
741,1.0262200236320496,1.3588883876800537,0.5769230769230769,0.8653846153846154,0.5714285714285714,0.5714285714285714,0.0004
742,1.1049835085868835,1.3250129222869873,0.6923076923076923,0.8269230769230769,0.5,0.8571428571428571,0.0004
743,1.0791217684745789,2.307009696960449,0.6153846153846154,0.8653846153846154,0.42857142857142855,0.42857142857142855,0.0004
744,1.3383217453956604,1.9108213186264038,0.5384615384615384,0.8076923076923077,0.35714285714285715,0.5714285714285714,0.0004
745,1.2753579020500183,2.184847116470337,0.5576923076923077,0.8653846153846154,0.42857142857142855,0.5,0.0004
746,1.1463079452514648,2.0477852821350098,0.5192307692307693,0.8461538461538461,0.5,0.5714285714285714,0.0004
747,1.1685670018196106,1.6236329078674316,0.6153846153846154,0.7884615384615384,0.5714285714285714,0.6428571428571429,0.0004
748,1.0008714199066162,2.1244688034057617,0.6923076923076923,0.8269230769230769,0.2857142857142857,0.6428571428571429,0.0004
749,1.0779878199100494,2.104501724243164,0.5769230769230769,0.8653846153846154,0.5,0.5,0.0004
750,1.387498676776886,2.1556332111358643,0.4423076923076923,0.8461538461538461,0.2857142857142857,0.5714285714285714,0.0004
751,0.9485505521297455,1.6980011463165283,0.6538461538461539,0.8653846153846154,0.35714285714285715,0.7142857142857143,0.0004
752,1.2190906405448914,1.005252718925476,0.5,0.8461538461538461,0.5714285714285714,1.0,0.0004
753,1.0304169058799744,2.2022573947906494,0.6538461538461539,0.8461538461538461,0.5,0.6428571428571429,0.0004
754,1.1336499452590942,1.9217655658721924,0.7307692307692307,0.8461538461538461,0.35714285714285715,0.7857142857142857,0.0004
755,1.1213413774967194,2.1864686012268066,0.6153846153846154,0.8461538461538461,0.5714285714285714,0.7142857142857143,0.0004
756,1.010096788406372,1.5222914218902588,0.6538461538461539,0.8269230769230769,0.5714285714285714,0.8571428571428571,0.0004
757,1.1516936421394348,1.7397531270980835,0.6346153846153846,0.8461538461538461,0.42857142857142855,0.8571428571428571,0.0004
758,1.0892073512077332,1.5890120267868042,0.6153846153846154,0.8653846153846154,0.5,0.8571428571428571,0.0004
759,1.175905466079712,2.0757205486297607,0.6730769230769231,0.8461538461538461,0.42857142857142855,0.7857142857142857,0.0004
760,1.2058320045471191,1.8240292072296143,0.6346153846153846,0.8461538461538461,0.5,0.7857142857142857,0.0004
761,1.1201661229133606,1.598677396774292,0.5961538461538461,0.8461538461538461,0.5,0.8571428571428571,0.0004
762,0.988796055316925,1.9038875102996826,0.6538461538461539,0.8461538461538461,0.5,0.7142857142857143,0.0004
763,0.9632561504840851,1.3953375816345215,0.6153846153846154,0.8653846153846154,0.35714285714285715,0.9285714285714286,0.0004
764,1.0353613495826721,1.8035396337509155,0.6153846153846154,0.8461538461538461,0.5,0.7142857142857143,0.0004
765,1.0764291882514954,2.4251925945281982,0.6346153846153846,0.8076923076923077,0.35714285714285715,0.6428571428571429,0.0004
766,1.033045470714569,2.06213641166687,0.6538461538461539,0.8461538461538461,0.42857142857142855,0.7857142857142857,0.0004
767,1.0688655376434326,2.4992737770080566,0.6538461538461539,0.8076923076923077,0.35714285714285715,0.6428571428571429,0.0004
768,1.091515064239502,2.2285470962524414,0.6538461538461539,0.8846153846153846,0.42857142857142855,0.6428571428571429,0.0004
769,1.0706822872161865,2.4269561767578125,0.6538461538461539,0.8269230769230769,0.35714285714285715,0.7857142857142857,0.0004
770,1.2543824315071106,1.91726553440094,0.5961538461538461,0.8461538461538461,0.5,0.7142857142857143,0.0004
771,1.2652708292007446,1.6331101655960083,0.5769230769230769,0.8461538461538461,0.42857142857142855,0.8571428571428571,0.0004
772,1.1823144555091858,1.493054986000061,0.6730769230769231,0.8461538461538461,0.5,0.9285714285714286,0.0004
773,1.1412256956100464,2.1145243644714355,0.6538461538461539,0.8461538461538461,0.5,0.6428571428571429,0.0004
774,0.9355044960975647,2.1656484603881836,0.6538461538461539,0.8653846153846154,0.5,0.6428571428571429,0.0004
775,1.0924646258354187,1.6760475635528564,0.6538461538461539,0.8461538461538461,0.5,0.7857142857142857,0.0004
776,1.033615380525589,1.4322316646575928,0.6153846153846154,0.8461538461538461,0.5,0.7857142857142857,0.0004
777,0.9366417825222015,1.9485068321228027,0.6923076923076923,0.8653846153846154,0.35714285714285715,0.7857142857142857,0.0004
778,1.1698830425739288,2.3967208862304688,0.5576923076923077,0.8653846153846154,0.42857142857142855,0.5714285714285714,0.0004
779,1.1961003541946411,2.0191731452941895,0.6153846153846154,0.8269230769230769,0.5,0.6428571428571429,0.0004
780,1.0589250922203064,1.7149627208709717,0.6346153846153846,0.8653846153846154,0.5714285714285714,0.7142857142857143,0.0004
781,1.0921643376350403,1.6248973608016968,0.6730769230769231,0.8653846153846154,0.5714285714285714,0.7857142857142857,0.0004
782,1.1509965062141418,1.8589270114898682,0.5769230769230769,0.8461538461538461,0.5,0.7142857142857143,0.0004
783,1.238296091556549,2.280186653137207,0.6346153846153846,0.8461538461538461,0.2857142857142857,0.6428571428571429,0.0004
784,1.0944837927818298,2.4857232570648193,0.5961538461538461,0.8461538461538461,0.35714285714285715,0.5714285714285714,0.0004
785,1.2753360271453857,1.7259652614593506,0.5961538461538461,0.8653846153846154,0.5714285714285714,0.7857142857142857,0.0004
786,1.1802602410316467,2.5234341621398926,0.5576923076923077,0.8269230769230769,0.42857142857142855,0.5714285714285714,0.0004
787,1.0735706388950348,2.320773124694824,0.6730769230769231,0.8653846153846154,0.35714285714285715,0.6428571428571429,0.0004
788,1.0990558862686157,2.259902000427246,0.6538461538461539,0.8269230769230769,0.5714285714285714,0.6428571428571429,0.0004
789,1.0801394283771515,1.9432188272476196,0.7115384615384616,0.8076923076923077,0.42857142857142855,0.7142857142857143,0.0004
790,1.0616726279258728,2.673875331878662,0.6153846153846154,0.8269230769230769,0.42857142857142855,0.6428571428571429,0.0004
791,1.0543149411678314,2.0587475299835205,0.6730769230769231,0.8269230769230769,0.5,0.7142857142857143,0.0004
792,1.2074150443077087,2.2945070266723633,0.5961538461538461,0.8076923076923077,0.5,0.6428571428571429,0.0004
793,1.2549529671669006,2.2277557849884033,0.6153846153846154,0.8461538461538461,0.5714285714285714,0.6428571428571429,0.0004
794,1.130502164363861,2.057969093322754,0.5769230769230769,0.8461538461538461,0.35714285714285715,0.7857142857142857,0.0004
795,1.0698012709617615,1.4213709831237793,0.6346153846153846,0.8461538461538461,0.5,0.8571428571428571,0.0004
796,1.282195270061493,2.00075364112854,0.6153846153846154,0.8076923076923077,0.5,0.6428571428571429,0.0004
797,1.108018308877945,1.581651210784912,0.7307692307692307,0.8653846153846154,0.6428571428571429,0.7857142857142857,0.0004
798,1.1355893313884735,1.8408565521240234,0.6153846153846154,0.8461538461538461,0.35714285714285715,0.7857142857142857,0.0004
799,1.1934891939163208,1.9136526584625244,0.6346153846153846,0.8269230769230769,0.42857142857142855,0.5,0.0004
800,1.2641085386276245,1.6399717330932617,0.5576923076923077,0.8269230769230769,0.35714285714285715,0.7142857142857143,0.0004
801,1.1386865377426147,2.1629748344421387,0.6538461538461539,0.8076923076923077,0.2857142857142857,0.7142857142857143,0.0004
802,1.2251051664352417,2.0554733276367188,0.5769230769230769,0.8653846153846154,0.5,0.6428571428571429,0.0004
803,1.175382137298584,2.297112464904785,0.6730769230769231,0.8461538461538461,0.42857142857142855,0.5714285714285714,0.0004
804,1.1473234593868256,1.3557004928588867,0.6346153846153846,0.8653846153846154,0.5,0.9285714285714286,0.0004
805,1.0566777884960175,1.5261276960372925,0.5961538461538461,0.8461538461538461,0.35714285714285715,0.7857142857142857,0.0004
806,1.1092920899391174,2.155418634414673,0.5961538461538461,0.7884615384615384,0.5,0.35714285714285715,0.0004
807,0.984146237373352,1.311947226524353,0.6346153846153846,0.8461538461538461,0.42857142857142855,0.8571428571428571,0.0004
808,1.0648192167282104,1.956189513206482,0.6538461538461539,0.8653846153846154,0.42857142857142855,0.5714285714285714,0.0004
809,1.260476291179657,1.5610607862472534,0.5576923076923077,0.8653846153846154,0.5714285714285714,0.6428571428571429,0.0004
810,1.1886734366416931,1.470566987991333,0.5384615384615384,0.8461538461538461,0.5,0.7142857142857143,0.0004
811,1.169008493423462,2.032649040222168,0.5769230769230769,0.8076923076923077,0.5,0.5714285714285714,0.0004
812,1.0076554119586945,2.053569793701172,0.6153846153846154,0.8269230769230769,0.42857142857142855,0.42857142857142855,0.0004
813,1.2013965845108032,2.0947341918945312,0.5769230769230769,0.8461538461538461,0.5,0.5714285714285714,0.0004
814,1.0341596007347107,2.0007810592651367,0.7307692307692307,0.8461538461538461,0.5714285714285714,0.5714285714285714,0.0004
815,1.0546430349349976,2.034491777420044,0.6346153846153846,0.8653846153846154,0.5,0.6428571428571429,0.0004
816,1.0737495422363281,1.9361913204193115,0.6538461538461539,0.8461538461538461,0.5,0.6428571428571429,0.0004
817,0.9606264531612396,1.8991656303405762,0.6923076923076923,0.8846153846153846,0.42857142857142855,0.6428571428571429,0.0004
818,1.0255170166492462,1.2934929132461548,0.7884615384615384,0.8653846153846154,0.5714285714285714,0.8571428571428571,0.0004
819,1.022826075553894,1.8291113376617432,0.6730769230769231,0.8653846153846154,0.5,0.7857142857142857,0.0004
820,1.0651939511299133,1.7227864265441895,0.6346153846153846,0.8269230769230769,0.6428571428571429,0.7142857142857143,0.0004
821,1.0241515040397644,1.5989781618118286,0.7692307692307693,0.8461538461538461,0.35714285714285715,0.7857142857142857,0.0004
822,1.1667996048927307,1.4950103759765625,0.5961538461538461,0.8461538461538461,0.5714285714285714,0.7857142857142857,0.0004
823,1.022055745124817,2.0791304111480713,0.6923076923076923,0.8269230769230769,0.42857142857142855,0.7142857142857143,0.0004
824,1.0955295860767365,2.3979618549346924,0.6730769230769231,0.8846153846153846,0.5714285714285714,0.6428571428571429,0.0004
825,1.04623344540596,1.301537275314331,0.6538461538461539,0.8076923076923077,0.6428571428571429,0.8571428571428571,0.0004
826,1.1636911630630493,1.527191162109375,0.7307692307692307,0.8076923076923077,0.5,0.7857142857142857,0.0004
827,1.2140128016471863,1.757826328277588,0.6346153846153846,0.8269230769230769,0.6428571428571429,0.7142857142857143,0.0004
828,1.2398145198822021,2.0625553131103516,0.6153846153846154,0.8269230769230769,0.2857142857142857,0.7142857142857143,0.0004
829,0.9546175003051758,1.756203532218933,0.6923076923076923,0.8653846153846154,0.5,0.7142857142857143,0.0004
830,0.9352773129940033,1.6874655485153198,0.6538461538461539,0.8653846153846154,0.5714285714285714,0.7142857142857143,0.0004
831,0.9897037446498871,1.853695034980774,0.6153846153846154,0.8653846153846154,0.5,0.6428571428571429,0.0004
832,1.0990906953811646,1.8642903566360474,0.6730769230769231,0.8653846153846154,0.5,0.7142857142857143,0.0004
833,0.8811294138431549,1.887153148651123,0.6730769230769231,0.8269230769230769,0.5714285714285714,0.6428571428571429,0.0004
834,0.8605596125125885,1.8870997428894043,0.7115384615384616,0.8653846153846154,0.42857142857142855,0.7857142857142857,0.0004
835,0.9625406265258789,2.456092357635498,0.5961538461538461,0.8653846153846154,0.5,0.42857142857142855,0.0004
836,0.8615605235099792,2.2499094009399414,0.6730769230769231,0.9230769230769231,0.5,0.5,0.0004
837,1.1475988030433655,1.8817179203033447,0.6730769230769231,0.9038461538461539,0.5714285714285714,0.6428571428571429,0.0004
838,1.101191520690918,2.2592973709106445,0.6346153846153846,0.8269230769230769,0.42857142857142855,0.42857142857142855,0.0004
839,1.1249600648880005,1.5977224111557007,0.6538461538461539,0.8653846153846154,0.5,0.7142857142857143,0.0004
840,1.018844187259674,1.9801145792007446,0.6538461538461539,0.8653846153846154,0.5,0.5714285714285714,0.0004
841,1.1769782304763794,2.275556802749634,0.6153846153846154,0.8653846153846154,0.5,0.7142857142857143,0.0004
842,1.0475919246673584,2.3079233169555664,0.7115384615384616,0.8653846153846154,0.42857142857142855,0.6428571428571429,0.0004
843,1.0180591940879822,2.3975744247436523,0.7307692307692307,0.8846153846153846,0.35714285714285715,0.6428571428571429,0.0004
844,0.934038907289505,2.017284631729126,0.6153846153846154,0.8846153846153846,0.42857142857142855,0.7857142857142857,0.0004
845,1.1822092533111572,2.0736083984375,0.6730769230769231,0.8269230769230769,0.5714285714285714,0.5714285714285714,0.0004
846,1.1419821977615356,2.2664852142333984,0.6923076923076923,0.8653846153846154,0.5,0.5,0.0004
847,1.018299400806427,2.2516236305236816,0.6923076923076923,0.8269230769230769,0.35714285714285715,0.7142857142857143,0.0004
848,1.1899365186691284,1.806820273399353,0.6538461538461539,0.7884615384615384,0.5714285714285714,0.6428571428571429,0.0004
849,1.114571988582611,1.7873256206512451,0.5961538461538461,0.8846153846153846,0.5714285714285714,0.6428571428571429,0.0004
850,1.1277213096618652,1.9340417385101318,0.5961538461538461,0.8653846153846154,0.5,0.6428571428571429,0.0004
851,1.10297292470932,1.6778197288513184,0.5961538461538461,0.8461538461538461,0.5714285714285714,0.7142857142857143,0.0004
852,1.1305963397026062,1.7038418054580688,0.6538461538461539,0.7884615384615384,0.6428571428571429,0.6428571428571429,0.0004
853,0.9401883482933044,1.624375343322754,0.7115384615384616,0.8653846153846154,0.5714285714285714,0.6428571428571429,0.0004
854,1.214843988418579,1.938883662223816,0.5961538461538461,0.8269230769230769,0.5714285714285714,0.6428571428571429,0.0004
855,1.327126145362854,1.913437843322754,0.6153846153846154,0.7884615384615384,0.6428571428571429,0.6428571428571429,0.0004
856,1.0684815049171448,2.1010899543762207,0.6346153846153846,0.8461538461538461,0.5714285714285714,0.6428571428571429,0.0004
857,1.1136600971221924,1.5989078283309937,0.6538461538461539,0.8461538461538461,0.42857142857142855,0.7857142857142857,0.0004
858,1.1692346334457397,2.251649856567383,0.5576923076923077,0.8269230769230769,0.5714285714285714,0.5714285714285714,0.0004
859,1.030758559703827,1.5175080299377441,0.6346153846153846,0.8846153846153846,0.42857142857142855,0.8571428571428571,0.0004
860,1.0975483357906342,1.907146692276001,0.6346153846153846,0.8461538461538461,0.5,0.5714285714285714,0.0004
861,1.1319319605827332,1.6693814992904663,0.6346153846153846,0.8461538461538461,0.42857142857142855,0.7142857142857143,0.0004
862,1.2014491558074951,1.5636857748031616,0.6730769230769231,0.8461538461538461,0.5714285714285714,0.8571428571428571,0.0004
863,1.0651413202285767,1.959157943725586,0.6923076923076923,0.8653846153846154,0.42857142857142855,0.6428571428571429,0.0004
864,0.9708200097084045,1.7966461181640625,0.7692307692307693,0.8076923076923077,0.42857142857142855,0.7857142857142857,0.0004
865,1.0251100361347198,2.1808271408081055,0.6538461538461539,0.8653846153846154,0.42857142857142855,0.5714285714285714,0.0004
866,0.9378025233745575,1.7132599353790283,0.6153846153846154,0.9615384615384616,0.5714285714285714,0.6428571428571429,0.0004
867,0.9897830188274384,2.477116584777832,0.6538461538461539,0.8461538461538461,0.42857142857142855,0.5714285714285714,0.0004
868,0.9794692397117615,2.266660213470459,0.6730769230769231,0.9038461538461539,0.42857142857142855,0.42857142857142855,0.0004
869,1.073954999446869,2.276665449142456,0.6538461538461539,0.8461538461538461,0.5,0.42857142857142855,0.0004
870,1.1889420747756958,2.0327110290527344,0.6730769230769231,0.8269230769230769,0.35714285714285715,0.42857142857142855,0.0004
871,1.232689082622528,1.731102466583252,0.5961538461538461,0.7884615384615384,0.5,0.5714285714285714,0.0004
872,1.0051122903823853,1.7932443618774414,0.5961538461538461,0.7884615384615384,0.5714285714285714,0.5714285714285714,0.0004
873,0.9854494035243988,2.662459135055542,0.6538461538461539,0.8461538461538461,0.42857142857142855,0.42857142857142855,0.0004
874,1.1272521615028381,2.378577709197998,0.6153846153846154,0.8846153846153846,0.35714285714285715,0.5714285714285714,0.0004
875,0.8632184565067291,2.475438117980957,0.7307692307692307,0.9038461538461539,0.35714285714285715,0.5714285714285714,0.0004
876,1.0618552565574646,2.4064078330993652,0.6346153846153846,0.8269230769230769,0.42857142857142855,0.5,0.0004
877,1.083972454071045,2.170837879180908,0.5961538461538461,0.8653846153846154,0.5,0.6428571428571429,0.0004
878,0.8985754251480103,1.8919532299041748,0.6730769230769231,0.8846153846153846,0.42857142857142855,0.6428571428571429,0.0004
879,1.1182504296302795,1.7084147930145264,0.6730769230769231,0.8461538461538461,0.5714285714285714,0.6428571428571429,0.0004
880,1.0144871771335602,2.570547580718994,0.6346153846153846,0.9038461538461539,0.5,0.6428571428571429,0.0004
881,1.10114187002182,2.410217761993408,0.6538461538461539,0.8846153846153846,0.42857142857142855,0.6428571428571429,0.0004
882,1.0750022530555725,1.627161979675293,0.7115384615384616,0.8461538461538461,0.5,0.7142857142857143,0.0004
883,0.8915625810623169,3.1384549140930176,0.6346153846153846,0.8653846153846154,0.42857142857142855,0.5714285714285714,0.0004
884,1.1570299863815308,1.603065013885498,0.5961538461538461,0.8461538461538461,0.5714285714285714,0.8571428571428571,0.0004
885,1.1516184210777283,2.1964380741119385,0.5769230769230769,0.8076923076923077,0.5714285714285714,0.6428571428571429,0.0004
886,0.9347466230392456,2.2779107093811035,0.7115384615384616,0.8653846153846154,0.5,0.7142857142857143,0.0004
887,1.0629422664642334,2.880880355834961,0.6153846153846154,0.8461538461538461,0.5,0.5,0.0004
888,1.0329650044441223,2.22330379486084,0.6538461538461539,0.8846153846153846,0.5714285714285714,0.6428571428571429,0.0004
889,0.9037359952926636,2.394749402999878,0.75,0.9230769230769231,0.42857142857142855,0.5714285714285714,0.0004
890,1.0871251225471497,2.250495195388794,0.6153846153846154,0.8653846153846154,0.5,0.5,0.0004
891,0.8960101902484894,2.2354941368103027,0.6538461538461539,0.9038461538461539,0.6428571428571429,0.5714285714285714,0.0004
892,1.247143805027008,2.84342622756958,0.6153846153846154,0.7692307692307693,0.5,0.42857142857142855,0.0004
893,1.0643377304077148,2.6799874305725098,0.6346153846153846,0.8653846153846154,0.42857142857142855,0.6428571428571429,0.0004
894,1.0286878943443298,2.4798583984375,0.7115384615384616,0.8653846153846154,0.5714285714285714,0.35714285714285715,0.0004
895,1.273080050945282,2.5489273071289062,0.5384615384615384,0.8076923076923077,0.5,0.6428571428571429,0.0004
896,1.0269862413406372,2.3355369567871094,0.6730769230769231,0.8846153846153846,0.42857142857142855,0.5714285714285714,0.0004
897,1.0905056595802307,2.279839038848877,0.6346153846153846,0.8653846153846154,0.6428571428571429,0.6428571428571429,0.0004
898,1.0372782945632935,1.5315699577331543,0.6153846153846154,0.8461538461538461,0.35714285714285715,0.7857142857142857,0.0004
899,1.093399167060852,2.280320405960083,0.7115384615384616,0.8653846153846154,0.5,0.5714285714285714,0.0004
900,1.0722509622573853,2.4459500312805176,0.7115384615384616,0.8653846153846154,0.42857142857142855,0.5714285714285714,0.0004
901,0.9751303791999817,1.6162817478179932,0.6923076923076923,0.8653846153846154,0.5714285714285714,0.7142857142857143,0.0004
902,0.907773494720459,1.6058270931243896,0.6923076923076923,0.8653846153846154,0.35714285714285715,0.8571428571428571,0.0004
903,0.9855040311813354,1.7951931953430176,0.6923076923076923,0.8461538461538461,0.5,0.7142857142857143,0.0004
904,1.0650200247764587,2.367574691772461,0.5961538461538461,0.8461538461538461,0.5,0.7142857142857143,0.0004
905,0.8803243339061737,1.981935739517212,0.7115384615384616,0.8846153846153846,0.42857142857142855,0.7857142857142857,0.0004
906,1.0616205930709839,1.874518871307373,0.6923076923076923,0.8461538461538461,0.42857142857142855,0.8571428571428571,0.0004
907,1.2105746269226074,1.6350791454315186,0.6153846153846154,0.8461538461538461,0.5,0.8571428571428571,0.0004
908,1.042189598083496,3.012568473815918,0.6346153846153846,0.8653846153846154,0.5,0.35714285714285715,0.0004
909,1.1324244141578674,1.6049268245697021,0.5961538461538461,0.8461538461538461,0.5,0.8571428571428571,0.0004
910,0.8018878400325775,2.374887466430664,0.7307692307692307,0.9230769230769231,0.5,0.6428571428571429,0.0004
911,1.1579505801200867,2.3090226650238037,0.5769230769230769,0.8846153846153846,0.5,0.7857142857142857,0.0004
912,1.0396730303764343,2.7465739250183105,0.6730769230769231,0.8653846153846154,0.42857142857142855,0.5714285714285714,0.0004
913,0.9640910625457764,2.4038195610046387,0.7307692307692307,0.8076923076923077,0.5,0.5714285714285714,0.0004
914,0.8397961258888245,2.6116762161254883,0.6346153846153846,0.9423076923076923,0.42857142857142855,0.5714285714285714,0.0004
915,1.1004762649536133,2.812377452850342,0.6346153846153846,0.9230769230769231,0.42857142857142855,0.42857142857142855,0.0004
916,1.1046581268310547,2.135084390640259,0.75,0.8846153846153846,0.5714285714285714,0.5714285714285714,0.0004
917,1.233396828174591,2.5741019248962402,0.6538461538461539,0.8846153846153846,0.42857142857142855,0.42857142857142855,0.0004
918,0.8910343647003174,1.9122591018676758,0.6730769230769231,0.9038461538461539,0.5,0.6428571428571429,0.0004
919,1.08230859041214,3.2156500816345215,0.6538461538461539,0.8653846153846154,0.35714285714285715,0.42857142857142855,0.0004
920,0.9337768852710724,2.26407527923584,0.7307692307692307,0.9423076923076923,0.5714285714285714,0.5714285714285714,0.0004
921,1.0324207544326782,2.943504571914673,0.6923076923076923,0.8461538461538461,0.42857142857142855,0.5,0.0004
922,0.8066076338291168,2.582632541656494,0.7115384615384616,0.9423076923076923,0.42857142857142855,0.5,0.0004
923,0.9809138178825378,1.583183765411377,0.6538461538461539,0.8461538461538461,0.5714285714285714,0.7142857142857143,0.0004
924,1.3280757665634155,2.42278790473938,0.5769230769230769,0.8076923076923077,0.42857142857142855,0.5,0.0004
925,1.1157053112983704,2.098952531814575,0.6730769230769231,0.8653846153846154,0.5,0.5714285714285714,0.0004
926,1.0632325410842896,1.0806288719177246,0.6538461538461539,0.8653846153846154,0.6428571428571429,0.7142857142857143,0.0004
927,1.1977151036262512,1.9251641035079956,0.6538461538461539,0.8461538461538461,0.5,0.7142857142857143,0.0004
928,1.0590153336524963,2.466465950012207,0.6923076923076923,0.9038461538461539,0.42857142857142855,0.42857142857142855,0.0004
929,0.8804068267345428,2.373410701751709,0.6538461538461539,0.9423076923076923,0.42857142857142855,0.5714285714285714,0.0004
930,0.9123935401439667,2.203505754470825,0.6346153846153846,0.9230769230769231,0.5714285714285714,0.5714285714285714,0.0004
931,0.7604306042194366,1.988761067390442,0.8076923076923077,0.9038461538461539,0.5,0.6428571428571429,0.0004
932,1.1309866309165955,1.8166635036468506,0.6923076923076923,0.8269230769230769,0.5714285714285714,0.6428571428571429,0.0004
933,1.2320456504821777,2.6106343269348145,0.6538461538461539,0.8076923076923077,0.35714285714285715,0.6428571428571429,0.0004
934,1.2448278665542603,1.54132080078125,0.6730769230769231,0.8846153846153846,0.42857142857142855,0.6428571428571429,0.0004
935,1.0600495636463165,2.307650566101074,0.6538461538461539,0.8653846153846154,0.42857142857142855,0.6428571428571429,0.0004
936,1.3182148933410645,2.324483871459961,0.5961538461538461,0.8846153846153846,0.42857142857142855,0.5714285714285714,0.0004
937,1.1363046169281006,2.2686638832092285,0.5961538461538461,0.8653846153846154,0.5,0.5714285714285714,0.0004
938,0.9787736535072327,1.9981663227081299,0.7307692307692307,0.8653846153846154,0.42857142857142855,0.6428571428571429,0.0004
939,0.9899330139160156,1.742197871208191,0.6538461538461539,0.8846153846153846,0.5,0.5,0.0004
940,1.1506901979446411,1.6034729480743408,0.6538461538461539,0.8653846153846154,0.6428571428571429,0.6428571428571429,0.0004
941,1.0054861903190613,1.7626051902770996,0.6730769230769231,0.8653846153846154,0.5,0.5,0.0004
942,1.1285374760627747,2.004899740219116,0.6153846153846154,0.8846153846153846,0.6428571428571429,0.5,0.0004
943,1.1338780522346497,2.084665298461914,0.6538461538461539,0.8653846153846154,0.42857142857142855,0.5714285714285714,0.0004
944,0.9365517199039459,1.7967636585235596,0.6923076923076923,0.9230769230769231,0.2857142857142857,0.7142857142857143,0.0004
945,1.2114617824554443,2.3739397525787354,0.7115384615384616,0.8076923076923077,0.42857142857142855,0.5,0.0004
946,1.3108641505241394,2.471559762954712,0.5769230769230769,0.8076923076923077,0.5,0.5714285714285714,0.0004
947,0.9956701993942261,2.1939280033111572,0.6346153846153846,0.8461538461538461,0.5,0.6428571428571429,0.0004
948,1.0363233983516693,2.2081515789031982,0.7115384615384616,0.8653846153846154,0.5,0.5,0.0004
949,0.8097037374973297,2.1561577320098877,0.7307692307692307,0.9423076923076923,0.5714285714285714,0.7142857142857143,0.0004
950,1.0770975649356842,2.1607983112335205,0.6538461538461539,0.8461538461538461,0.5714285714285714,0.7142857142857143,0.0004
951,0.8009147942066193,2.6817150115966797,0.6923076923076923,0.9423076923076923,0.42857142857142855,0.5714285714285714,0.0004
952,0.8156339824199677,1.5217183828353882,0.6730769230769231,0.9230769230769231,0.5,0.7857142857142857,0.0004
953,1.004383534193039,2.2118735313415527,0.75,0.8461538461538461,0.5714285714285714,0.5714285714285714,0.0004
954,1.210211992263794,2.127150058746338,0.6538461538461539,0.8269230769230769,0.5,0.6428571428571429,0.0004
955,0.892171174287796,2.4387054443359375,0.6730769230769231,0.9038461538461539,0.42857142857142855,0.5714285714285714,0.0004
956,1.0547454357147217,2.894217014312744,0.6153846153846154,0.8846153846153846,0.5714285714285714,0.42857142857142855,0.0004
957,0.909191220998764,2.7125141620635986,0.7307692307692307,0.8653846153846154,0.42857142857142855,0.5,0.0004
958,1.1704476475715637,2.002375602722168,0.5769230769230769,0.8653846153846154,0.5,0.6428571428571429,0.0004
959,0.9398337006568909,2.2797698974609375,0.6923076923076923,0.8846153846153846,0.6428571428571429,0.5,0.0004
960,1.0651910305023193,2.599696159362793,0.6923076923076923,0.8653846153846154,0.35714285714285715,0.5,0.0004
961,0.8659690022468567,2.3485159873962402,0.75,0.8846153846153846,0.5714285714285714,0.5714285714285714,0.0004
962,0.8616240620613098,2.3369803428649902,0.75,0.9423076923076923,0.5,0.5714285714285714,0.0004
963,0.7567558586597443,2.4511752128601074,0.75,0.9230769230769231,0.2857142857142857,0.42857142857142855,0.0004
964,1.030499517917633,2.7578234672546387,0.6346153846153846,0.8653846153846154,0.5,0.5,0.0004
965,0.8148426413536072,1.8193541765213013,0.8269230769230769,0.9038461538461539,0.42857142857142855,0.7857142857142857,0.0004
966,0.9914819002151489,2.0256597995758057,0.6923076923076923,0.8846153846153846,0.6428571428571429,0.5714285714285714,0.0004
967,0.9560413658618927,2.121168851852417,0.75,0.8846153846153846,0.42857142857142855,0.5714285714285714,0.0004
968,1.02022385597229,2.498776912689209,0.6730769230769231,0.8846153846153846,0.5,0.5714285714285714,0.0004
969,1.1681127548217773,2.6432785987854004,0.6730769230769231,0.8461538461538461,0.35714285714285715,0.5714285714285714,0.0004
970,0.9707895517349243,2.1061954498291016,0.75,0.8461538461538461,0.5,0.42857142857142855,0.0004
971,0.894312709569931,1.9429512023925781,0.7884615384615384,0.8653846153846154,0.5714285714285714,0.7142857142857143,0.0004
972,1.0254026651382446,1.7166328430175781,0.6730769230769231,0.8461538461538461,0.5714285714285714,0.7142857142857143,0.0004
973,0.9318605363368988,1.592738151550293,0.6346153846153846,0.9038461538461539,0.42857142857142855,0.7142857142857143,0.0004
974,1.2746880054473877,2.016075611114502,0.6538461538461539,0.8461538461538461,0.35714285714285715,0.7142857142857143,0.0004
975,1.1086307764053345,1.9262207746505737,0.6153846153846154,0.8653846153846154,0.5714285714285714,0.5714285714285714,0.0004
976,1.2904866337776184,2.075321674346924,0.6153846153846154,0.8076923076923077,0.35714285714285715,0.6428571428571429,0.0004
977,0.8823674619197845,1.7810404300689697,0.6730769230769231,0.8846153846153846,0.5714285714285714,0.7142857142857143,0.0004
978,1.0345695912837982,2.111715078353882,0.7307692307692307,0.8846153846153846,0.5,0.5714285714285714,0.0004
979,0.8943876922130585,1.8715388774871826,0.75,0.8653846153846154,0.5,0.7857142857142857,0.0004
980,0.9928711652755737,2.0264413356781006,0.7115384615384616,0.8269230769230769,0.5,0.6428571428571429,0.0004
981,0.9242264628410339,1.760007619857788,0.7115384615384616,0.8846153846153846,0.5714285714285714,0.6428571428571429,0.0004
982,1.2455938458442688,1.528240442276001,0.6153846153846154,0.8076923076923077,0.5714285714285714,0.8571428571428571,0.0004
983,0.9200489223003387,2.848182201385498,0.6538461538461539,0.9230769230769231,0.42857142857142855,0.35714285714285715,0.0004
984,1.20725417137146,2.0038230419158936,0.6730769230769231,0.8653846153846154,0.5714285714285714,0.5,0.0004
985,0.9032163321971893,1.5012880563735962,0.7692307692307693,0.9230769230769231,0.42857142857142855,0.7142857142857143,0.0004
986,0.9154287576675415,1.7252624034881592,0.7307692307692307,0.8653846153846154,0.5,0.7857142857142857,0.0004
987,1.1195392608642578,1.812406301498413,0.6730769230769231,0.8269230769230769,0.5,0.5714285714285714,0.0004
988,1.1419576406478882,1.8167469501495361,0.5,0.8269230769230769,0.42857142857142855,0.7857142857142857,0.0004
989,1.0930578112602234,1.8733093738555908,0.6730769230769231,0.8269230769230769,0.5714285714285714,0.5,0.0004
990,0.9783107936382294,2.3106019496917725,0.6346153846153846,0.8076923076923077,0.5,0.5,0.0004
991,1.0085306763648987,2.3466415405273438,0.6346153846153846,0.8846153846153846,0.5,0.5,0.0004
992,1.0363743305206299,2.9081106185913086,0.6346153846153846,0.8461538461538461,0.2857142857142857,0.42857142857142855,0.0004
993,1.0989176034927368,2.014700412750244,0.6923076923076923,0.8076923076923077,0.5714285714285714,0.5714285714285714,0.0004
994,1.0964335203170776,2.022994041442871,0.6153846153846154,0.8461538461538461,0.5,0.5,0.0004
995,0.738451212644577,2.216850757598877,0.7692307692307693,0.9615384615384616,0.5714285714285714,0.5714285714285714,0.0004
996,1.108028918504715,2.4524831771850586,0.5961538461538461,0.8653846153846154,0.42857142857142855,0.5714285714285714,0.0004
997,1.041519671678543,1.878706693649292,0.7307692307692307,0.8461538461538461,0.42857142857142855,0.7857142857142857,0.0004
998,1.1178094148635864,2.186476230621338,0.5961538461538461,0.8653846153846154,0.5714285714285714,0.5714285714285714,0.0004
999,1.0572027564048767,2.3345255851745605,0.6153846153846154,0.7884615384615384,0.42857142857142855,0.5,0.0004
1000,1.1199754476547241,2.1469788551330566,0.6346153846153846,0.9038461538461539,0.5,0.5,0.0004
