epoch,train_loss,val_loss,train_acc_action,train_acc_status,val_acc_action,val_acc_status,learning_rate
1,1.7618734240531921,1.6331429481506348,0.4230769230769231,0.6538461538461539,0.21428571428571427,0.8571428571428571,0.0004
2,1.5893686413764954,1.4940402507781982,0.40384615384615385,0.8269230769230769,0.42857142857142855,0.8571428571428571,0.004995066821070679
3,1.5763707160949707,1.644895315170288,0.34615384615384615,0.8269230769230769,0.21428571428571427,0.8571428571428571,0.004980286753286195
4,1.5930281281471252,1.5571482181549072,0.36538461538461536,0.8269230769230769,0.21428571428571427,0.8571428571428571,0.004955718126821722
5,1.572285532951355,1.4810848236083984,0.28846153846153844,0.8269230769230769,0.42857142857142855,0.8571428571428571,0.004921457902821578
6,1.599512755870819,1.5166380405426025,0.3269230769230769,0.8269230769230769,0.2857142857142857,0.8571428571428571,0.0048776412907378846
7,1.5405563116073608,1.5793375968933105,0.4807692307692308,0.8269230769230769,0.21428571428571427,0.8571428571428571,0.004824441214720628
8,1.5183966755867004,1.523459792137146,0.38461538461538464,0.8269230769230769,0.35714285714285715,0.8571428571428571,0.004762067631165049
9,1.5177664756774902,1.4258995056152344,0.46153846153846156,0.8269230769230769,0.42857142857142855,0.8571428571428571,0.0046907667001096585
10,1.5815200805664062,1.5298997163772583,0.38461538461538464,0.8269230769230769,0.5,0.8571428571428571,0.004610819813755038
11,1.576498568058014,1.6341021060943604,0.3076923076923077,0.8269230769230769,0.5,0.8571428571428571,0.0045225424859373685
12,1.5688853859901428,1.8827686309814453,0.3269230769230769,0.8269230769230769,0.21428571428571427,0.8571428571428571,0.004426283106939473
13,1.7337926626205444,1.759998083114624,0.34615384615384615,0.8269230769230769,0.21428571428571427,0.8571428571428571,0.004322421568553529
14,1.580546498298645,1.6164504289627075,0.38461538461538464,0.8269230769230769,0.14285714285714285,0.8571428571428571,0.004211367764821722
15,1.5796061158180237,1.4675424098968506,0.40384615384615385,0.8269230769230769,0.35714285714285715,0.8571428571428571,0.004093559974371724
16,1.5173596739768982,1.5052103996276855,0.36538461538461536,0.8269230769230769,0.42857142857142855,0.8571428571428571,0.003969463130731183
17,1.551141381263733,1.5407297611236572,0.38461538461538464,0.8269230769230769,0.5,0.8571428571428571,0.0038395669874474914
18,1.5302338600158691,1.4896992444992065,0.38461538461538464,0.8269230769230769,0.5714285714285714,0.8571428571428571,0.0037043841852542883
19,1.5585753917694092,1.5646287202835083,0.40384615384615385,0.8269230769230769,0.42857142857142855,0.8571428571428571,0.003564448228912682
20,1.491808533668518,1.5645370483398438,0.38461538461538464,0.8269230769230769,0.2857142857142857,0.8571428571428571,0.0034203113817116953
21,1.566782832145691,1.5528810024261475,0.36538461538461536,0.8269230769230769,0.21428571428571427,0.8571428571428571,0.0032725424859373687
22,1.5455530285835266,1.569725513458252,0.36538461538461536,0.8269230769230769,0.21428571428571427,0.8571428571428571,0.0031217247179121366
23,1.5756650567054749,1.5870298147201538,0.36538461538461536,0.8269230769230769,0.21428571428571427,0.8571428571428571,0.002968453286464312
24,1.4871309399604797,1.5476243495941162,0.36538461538461536,0.8269230769230769,0.21428571428571427,0.8571428571428571,0.002813333083910761
25,1.5343828797340393,1.5699238777160645,0.36538461538461536,0.8269230769230769,0.21428571428571427,0.8571428571428571,0.0026569762988232835
26,1.4638359546661377,1.6604725122451782,0.38461538461538464,0.8269230769230769,0.07142857142857142,0.8571428571428571,0.0025
27,1.4930076599121094,1.4752304553985596,0.4230769230769231,0.8269230769230769,0.35714285714285715,0.8571428571428571,0.0023430237011767166
28,1.5321986675262451,1.5418672561645508,0.4423076923076923,0.8269230769230769,0.14285714285714285,0.8571428571428571,0.0021866669160892395
29,1.5124514698982239,1.51246976852417,0.38461538461538464,0.8269230769230769,0.2857142857142857,0.8571428571428571,0.0020315467135356884
30,1.5056145787239075,1.5192718505859375,0.4423076923076923,0.8269230769230769,0.5,0.8571428571428571,0.0018782752820878628
31,1.5003578662872314,1.363711953163147,0.46153846153846156,0.8269230769230769,0.5714285714285714,0.8571428571428571,0.0017274575140626323
32,1.4921851754188538,1.4650812149047852,0.5,0.8269230769230769,0.5714285714285714,0.8571428571428571,0.0015796886182883059
33,1.3876371383666992,1.5485512018203735,0.5192307692307693,0.8269230769230769,0.5,0.8571428571428571,0.0014355517710873183
34,1.4569395780563354,1.4881093502044678,0.4230769230769231,0.8269230769230769,0.5,0.8571428571428571,0.0012956158147457114
35,1.4238197803497314,1.429423213005066,0.4230769230769231,0.8269230769230769,0.42857142857142855,0.8571428571428571,0.0011604330125525079
36,1.4807859063148499,1.3780075311660767,0.46153846153846156,0.8269230769230769,0.42857142857142855,0.8571428571428571,0.0010305368692688174
37,1.4345054030418396,1.3809669017791748,0.4423076923076923,0.8269230769230769,0.5,0.8571428571428571,0.0009064400256282757
38,1.368850290775299,1.5107680559158325,0.46153846153846156,0.8269230769230769,0.35714285714285715,0.8571428571428571,0.0007886322351782782
39,1.4387597441673279,1.6765090227127075,0.5,0.8269230769230769,0.14285714285714285,0.8571428571428571,0.0006775784314464717
40,1.3819117546081543,1.4850358963012695,0.4807692307692308,0.8269230769230769,0.35714285714285715,0.8571428571428571,0.0005737168930605272
41,1.3285037279129028,1.3603808879852295,0.5192307692307693,0.8269230769230769,0.5,0.8571428571428571,0.00047745751406263163
42,1.3446024656295776,1.428920865058899,0.5384615384615384,0.8269230769230769,0.5,0.8571428571428571,0.00038918018624496285
43,1.355471134185791,1.48063063621521,0.5576923076923077,0.8269230769230769,0.42857142857142855,0.8571428571428571,0.00030923329989034103
44,1.4535986185073853,1.6016292572021484,0.38461538461538464,0.8269230769230769,0.42857142857142855,0.8571428571428571,0.00023793236883495162
45,1.4082592725753784,1.3897439241409302,0.5,0.8269230769230769,0.5714285714285714,0.8571428571428571,0.00017555878527937164
46,1.344751238822937,1.3793375492095947,0.4423076923076923,0.8269230769230769,0.6428571428571429,0.8571428571428571,0.00012235870926211617
47,1.4599820971488953,1.5190504789352417,0.4423076923076923,0.8269230769230769,0.42857142857142855,0.8571428571428571,7.854209717842258e-05
48,1.3723915219306946,1.3862905502319336,0.5,0.8269230769230769,0.5714285714285714,0.8571428571428571,4.4281873178278196e-05
49,1.2705614566802979,1.4788784980773926,0.5769230769230769,0.8269230769230769,0.35714285714285715,0.8571428571428571,1.9713246713805587e-05
50,1.394484519958496,1.654601812362671,0.5192307692307693,0.8269230769230769,0.42857142857142855,0.8571428571428571,4.933178929321102e-06
51,1.3248859643936157,1.4641492366790771,0.5192307692307693,0.8269230769230769,0.42857142857142855,0.8571428571428571,0.005
52,1.3018698692321777,1.7085504531860352,0.5,0.8269230769230769,0.35714285714285715,0.8571428571428571,0.0049987664009143295
53,1.2713291645050049,1.844181776046753,0.5,0.8269230769230769,0.35714285714285715,0.8571428571428571,0.004995066821070679
54,1.457493245601654,1.5753207206726074,0.4423076923076923,0.8269230769230769,0.2857142857142857,0.8571428571428571,0.0049889049115077
55,1.154702365398407,1.6378581523895264,0.5961538461538461,0.8269230769230769,0.21428571428571427,0.7142857142857143,0.004980286753286195
56,1.2875834107398987,1.736471176147461,0.5384615384615384,0.8653846153846154,0.21428571428571427,0.8571428571428571,0.0049692208514878445
57,1.405624508857727,1.6598739624023438,0.46153846153846156,0.8461538461538461,0.35714285714285715,0.8571428571428571,0.004955718126821722
58,1.338442623615265,1.47357976436615,0.5,0.8846153846153846,0.5,0.9285714285714286,0.004939791904846869
59,1.3383060693740845,2.139228343963623,0.4807692307692308,0.8846153846153846,0.2857142857142857,0.7142857142857143,0.004921457902821578
60,1.170912265777588,1.4072283506393433,0.4807692307692308,0.9615384615384616,0.5714285714285714,0.9285714285714286,0.004900734214192358
61,1.3558976650238037,2.1855366230010986,0.5576923076923077,0.9230769230769231,0.21428571428571427,0.7142857142857143,0.0048776412907378846
62,1.6586762070655823,1.933794617652893,0.40384615384615385,0.8653846153846154,0.21428571428571427,0.7857142857142857,0.004852201922385564
63,1.6521196365356445,1.8503021001815796,0.46153846153846156,0.8461538461538461,0.35714285714285715,0.7857142857142857,0.004824441214720628
64,1.5999893546104431,1.5284686088562012,0.3269230769230769,0.8269230769230769,0.35714285714285715,0.8571428571428571,0.0047943865642099525
65,1.5579274892807007,1.5576761960983276,0.4423076923076923,0.8461538461538461,0.42857142857142855,0.8571428571428571,0.004762067631165049
66,1.6222837567329407,1.5843385457992554,0.3269230769230769,0.8461538461538461,0.35714285714285715,0.8571428571428571,0.00472751631047092
67,1.6249748468399048,1.6595011949539185,0.40384615384615385,0.8269230769230769,0.21428571428571427,0.8571428571428571,0.0046907667001096585
68,1.5272979736328125,1.6877648830413818,0.40384615384615385,0.8461538461538461,0.21428571428571427,0.8571428571428571,0.0046518550675098596
69,1.5780015587806702,1.7632659673690796,0.36538461538461536,0.8269230769230769,0.2857142857142857,0.7857142857142857,0.004610819813755038
70,1.807803750038147,1.6263043880462646,0.38461538461538464,0.75,0.21428571428571427,0.8571428571428571,0.004567701435686404
71,1.759141445159912,1.499880313873291,0.34615384615384615,0.7884615384615384,0.21428571428571427,0.8571428571428571,0.0045225424859373685
72,1.6130532622337341,1.4840354919433594,0.34615384615384615,0.8076923076923077,0.42857142857142855,0.8571428571428571,0.0044753875309392266
73,1.5527493357658386,1.4586219787597656,0.36538461538461536,0.8269230769230769,0.5,0.8571428571428571,0.004426283106939473
74,1.6070725917816162,1.4847394227981567,0.34615384615384615,0.8269230769230769,0.35714285714285715,0.8571428571428571,0.004375277674076149
75,1.6396002769470215,1.491110920906067,0.3269230769230769,0.8269230769230769,0.35714285714285715,0.8571428571428571,0.004322421568553529
76,1.5648306012153625,1.4933900833129883,0.38461538461538464,0.8269230769230769,0.42857142857142855,0.8571428571428571,0.004267766952966369
77,1.620104968547821,1.521546483039856,0.3076923076923077,0.8076923076923077,0.35714285714285715,0.8571428571428571,0.004211367764821722
78,1.5585987567901611,1.5151734352111816,0.34615384615384615,0.8269230769230769,0.2857142857142857,0.8571428571428571,0.00415327966330913
79,1.5309531092643738,1.458356499671936,0.4423076923076923,0.8269230769230769,0.5,0.8571428571428571,0.004093559974371724
80,1.5146061182022095,1.5304312705993652,0.38461538461538464,0.8269230769230769,0.2857142857142857,0.8571428571428571,0.004032267634132442
81,1.5741077065467834,1.4786185026168823,0.36538461538461536,0.8269230769230769,0.42857142857142855,0.8571428571428571,0.003969463130731183
82,1.5355949401855469,1.5443933010101318,0.34615384615384615,0.8269230769230769,0.21428571428571427,0.8571428571428571,0.003905208444630327
83,1.601454257965088,1.5390853881835938,0.34615384615384615,0.8076923076923077,0.2857142857142857,0.8571428571428571,0.0038395669874474914
84,1.563438892364502,1.5394922494888306,0.36538461538461536,0.8269230769230769,0.21428571428571427,0.8571428571428571,0.0037726035393759283
85,1.572559654712677,1.5410007238388062,0.36538461538461536,0.8269230769230769,0.21428571428571427,0.8571428571428571,0.0037043841852542883
86,1.5773743987083435,1.5696327686309814,0.34615384615384615,0.8076923076923077,0.21428571428571427,0.7857142857142857,0.003634976249348867
87,1.5801627039909363,1.5895678997039795,0.38461538461538464,0.8269230769230769,0.2857142857142857,0.6428571428571429,0.003564448228912682
88,1.5789541006088257,1.527638554573059,0.36538461538461536,0.8076923076923077,0.21428571428571427,0.8571428571428571,0.003492869726586951
89,1.5694665312767029,1.523797631263733,0.2692307692307692,0.8269230769230769,0.14285714285714285,0.8571428571428571,0.0034203113817116953
90,1.5742016434669495,1.5043244361877441,0.3269230769230769,0.8269230769230769,0.35714285714285715,0.8571428571428571,0.0033468448006132292
91,1.6110950708389282,1.5058468580245972,0.25,0.8269230769230769,0.5714285714285714,0.8571428571428571,0.0032725424859373687
92,1.5724222660064697,1.5082063674926758,0.36538461538461536,0.8269230769230769,0.21428571428571427,0.8571428571428571,0.0031974777650980737
93,1.5424317121505737,1.5091438293457031,0.28846153846153844,0.8269230769230769,0.21428571428571427,0.8571428571428571,0.0031217247179121366
94,1.6479875445365906,1.5195410251617432,0.3076923076923077,0.8269230769230769,0.21428571428571427,0.8571428571428571,0.0030453581034913567
95,1.5841028690338135,1.5109128952026367,0.4423076923076923,0.8269230769230769,0.21428571428571427,0.8571428571428571,0.002968453286464312
96,1.5845061540603638,1.5336575508117676,0.34615384615384615,0.8269230769230769,0.35714285714285715,0.8571428571428571,0.0028910861626005773
97,1.5678990483283997,1.5399060249328613,0.40384615384615385,0.8269230769230769,0.35714285714285715,0.8571428571428571,0.002813333083910761
98,1.5234689712524414,1.549154281616211,0.34615384615384615,0.8269230769230769,0.21428571428571427,0.8571428571428571,0.002735270783296286
99,1.5704477429389954,1.5535051822662354,0.40384615384615385,0.8269230769230769,0.21428571428571427,0.8571428571428571,0.0026569762988232835
100,1.55153489112854,1.5644100904464722,0.4230769230769231,0.8269230769230769,0.21428571428571427,0.8571428571428571,0.0025785268976953207
101,1.5968517065048218,1.5539803504943848,0.3269230769230769,0.8269230769230769,0.21428571428571427,0.8571428571428571,0.0025
102,1.5590024590492249,1.5569312572479248,0.38461538461538464,0.8269230769230769,0.21428571428571427,0.8571428571428571,0.0024214731023046794
103,1.5813608169555664,1.546919822692871,0.36538461538461536,0.8269230769230769,0.21428571428571427,0.8571428571428571,0.0023430237011767166
104,1.6082189083099365,1.5523512363433838,0.34615384615384615,0.8269230769230769,0.21428571428571427,0.8571428571428571,0.002264729216703714
105,1.5583528876304626,1.5446298122406006,0.36538461538461536,0.8269230769230769,0.21428571428571427,0.8571428571428571,0.0021866669160892395
106,1.575777530670166,1.5436960458755493,0.3269230769230769,0.8269230769230769,0.21428571428571427,0.8571428571428571,0.002108913837399423
107,1.5592052340507507,1.5445358753204346,0.40384615384615385,0.8269230769230769,0.21428571428571427,0.8571428571428571,0.0020315467135356884
108,1.5485783815383911,1.5418317317962646,0.36538461538461536,0.8269230769230769,0.21428571428571427,0.8571428571428571,0.0019546418965086442
109,1.5499414801597595,1.5302292108535767,0.36538461538461536,0.8269230769230769,0.21428571428571427,0.8571428571428571,0.0018782752820878628
110,1.6042997241020203,1.5435937643051147,0.3269230769230769,0.8269230769230769,0.21428571428571427,0.8571428571428571,0.001802522234901927
111,1.5687472820281982,1.530473232269287,0.28846153846153844,0.8269230769230769,0.21428571428571427,0.8571428571428571,0.0017274575140626323
112,1.5525594353675842,1.5445442199707031,0.36538461538461536,0.8269230769230769,0.2857142857142857,0.8571428571428571,0.0016531551993867715
113,1.5331089496612549,1.5886855125427246,0.4230769230769231,0.8269230769230769,0.21428571428571427,0.8571428571428571,0.0015796886182883059
114,1.572090744972229,1.553441047668457,0.34615384615384615,0.8269230769230769,0.21428571428571427,0.8571428571428571,0.0015071302734130482
115,1.5742946863174438,1.5580558776855469,0.40384615384615385,0.8269230769230769,0.21428571428571427,0.8571428571428571,0.0014355517710873183
116,1.5292550325393677,1.525217056274414,0.28846153846153844,0.8269230769230769,0.21428571428571427,0.8571428571428571,0.0013650237506511332
117,1.5613831877708435,1.5232512950897217,0.34615384615384615,0.8269230769230769,0.21428571428571427,0.8571428571428571,0.0012956158147457114
118,1.5589529871940613,1.527532696723938,0.3076923076923077,0.8269230769230769,0.14285714285714285,0.8571428571428571,0.0012273964606240718
119,1.5809571743011475,1.5248228311538696,0.36538461538461536,0.8269230769230769,0.35714285714285715,0.8571428571428571,0.0011604330125525079
120,1.6052476167678833,1.5251716375350952,0.28846153846153844,0.8269230769230769,0.2857142857142857,0.8571428571428571,0.0010947915553696733
121,1.5768907070159912,1.5195591449737549,0.40384615384615385,0.8269230769230769,0.35714285714285715,0.8571428571428571,0.0010305368692688174
122,1.5709415674209595,1.521511435508728,0.4230769230769231,0.8269230769230769,0.35714285714285715,0.8571428571428571,0.0009677323658675585
123,1.5308892726898193,1.5306401252746582,0.36538461538461536,0.8269230769230769,0.2857142857142857,0.8571428571428571,0.0009064400256282757
124,1.5608601570129395,1.5204999446868896,0.34615384615384615,0.8269230769230769,0.2857142857142857,0.8571428571428571,0.0008467203366908707
125,1.5680544972419739,1.537144660949707,0.3269230769230769,0.8269230769230769,0.35714285714285715,0.8571428571428571,0.0007886322351782782
126,1.5248961448669434,1.5151951313018799,0.40384615384615385,0.8269230769230769,0.2857142857142857,0.8571428571428571,0.0007322330470336313
127,1.5713316202163696,1.4793431758880615,0.38461538461538464,0.8269230769230769,0.42857142857142855,0.8571428571428571,0.0006775784314464717
128,1.5725148916244507,1.5081321001052856,0.36538461538461536,0.8269230769230769,0.42857142857142855,0.8571428571428571,0.0006247223259238514
129,1.5243513584136963,1.588594675064087,0.4423076923076923,0.8269230769230769,0.14285714285714285,0.8571428571428571,0.0005737168930605272
130,1.5318813920021057,1.5063530206680298,0.28846153846153844,0.8269230769230769,0.35714285714285715,0.8571428571428571,0.000524612469060774
131,1.5536375641822815,1.5345458984375,0.38461538461538464,0.8269230769230769,0.21428571428571427,0.8571428571428571,0.00047745751406263163
132,1.5530681610107422,1.5211806297302246,0.36538461538461536,0.8269230769230769,0.42857142857142855,0.8571428571428571,0.000432298564313596
133,1.5029237270355225,1.4919030666351318,0.34615384615384615,0.8269230769230769,0.5,0.8571428571428571,0.00038918018624496285
134,1.5414165258407593,1.534428596496582,0.38461538461538464,0.8269230769230769,0.2857142857142857,0.8571428571428571,0.0003481449324901406
135,1.5303910374641418,1.4749956130981445,0.4230769230769231,0.8269230769230769,0.42857142857142855,0.8571428571428571,0.00030923329989034103
136,1.549828588962555,1.4604988098144531,0.3076923076923077,0.8269230769230769,0.5714285714285714,0.8571428571428571,0.00027248368952908055
137,1.5727904438972473,1.514715313911438,0.34615384615384615,0.8269230769230769,0.35714285714285715,0.8571428571428571,0.00023793236883495162
138,1.5194121599197388,1.5431039333343506,0.38461538461538464,0.8269230769230769,0.21428571428571427,0.8571428571428571,0.0002056134357900477
139,1.5042869448661804,1.521909236907959,0.34615384615384615,0.8269230769230769,0.35714285714285715,0.8571428571428571,0.00017555878527937164
140,1.5257856249809265,1.5913910865783691,0.4423076923076923,0.8269230769230769,0.14285714285714285,0.8571428571428571,0.00014779807761443637
141,1.606626272201538,1.4645276069641113,0.2692307692307692,0.8269230769230769,0.5,0.8571428571428571,0.00012235870926211617
142,1.5154210925102234,1.4948160648345947,0.46153846153846156,0.8269230769230769,0.42857142857142855,0.8571428571428571,9.926578580764262e-05
143,1.5192819833755493,1.5523569583892822,0.36538461538461536,0.8269230769230769,0.2857142857142857,0.8571428571428571,7.854209717842258e-05
144,1.5358482599258423,1.5960010290145874,0.34615384615384615,0.8269230769230769,0.2857142857142857,0.8571428571428571,6.0208095153131695e-05
145,1.5430662035942078,1.6025683879852295,0.4423076923076923,0.8269230769230769,0.21428571428571427,0.8571428571428571,4.4281873178278196e-05
146,1.5669732093811035,1.557208776473999,0.3076923076923077,0.8269230769230769,0.21428571428571427,0.8571428571428571,3.077914851215585e-05
147,1.5265801548957825,1.5694596767425537,0.4230769230769231,0.8269230769230769,0.2857142857142857,0.8571428571428571,1.9713246713805587e-05
148,1.5933637619018555,1.5871158838272095,0.38461538461538464,0.8269230769230769,0.35714285714285715,0.8571428571428571,1.109508849230001e-05
149,1.5584136247634888,1.5473260879516602,0.3269230769230769,0.8269230769230769,0.2857142857142857,0.8571428571428571,4.933178929321102e-06
150,1.5620771646499634,1.5062205791473389,0.36538461538461536,0.8269230769230769,0.42857142857142855,0.8571428571428571,1.233599085671e-06
151,1.5706323981285095,1.597428798675537,0.3269230769230769,0.8269230769230769,0.21428571428571427,0.8571428571428571,0.005
152,1.5840561389923096,1.482405185699463,0.38461538461538464,0.8269230769230769,0.5,0.8571428571428571,0.004999691581204151
153,1.5435090065002441,1.7949639558792114,0.38461538461538464,0.8269230769230769,0.14285714285714285,0.8571428571428571,0.0049987664009143295
154,1.6340887546539307,1.740048885345459,0.28846153846153844,0.8269230769230769,0.2857142857142857,0.8571428571428571,0.004997224687404925
155,1.5364453792572021,1.436962604522705,0.40384615384615385,0.8269230769230769,0.5714285714285714,0.8571428571428571,0.004995066821070679
156,1.5741411447525024,1.6524475812911987,0.34615384615384615,0.8269230769230769,0.2857142857142857,0.8571428571428571,0.00499229333433282
157,1.6274737119674683,1.429430365562439,0.28846153846153844,0.8269230769230769,0.2857142857142857,0.8571428571428571,0.0049889049115077
158,1.5602498054504395,1.5443193912506104,0.40384615384615385,0.8269230769230769,0.21428571428571427,0.8571428571428571,0.004984902388637949
159,1.549530565738678,1.5711264610290527,0.36538461538461536,0.8269230769230769,0.21428571428571427,0.8571428571428571,0.004980286753286195
160,1.5365771651268005,1.5803282260894775,0.36538461538461536,0.8269230769230769,0.21428571428571427,0.8571428571428571,0.004975059144291394
161,1.5561169981956482,1.504813313484192,0.34615384615384615,0.8269230769230769,0.21428571428571427,0.8571428571428571,0.0049692208514878445
162,1.5408436059951782,1.4939714670181274,0.3076923076923077,0.8269230769230769,0.21428571428571427,0.8571428571428571,0.004962773315386935
163,1.5611528158187866,1.559584617614746,0.4230769230769231,0.8269230769230769,0.2857142857142857,0.8571428571428571,0.004955718126821722
164,1.5324981212615967,1.625249981880188,0.3269230769230769,0.8269230769230769,0.07142857142857142,0.8571428571428571,0.0049480570265544145
165,1.553025484085083,1.6294128894805908,0.23076923076923078,0.8269230769230769,0.35714285714285715,0.8571428571428571,0.004939791904846869
166,1.617213487625122,1.5283801555633545,0.3076923076923077,0.8269230769230769,0.35714285714285715,0.8571428571428571,0.004930924800994192
167,1.5326798558235168,1.4980692863464355,0.25,0.8269230769230769,0.42857142857142855,0.8571428571428571,0.004921457902821578
168,1.5778822898864746,1.539748191833496,0.25,0.8269230769230769,0.2857142857142857,0.8571428571428571,0.004911393546144495
169,1.557460606098175,1.5445053577423096,0.3269230769230769,0.8269230769230769,0.6428571428571429,0.8571428571428571,0.004900734214192358
170,1.5366011261940002,1.495725154876709,0.36538461538461536,0.8269230769230769,0.2857142857142857,0.8571428571428571,0.004889482536995825
171,1.5737914443016052,1.6766964197158813,0.34615384615384615,0.8269230769230769,0.5,0.8571428571428571,0.0048776412907378846
172,1.5400791764259338,1.610952377319336,0.3269230769230769,0.8269230769230769,0.21428571428571427,0.8571428571428571,0.004865213397068863
173,1.5251187086105347,1.4886572360992432,0.34615384615384615,0.8269230769230769,0.35714285714285715,0.8571428571428571,0.004852201922385564
174,1.567740559577942,1.4968476295471191,0.3076923076923077,0.8269230769230769,0.35714285714285715,0.8571428571428571,0.004838610077074669
175,1.5765883922576904,1.6412744522094727,0.34615384615384615,0.8269230769230769,0.21428571428571427,0.8571428571428571,0.004824441214720628
176,1.5326549410820007,1.4897515773773193,0.46153846153846156,0.8269230769230769,0.35714285714285715,0.8571428571428571,0.004809698831278217
177,1.535447120666504,1.476835012435913,0.36538461538461536,0.8269230769230769,0.35714285714285715,0.8571428571428571,0.0047943865642099525
178,1.6113636493682861,1.6851415634155273,0.2692307692307692,0.8269230769230769,0.21428571428571427,0.8571428571428571,0.004778508191588613
179,1.592210590839386,1.456917643547058,0.34615384615384615,0.8269230769230769,0.5714285714285714,0.8571428571428571,0.004762067631165049
180,1.534290611743927,1.564438819885254,0.3269230769230769,0.8269230769230769,0.2857142857142857,0.8571428571428571,0.004745068939401539
181,1.5455605387687683,1.5152912139892578,0.40384615384615385,0.8269230769230769,0.35714285714285715,0.8571428571428571,0.00472751631047092
182,1.558333158493042,1.4988842010498047,0.3269230769230769,0.8269230769230769,0.2857142857142857,0.8571428571428571,0.004709414075221734
183,1.601611077785492,1.521623969078064,0.2692307692307692,0.8269230769230769,0.21428571428571427,0.8571428571428571,0.0046907667001096585
184,1.5611796379089355,1.514787197113037,0.3269230769230769,0.8269230769230769,0.2857142857142857,0.8571428571428571,0.004671578786095479
185,1.600835919380188,1.519769549369812,0.21153846153846154,0.8269230769230769,0.21428571428571427,0.8571428571428571,0.0046518550675098596
186,1.529576301574707,1.5184022188186646,0.34615384615384615,0.8269230769230769,0.21428571428571427,0.8571428571428571,0.004631600410885231
187,1.536883533000946,1.5129060745239258,0.34615384615384615,0.8269230769230769,0.35714285714285715,0.8571428571428571,0.004610819813755038
188,1.4953686594963074,1.495119571685791,0.38461538461538464,0.8269230769230769,0.35714285714285715,0.8571428571428571,0.004589518403420676
189,1.4960655570030212,1.6114474534988403,0.3076923076923077,0.8269230769230769,0.21428571428571427,0.8571428571428571,0.004567701435686404
190,1.598513424396515,1.6025997400283813,0.3269230769230769,0.8269230769230769,0.35714285714285715,0.8571428571428571,0.004545374293562558
191,1.5448318123817444,1.388533592224121,0.3269230769230769,0.8269230769230769,0.5714285714285714,0.8571428571428571,0.0045225424859373685
192,1.5490017533302307,1.7184256315231323,0.36538461538461536,0.8269230769230769,0.2857142857142857,0.8571428571428571,0.004499211646217727
193,1.628975749015808,1.3996119499206543,0.25,0.8269230769230769,0.21428571428571427,0.8571428571428571,0.0044753875309392266
194,1.4989774227142334,1.4648324251174927,0.34615384615384615,0.8269230769230769,0.42857142857142855,0.8571428571428571,0.004451076018345824
195,1.5539741516113281,1.6466625928878784,0.4230769230769231,0.8269230769230769,0.2857142857142857,0.8571428571428571,0.004426283106939473
196,1.484051525592804,1.555905818939209,0.38461538461538464,0.8269230769230769,0.21428571428571427,0.8571428571428571,0.004401014914000078
197,1.4251595735549927,1.3931939601898193,0.4807692307692308,0.8269230769230769,0.35714285714285715,0.8571428571428571,0.004375277674076149
198,1.4399709701538086,1.5770626068115234,0.40384615384615385,0.8269230769230769,0.14285714285714285,0.8571428571428571,0.004349077737446524
199,1.491600513458252,1.6650382280349731,0.4423076923076923,0.8269230769230769,0.14285714285714285,0.8571428571428571,0.004322421568553529
200,1.4710007905960083,1.637344479560852,0.4230769230769231,0.8269230769230769,0.21428571428571427,0.8571428571428571,0.004295315744407973
201,1.485053539276123,1.6596256494522095,0.34615384615384615,0.8269230769230769,0.07142857142857142,0.8571428571428571,0.004267766952966369
202,1.4511105418205261,1.5508977174758911,0.4423076923076923,0.8269230769230769,0.2857142857142857,0.8571428571428571,0.004239781991480785
203,1.5425326824188232,1.594483733177185,0.4423076923076923,0.8269230769230769,0.2857142857142857,0.8571428571428571,0.004211367764821722
204,1.466946542263031,1.4456311464309692,0.40384615384615385,0.8269230769230769,0.35714285714285715,0.8571428571428571,0.004182531283774433
205,1.473798930644989,1.4102962017059326,0.4230769230769231,0.8269230769230769,0.42857142857142855,0.8571428571428571,0.00415327966330913
206,1.4108495116233826,1.6646802425384521,0.5,0.8269230769230769,0.21428571428571427,0.8571428571428571,0.00412362012082546
207,1.4657184481620789,1.3259434700012207,0.38461538461538464,0.8269230769230769,0.42857142857142855,0.8571428571428571,0.004093559974371724
208,1.4876008033752441,1.6232857704162598,0.38461538461538464,0.8269230769230769,0.35714285714285715,0.8571428571428571,0.004063106640839263
209,1.4157963991165161,1.3977041244506836,0.46153846153846156,0.8269230769230769,0.42857142857142855,0.8571428571428571,0.004032267634132442
210,1.4441072344779968,1.7296910285949707,0.4230769230769231,0.8269230769230769,0.2857142857142857,0.8571428571428571,0.004001050563314711
211,1.4389498233795166,1.6355057954788208,0.4230769230769231,0.8269230769230769,0.42857142857142855,0.8571428571428571,0.003969463130731183
212,1.6002196073532104,1.6841133832931519,0.40384615384615385,0.8269230769230769,0.2857142857142857,0.8571428571428571,0.003937513130108197
213,1.5254693031311035,1.616499423980713,0.34615384615384615,0.8269230769230769,0.2857142857142857,0.8571428571428571,0.003905208444630327
214,1.4734398126602173,1.4156641960144043,0.4423076923076923,0.8269230769230769,0.42857142857142855,0.8571428571428571,0.0038725570449953295
215,1.4526281952857971,1.3647602796554565,0.36538461538461536,0.8269230769230769,0.42857142857142855,0.8571428571428571,0.0038395669874474914
216,1.3849698901176453,1.5873279571533203,0.4807692307692308,0.8269230769230769,0.42857142857142855,0.8571428571428571,0.0038062464117898723
217,1.3851196765899658,1.5398720502853394,0.4423076923076923,0.8269230769230769,0.2857142857142857,0.8571428571428571,0.0037726035393759283
218,1.4709030985832214,1.5828717947006226,0.4230769230769231,0.8269230769230769,0.21428571428571427,0.9285714285714286,0.003738646671081019
219,1.384091556072235,1.8423964977264404,0.40384615384615385,0.8269230769230769,0.21428571428571427,0.7857142857142857,0.0037043841852542883
220,1.3961210250854492,1.732602596282959,0.46153846153846156,0.8269230769230769,0.35714285714285715,0.8571428571428571,0.0036698245356514337
221,1.4150032997131348,1.7098619937896729,0.40384615384615385,0.8653846153846154,0.2857142857142857,0.7857142857142857,0.003634976249348867
222,1.440938115119934,1.4875510931015015,0.4423076923076923,0.8653846153846154,0.35714285714285715,0.7857142857142857,0.0035998479246397877
223,1.5207507014274597,1.745863437652588,0.4230769230769231,0.8653846153846154,0.35714285714285715,0.6428571428571429,0.003564448228912682
224,1.3953479528427124,1.4253318309783936,0.4230769230769231,0.9038461538461539,0.35714285714285715,0.7857142857142857,0.0035287858965127724
225,1.3353620171546936,1.5074656009674072,0.40384615384615385,0.8653846153846154,0.35714285714285715,0.8571428571428571,0.003492869726586951
226,1.4795913100242615,1.5261880159378052,0.38461538461538464,0.8076923076923077,0.2857142857142857,0.7857142857142857,0.003456708580912725
227,1.4229757189750671,1.50474214553833,0.5,0.8461538461538461,0.35714285714285715,0.8571428571428571,0.0034203113817116953
228,1.3627917766571045,1.8379032611846924,0.4423076923076923,0.7884615384615384,0.2857142857142857,0.42857142857142855,0.003383687109448143
229,1.342664122581482,1.4370465278625488,0.5,0.7884615384615384,0.42857142857142855,0.5714285714285714,0.0033468448006132292
230,1.3917286396026611,1.5887141227722168,0.5769230769230769,0.7692307692307693,0.2857142857142857,0.6428571428571429,0.003309793545495374
231,1.4885498881340027,1.5314223766326904,0.46153846153846156,0.8269230769230769,0.35714285714285715,0.6428571428571429,0.0032725424859373687
232,1.3568230271339417,1.5297820568084717,0.4230769230769231,0.9038461538461539,0.42857142857142855,0.5,0.00323510081308076
233,1.1765966415405273,1.4892425537109375,0.4807692307692308,0.9230769230769231,0.2857142857142857,0.7857142857142857,0.0031974777650980737
234,1.2833781838417053,1.7564043998718262,0.5192307692307693,0.9038461538461539,0.42857142857142855,0.5,0.003159682624913432
235,1.3041070103645325,1.9967408180236816,0.4423076923076923,0.8846153846153846,0.21428571428571427,0.5714285714285714,0.0031217247179121366
236,1.2331600189208984,1.4242634773254395,0.5384615384615384,0.9038461538461539,0.5,0.6428571428571429,0.0030836134096397638
237,1.472139060497284,1.6245439052581787,0.46153846153846156,0.8461538461538461,0.2857142857142857,0.7142857142857143,0.0030453581034913567
238,1.5233696699142456,1.7549974918365479,0.38461538461538464,0.8461538461538461,0.5,0.5714285714285714,0.0030069682383912816
239,1.2743077874183655,1.4126384258270264,0.5192307692307693,0.9038461538461539,0.5714285714285714,0.7857142857142857,0.002968453286464312
240,1.4847585558891296,2.2549970149993896,0.46153846153846156,0.8653846153846154,0.2857142857142857,0.42857142857142855,0.0029298227506985236
241,1.3865104913711548,1.6221864223480225,0.4230769230769231,0.8653846153846154,0.2857142857142857,0.7857142857142857,0.0028910861626005773
242,1.2040846943855286,1.8005342483520508,0.5576923076923077,0.9423076923076923,0.5,0.5,0.0028522530798439573
243,1.310415804386139,1.969793438911438,0.4807692307692308,0.8653846153846154,0.2857142857142857,0.5,0.002813333083910761
244,1.4084873795509338,1.793722152709961,0.5192307692307693,0.8846153846153846,0.21428571428571427,0.5714285714285714,0.0027743357777276134
245,1.3118743896484375,1.7054648399353027,0.4807692307692308,0.9038461538461539,0.42857142857142855,0.5714285714285714,0.002735270783296286
246,1.3792906403541565,1.7245222330093384,0.38461538461538464,0.9038461538461539,0.2857142857142857,0.5714285714285714,0.0026961477393196128
247,1.2572667598724365,1.3644664287567139,0.5192307692307693,0.9423076923076923,0.5,0.7857142857142857,0.0026569762988232835
248,1.2535547614097595,1.5569665431976318,0.5192307692307693,0.9038461538461539,0.42857142857142855,0.6428571428571429,0.0026177661267741065
249,1.4663710594177246,2.0243546962738037,0.40384615384615385,0.8653846153846154,0.35714285714285715,0.5,0.0025785268976953207
250,1.3195037841796875,1.8930165767669678,0.38461538461538464,0.9038461538461539,0.5,0.5,0.002539268293279552
251,1.2823741436004639,1.739348292350769,0.5384615384615384,0.8846153846153846,0.35714285714285715,0.7142857142857143,0.0025
252,1.4788838624954224,1.6488690376281738,0.4230769230769231,0.8461538461538461,0.5,0.6428571428571429,0.002460731706720449
253,1.1611446738243103,2.308986186981201,0.5192307692307693,0.9423076923076923,0.2857142857142857,0.42857142857142855,0.0024214731023046794
254,1.219911277294159,2.491248369216919,0.4807692307692308,0.9230769230769231,0.21428571428571427,0.42857142857142855,0.0023822338732258936
255,1.2389577627182007,2.0851516723632812,0.4807692307692308,0.9038461538461539,0.5,0.42857142857142855,0.0023430237011767166
256,1.570492684841156,2.150747299194336,0.38461538461538464,0.7307692307692307,0.21428571428571427,0.5714285714285714,0.002303852260680388
257,1.4429712295532227,1.6768914461135864,0.5192307692307693,0.7692307692307693,0.5,0.5714285714285714,0.002264729216703714
258,1.3160500526428223,1.5773472785949707,0.5,0.7692307692307693,0.35714285714285715,0.5714285714285714,0.0022256642222723867
259,1.4050160646438599,1.5892291069030762,0.5384615384615384,0.7307692307692307,0.5,0.5,0.0021866669160892395
260,1.4525046348571777,1.5720818042755127,0.46153846153846156,0.75,0.2857142857142857,0.8571428571428571,0.002147746920156044
261,1.4115917086601257,1.3625277280807495,0.46153846153846156,0.8269230769230769,0.5714285714285714,0.8571428571428571,0.002108913837399423
262,1.4781145453453064,1.3293347358703613,0.46153846153846156,0.8269230769230769,0.5,0.8571428571428571,0.002070177249301476
263,1.435425043106079,1.7179930210113525,0.4807692307692308,0.8269230769230769,0.2857142857142857,0.8571428571428571,0.0020315467135356884
264,1.4606850743293762,1.8393831253051758,0.4807692307692308,0.8269230769230769,0.14285714285714285,0.8571428571428571,0.001993031761608719
265,1.4591745138168335,1.5788636207580566,0.46153846153846156,0.8269230769230769,0.35714285714285715,0.8571428571428571,0.0019546418965086442
266,1.2824167013168335,1.4026387929916382,0.5576923076923077,0.8269230769230769,0.35714285714285715,0.8571428571428571,0.0019163865903602361
267,1.3493231534957886,1.802964687347412,0.5576923076923077,0.8269230769230769,0.21428571428571427,0.8571428571428571,0.0018782752820878628
268,1.3845093846321106,1.3791165351867676,0.5576923076923077,0.8269230769230769,0.42857142857142855,0.8571428571428571,0.0018403173750865679
269,1.5761139392852783,1.4402098655700684,0.36538461538461536,0.8269230769230769,0.42857142857142855,0.8571428571428571,0.001802522234901927
270,1.3445309400558472,1.4727139472961426,0.46153846153846156,0.8269230769230769,0.35714285714285715,0.8571428571428571,0.0017648991869192404
271,1.5786998867988586,1.4570486545562744,0.4423076923076923,0.8269230769230769,0.42857142857142855,0.8571428571428571,0.0017274575140626323
272,1.4893577694892883,1.470544457435608,0.5,0.8269230769230769,0.35714285714285715,0.8571428571428571,0.0016902064545046263
273,1.4524829387664795,1.7334764003753662,0.38461538461538464,0.8269230769230769,0.21428571428571427,0.8571428571428571,0.0016531551993867715
274,1.4688220024108887,1.829118251800537,0.46153846153846156,0.8269230769230769,0.21428571428571427,0.8571428571428571,0.0016163128905518577
275,1.4198682308197021,1.7168796062469482,0.46153846153846156,0.8269230769230769,0.2857142857142857,0.8571428571428571,0.0015796886182883059
276,1.4143999218940735,1.45847487449646,0.5192307692307693,0.8269230769230769,0.5,0.8571428571428571,0.0015432914190872762
277,1.458117127418518,1.7037794589996338,0.46153846153846156,0.8269230769230769,0.42857142857142855,0.8571428571428571,0.0015071302734130482
278,1.55775785446167,1.9893183708190918,0.40384615384615385,0.8269230769230769,0.21428571428571427,0.8571428571428571,0.001471214103487228
279,1.3903007507324219,1.9559024572372437,0.4807692307692308,0.8269230769230769,0.21428571428571427,0.8571428571428571,0.0014355517710873183
280,1.413235366344452,1.4172756671905518,0.46153846153846156,0.8269230769230769,0.42857142857142855,0.8571428571428571,0.001400152075360212
281,1.4612704515457153,1.5310208797454834,0.5,0.8269230769230769,0.2857142857142857,0.8571428571428571,0.0013650237506511332
282,1.4367536902427673,1.5767037868499756,0.46153846153846156,0.8269230769230769,0.21428571428571427,0.8571428571428571,0.001330175464348567
283,1.4716171026229858,1.7780365943908691,0.46153846153846156,0.8269230769230769,0.21428571428571427,0.8571428571428571,0.0012956158147457114
284,1.5060674548149109,1.6442888975143433,0.46153846153846156,0.8269230769230769,0.35714285714285715,0.8571428571428571,0.001261353328918981
285,1.3227307200431824,1.6570210456848145,0.5384615384615384,0.8269230769230769,0.35714285714285715,0.8571428571428571,0.0012273964606240718
286,1.4938247799873352,1.7879400253295898,0.46153846153846156,0.8269230769230769,0.21428571428571427,0.8571428571428571,0.001193753588210128
287,1.5679019689559937,1.8505146503448486,0.40384615384615385,0.8269230769230769,0.2857142857142857,0.8571428571428571,0.0011604330125525079
288,1.5090435147285461,1.9890774488449097,0.4230769230769231,0.8269230769230769,0.07142857142857142,0.8571428571428571,0.0011274429550046702
289,1.482198417186737,1.5322203636169434,0.46153846153846156,0.8269230769230769,0.35714285714285715,0.8571428571428571,0.0010947915553696733
290,1.5257694721221924,1.9036533832550049,0.4230769230769231,0.8269230769230769,0.14285714285714285,0.8571428571428571,0.0010624868698918036
291,1.414279282093048,1.5944957733154297,0.5384615384615384,0.8269230769230769,0.2857142857142857,0.8571428571428571,0.0010305368692688174
292,1.4813029170036316,1.715294599533081,0.46153846153846156,0.8269230769230769,0.2857142857142857,0.8571428571428571,0.0009989494366852902
293,1.4416624903678894,1.894463300704956,0.46153846153846156,0.8269230769230769,0.21428571428571427,0.8571428571428571,0.0009677323658675585
294,1.5512695908546448,1.595589280128479,0.4230769230769231,0.8269230769230769,0.35714285714285715,0.8571428571428571,0.000936893359160737
295,1.433157742023468,1.5358915328979492,0.4807692307692308,0.8269230769230769,0.35714285714285715,0.8571428571428571,0.0009064400256282757
296,1.4795411825180054,1.5281829833984375,0.4423076923076923,0.8269230769230769,0.42857142857142855,0.8571428571428571,0.0008763798791745412
297,1.5149097442626953,1.7133270502090454,0.4230769230769231,0.8269230769230769,0.21428571428571427,0.8571428571428571,0.0008467203366908707
298,1.5409044027328491,1.7999664545059204,0.40384615384615385,0.8269230769230769,0.2857142857142857,0.8571428571428571,0.0008174687162255665
299,1.4528517723083496,1.6116464138031006,0.4423076923076923,0.8269230769230769,0.2857142857142857,0.8571428571428571,0.0007886322351782782
300,1.585964560508728,1.6352214813232422,0.36538461538461536,0.8269230769230769,0.2857142857142857,0.8571428571428571,0.0007602180085192142
301,1.4793421030044556,1.5750094652175903,0.46153846153846156,0.8269230769230769,0.35714285714285715,0.8571428571428571,0.0007322330470336313
302,1.46419757604599,1.781110405921936,0.4230769230769231,0.8269230769230769,0.2857142857142857,0.8571428571428571,0.0007046842555920282
303,1.4621606469154358,1.6190637350082397,0.4423076923076923,0.8269230769230769,0.2857142857142857,0.8571428571428571,0.0006775784314464717
304,1.463346004486084,1.4765626192092896,0.4807692307692308,0.8269230769230769,0.42857142857142855,0.8571428571428571,0.0006509222625534758
305,1.3744314908981323,1.5752427577972412,0.5192307692307693,0.8269230769230769,0.35714285714285715,0.8571428571428571,0.0006247223259238514
306,1.5517489314079285,1.6648659706115723,0.4230769230769231,0.8269230769230769,0.21428571428571427,0.8571428571428571,0.0005989850859999227
307,1.4062837958335876,1.4361504316329956,0.5,0.8269230769230769,0.42857142857142855,0.8571428571428571,0.0005737168930605272
308,1.4510216116905212,1.66219162940979,0.5,0.8269230769230769,0.2857142857142857,0.8571428571428571,0.000548923981654176
309,1.4344050288200378,1.5177483558654785,0.5,0.8269230769230769,0.35714285714285715,0.8571428571428571,0.000524612469060774
310,1.3796677589416504,1.6830832958221436,0.5192307692307693,0.8269230769230769,0.2857142857142857,0.8571428571428571,0.0005007883537822738
311,1.4558082818984985,1.8407340049743652,0.4423076923076923,0.8269230769230769,0.14285714285714285,0.8571428571428571,0.00047745751406263163
312,1.474877655506134,1.6277576684951782,0.4807692307692308,0.8269230769230769,0.2857142857142857,0.8571428571428571,0.00045462570643744175
313,1.4559277892112732,1.8458176851272583,0.4807692307692308,0.8269230769230769,0.21428571428571427,0.8571428571428571,0.000432298564313596
314,1.4355857968330383,1.6867570877075195,0.46153846153846156,0.8269230769230769,0.2857142857142857,0.8571428571428571,0.00041048159657932487
315,1.5389443039894104,1.8163657188415527,0.38461538461538464,0.8269230769230769,0.14285714285714285,0.8571428571428571,0.00038918018624496285
316,1.31847482919693,1.506402611732483,0.5384615384615384,0.8269230769230769,0.35714285714285715,0.8571428571428571,0.00036839958911477014
317,1.474519968032837,1.7955076694488525,0.4423076923076923,0.8269230769230769,0.14285714285714285,0.8571428571428571,0.0003481449324901406
318,1.4003864526748657,1.5874871015548706,0.5192307692307693,0.8269230769230769,0.35714285714285715,0.8571428571428571,0.0003284212139045217
319,1.4367415308952332,1.8237965106964111,0.46153846153846156,0.8269230769230769,0.07142857142857142,0.8571428571428571,0.00030923329989034103
320,1.510879397392273,1.7271521091461182,0.4230769230769231,0.8269230769230769,0.21428571428571427,0.8571428571428571,0.00029058592477826633
321,1.5805808305740356,1.7271881103515625,0.4423076923076923,0.8269230769230769,0.21428571428571427,0.8571428571428571,0.00027248368952908055
322,1.4585003852844238,1.5764684677124023,0.40384615384615385,0.8269230769230769,0.14285714285714285,0.8571428571428571,0.00025493106059846116
323,1.3261839747428894,1.9813227653503418,0.5576923076923077,0.8269230769230769,0.0,0.8571428571428571,0.00023793236883495162
324,1.4095253944396973,1.5236451625823975,0.4807692307692308,0.8269230769230769,0.2857142857142857,0.8571428571428571,0.00022149180841138732
325,1.542585015296936,1.3605904579162598,0.46153846153846156,0.8269230769230769,0.42857142857142855,0.8571428571428571,0.0002056134357900477
326,1.5368516445159912,1.6179125308990479,0.4230769230769231,0.8269230769230769,0.21428571428571427,0.8571428571428571,0.0001903011687217837
327,1.3803717494010925,1.4764800071716309,0.5,0.8269230769230769,0.35714285714285715,0.8571428571428571,0.00017555878527937164
328,1.4993594288825989,1.6853020191192627,0.4230769230769231,0.8269230769230769,0.2857142857142857,0.8571428571428571,0.00016138992292533155
329,1.5247615575790405,1.4897961616516113,0.46153846153846156,0.8269230769230769,0.35714285714285715,0.8571428571428571,0.00014779807761443637
330,1.4630382061004639,1.7497949600219727,0.46153846153846156,0.8269230769230769,0.2857142857142857,0.8571428571428571,0.00013478660293113676
331,1.4646879434585571,1.5268597602844238,0.4423076923076923,0.8269230769230769,0.35714285714285715,0.8571428571428571,0.00012235870926211617
332,1.4317068457603455,1.673269271850586,0.5192307692307693,0.8269230769230769,0.35714285714285715,0.8571428571428571,0.0001105174630041747
333,1.5372286438941956,1.3599565029144287,0.4230769230769231,0.8269230769230769,0.5,0.8571428571428571,9.926578580764262e-05
334,1.4657859802246094,1.435355305671692,0.4230769230769231,0.8269230769230769,0.6428571428571429,0.8571428571428571,8.860645385550508e-05
335,1.561051845550537,1.569836139678955,0.4230769230769231,0.8269230769230769,0.2857142857142857,0.8571428571428571,7.854209717842258e-05
336,1.4931422472000122,1.359890341758728,0.4423076923076923,0.8269230769230769,0.42857142857142855,0.8571428571428571,6.90751990058086e-05
337,1.5075909495353699,1.6332398653030396,0.38461538461538464,0.8269230769230769,0.14285714285714285,0.8571428571428571,6.0208095153131695e-05
338,1.3975148797035217,1.34306001663208,0.5,0.8269230769230769,0.5,0.8571428571428571,5.194297344558535e-05
339,1.4486190676689148,1.8230637311935425,0.46153846153846156,0.8269230769230769,0.14285714285714285,0.8571428571428571,4.4281873178278196e-05
340,1.4893713593482971,1.8582677841186523,0.46153846153846156,0.8269230769230769,0.21428571428571427,0.8571428571428571,3.7226684613065334e-05
341,1.4577378034591675,1.7568717002868652,0.4807692307692308,0.8269230769230769,0.35714285714285715,0.8571428571428571,3.077914851215585e-05
342,1.528254747390747,1.9718209505081177,0.38461538461538464,0.8269230769230769,0.14285714285714285,0.8571428571428571,2.4940855708606158e-05
343,1.5228180885314941,1.8484199047088623,0.40384615384615385,0.8269230769230769,0.14285714285714285,0.8571428571428571,1.9713246713805587e-05
344,1.3420588970184326,1.5888299942016602,0.5384615384615384,0.8269230769230769,0.21428571428571427,0.8571428571428571,1.5097611362051012e-05
345,1.4444089531898499,1.8135101795196533,0.46153846153846156,0.8269230769230769,0.14285714285714285,0.8571428571428571,1.109508849230001e-05
346,1.3348920345306396,1.86520516872406,0.6153846153846154,0.8269230769230769,0.14285714285714285,0.8571428571428571,7.70666566718009e-06
347,1.4367624521255493,1.538845419883728,0.4807692307692308,0.8269230769230769,0.35714285714285715,0.8571428571428571,4.933178929321102e-06
348,1.4093730449676514,1.6552903652191162,0.4807692307692308,0.8269230769230769,0.42857142857142855,0.8571428571428571,2.775312595075241e-06
349,1.5262072086334229,1.570828914642334,0.40384615384615385,0.8269230769230769,0.35714285714285715,0.8571428571428571,1.233599085671e-06
350,1.4294360876083374,1.7966821193695068,0.5192307692307693,0.8269230769230769,0.14285714285714285,0.8571428571428571,3.0841879584853074e-07
