epoch,train_loss,val_loss,train_acc_action,train_acc_status,val_acc_action,val_acc_status,learning_rate
1,1.7711408734321594,1.7501449584960938,0.34615384615384615,0.8269230769230769,0.35714285714285715,0.8571428571428571,0.0004
2,1.755660355091095,1.725385069847107,0.38461538461538464,0.8269230769230769,0.35714285714285715,0.8571428571428571,0.004995066821070679
3,1.7355552911758423,1.65871262550354,0.25,0.8269230769230769,0.21428571428571427,0.8571428571428571,0.004980286753286195
4,1.6891338229179382,1.559213638305664,0.36538461538461536,0.8269230769230769,0.21428571428571427,0.8571428571428571,0.004955718126821722
5,1.6574879884719849,1.522754192352295,0.4807692307692308,0.8269230769230769,0.42857142857142855,0.8571428571428571,0.004921457902821578
6,1.63946133852005,1.5292458534240723,0.28846153846153844,0.8269230769230769,0.35714285714285715,0.8571428571428571,0.0048776412907378846
7,1.6223348379135132,1.5342559814453125,0.4423076923076923,0.8269230769230769,0.35714285714285715,0.8571428571428571,0.004824441214720628
8,1.6299752593040466,1.5526374578475952,0.28846153846153844,0.8269230769230769,0.21428571428571427,0.8571428571428571,0.004762067631165049
9,1.6217413544654846,1.5500298738479614,0.3269230769230769,0.8269230769230769,0.21428571428571427,0.8571428571428571,0.0046907667001096585
10,1.6829460859298706,1.5558247566223145,0.3269230769230769,0.8269230769230769,0.21428571428571427,0.8571428571428571,0.004610819813755038
11,1.6055676341056824,1.5622541904449463,0.34615384615384615,0.8269230769230769,0.21428571428571427,0.8571428571428571,0.0045225424859373685
12,1.6087628602981567,1.567833662033081,0.36538461538461536,0.8269230769230769,0.21428571428571427,0.8571428571428571,0.004426283106939473
13,1.636965811252594,1.5746257305145264,0.3269230769230769,0.8269230769230769,0.21428571428571427,0.8571428571428571,0.004322421568553529
14,1.609645128250122,1.575190544128418,0.38461538461538464,0.8269230769230769,0.21428571428571427,0.8571428571428571,0.004211367764821722
15,1.5874851942062378,1.5744693279266357,0.4230769230769231,0.8269230769230769,0.21428571428571427,0.8571428571428571,0.004093559974371724
16,1.622207224369049,1.568341851234436,0.28846153846153844,0.8269230769230769,0.21428571428571427,0.8571428571428571,0.003969463130731183
17,1.521515667438507,1.5631942749023438,0.38461538461538464,0.8269230769230769,0.21428571428571427,0.8571428571428571,0.0038395669874474914
18,1.5868239402770996,1.5584886074066162,0.38461538461538464,0.8269230769230769,0.21428571428571427,0.8571428571428571,0.0037043841852542883
19,1.589400827884674,1.5528002977371216,0.3269230769230769,0.8269230769230769,0.21428571428571427,0.8571428571428571,0.003564448228912682
20,1.5558573007583618,1.5480811595916748,0.40384615384615385,0.8269230769230769,0.21428571428571427,0.8571428571428571,0.0034203113817116953
21,1.5921037793159485,1.5433526039123535,0.36538461538461536,0.8269230769230769,0.21428571428571427,0.8571428571428571,0.0032725424859373687
22,1.6135517358779907,1.540514349937439,0.3076923076923077,0.8269230769230769,0.21428571428571427,0.8571428571428571,0.0031217247179121366
23,1.6381823420524597,1.5378267765045166,0.36538461538461536,0.8269230769230769,0.21428571428571427,0.8571428571428571,0.002968453286464312
24,1.6389908194541931,1.5351614952087402,0.38461538461538464,0.8269230769230769,0.21428571428571427,0.8571428571428571,0.002813333083910761
25,1.6474127769470215,1.533888339996338,0.36538461538461536,0.8269230769230769,0.21428571428571427,0.8571428571428571,0.0026569762988232835
26,1.6020464301109314,1.534106969833374,0.3076923076923077,0.8269230769230769,0.21428571428571427,0.8571428571428571,0.0025
27,1.5623924732208252,1.534604549407959,0.4230769230769231,0.8269230769230769,0.21428571428571427,0.8571428571428571,0.0023430237011767166
28,1.5914874076843262,1.535627841949463,0.34615384615384615,0.8269230769230769,0.21428571428571427,0.8571428571428571,0.0021866669160892395
29,1.5953136682510376,1.5366137027740479,0.34615384615384615,0.8269230769230769,0.21428571428571427,0.8571428571428571,0.0020315467135356884
30,1.5317879915237427,1.5380767583847046,0.4423076923076923,0.8269230769230769,0.21428571428571427,0.8571428571428571,0.0018782752820878628
31,1.6607596278190613,1.539321780204773,0.23076923076923078,0.8269230769230769,0.21428571428571427,0.8571428571428571,0.0017274575140626323
32,1.5494219064712524,1.5405571460723877,0.4423076923076923,0.8269230769230769,0.21428571428571427,0.8571428571428571,0.0015796886182883059
33,1.532815396785736,1.5413204431533813,0.4423076923076923,0.8269230769230769,0.21428571428571427,0.8571428571428571,0.0014355517710873183
34,1.555507779121399,1.5422098636627197,0.4230769230769231,0.8269230769230769,0.21428571428571427,0.8571428571428571,0.0012956158147457114
35,1.5682218074798584,1.54257071018219,0.34615384615384615,0.8269230769230769,0.21428571428571427,0.8571428571428571,0.0011604330125525079
36,1.6240448355674744,1.5434658527374268,0.3076923076923077,0.8269230769230769,0.21428571428571427,0.8571428571428571,0.0010305368692688174
37,1.5842549800872803,1.5439674854278564,0.3076923076923077,0.8269230769230769,0.21428571428571427,0.8571428571428571,0.0009064400256282757
38,1.57530277967453,1.5441393852233887,0.28846153846153844,0.8269230769230769,0.21428571428571427,0.8571428571428571,0.0007886322351782782
39,1.6330912709236145,1.5445009469985962,0.28846153846153844,0.8269230769230769,0.21428571428571427,0.8571428571428571,0.0006775784314464717
40,1.5796215534210205,1.5444128513336182,0.34615384615384615,0.8269230769230769,0.21428571428571427,0.8571428571428571,0.0005737168930605272
41,1.6218211650848389,1.5446269512176514,0.3269230769230769,0.8269230769230769,0.21428571428571427,0.8571428571428571,0.00047745751406263163
42,1.615614652633667,1.5448825359344482,0.28846153846153844,0.8269230769230769,0.21428571428571427,0.8571428571428571,0.00038918018624496285
43,1.6165951490402222,1.545182704925537,0.3269230769230769,0.8269230769230769,0.21428571428571427,0.8571428571428571,0.00030923329989034103
44,1.5995312929153442,1.5452823638916016,0.4230769230769231,0.8269230769230769,0.21428571428571427,0.8571428571428571,0.00023793236883495162
45,1.6037660837173462,1.545490026473999,0.3076923076923077,0.8269230769230769,0.21428571428571427,0.8571428571428571,0.00017555878527937164
46,1.6504887342453003,1.5451717376708984,0.19230769230769232,0.8269230769230769,0.21428571428571427,0.8571428571428571,0.00012235870926211617
47,1.6010180115699768,1.545116662979126,0.3076923076923077,0.8269230769230769,0.21428571428571427,0.8571428571428571,7.854209717842258e-05
48,1.6271089911460876,1.5449262857437134,0.2692307692307692,0.8269230769230769,0.21428571428571427,0.8571428571428571,4.4281873178278196e-05
49,1.5667293071746826,1.5449061393737793,0.34615384615384615,0.8269230769230769,0.21428571428571427,0.8571428571428571,1.9713246713805587e-05
50,1.6266019344329834,1.5450068712234497,0.34615384615384615,0.8269230769230769,0.21428571428571427,0.8571428571428571,4.933178929321102e-06
51,1.5545018911361694,1.54225754737854,0.4230769230769231,0.8269230769230769,0.21428571428571427,0.8571428571428571,0.005
52,1.6190829277038574,1.5395786762237549,0.28846153846153844,0.8269230769230769,0.21428571428571427,0.8571428571428571,0.0049987664009143295
53,1.5818438529968262,1.5370808839797974,0.2692307692307692,0.8269230769230769,0.35714285714285715,0.8571428571428571,0.004995066821070679
54,1.5532556176185608,1.5330766439437866,0.19230769230769232,0.8269230769230769,0.35714285714285715,0.8571428571428571,0.0049889049115077
55,1.5270191431045532,1.5289872884750366,0.28846153846153844,0.8269230769230769,0.35714285714285715,0.8571428571428571,0.004980286753286195
56,1.5861859917640686,1.5247912406921387,0.34615384615384615,0.8269230769230769,0.35714285714285715,0.8571428571428571,0.0049692208514878445
57,1.6339216232299805,1.5224428176879883,0.34615384615384615,0.8269230769230769,0.35714285714285715,0.8571428571428571,0.004955718126821722
58,1.644870102405548,1.521507740020752,0.28846153846153844,0.8269230769230769,0.35714285714285715,0.8571428571428571,0.004939791904846869
59,1.595548927783966,1.5215651988983154,0.38461538461538464,0.8269230769230769,0.35714285714285715,0.8571428571428571,0.004921457902821578
60,1.6340615153312683,1.5226455926895142,0.34615384615384615,0.8269230769230769,0.35714285714285715,0.8571428571428571,0.004900734214192358
61,1.5877334475517273,1.5256319046020508,0.38461538461538464,0.8269230769230769,0.35714285714285715,0.8571428571428571,0.0048776412907378846
62,1.62064790725708,1.5285451412200928,0.28846153846153844,0.8269230769230769,0.35714285714285715,0.8571428571428571,0.004852201922385564
63,1.6388147473335266,1.5319981575012207,0.4423076923076923,0.8269230769230769,0.35714285714285715,0.8571428571428571,0.004824441214720628
64,1.5438360571861267,1.5360770225524902,0.46153846153846156,0.8269230769230769,0.35714285714285715,0.8571428571428571,0.0047943865642099525
65,1.6259424090385437,1.5388561487197876,0.2692307692307692,0.8269230769230769,0.21428571428571427,0.8571428571428571,0.004762067631165049
66,1.605913758277893,1.5409603118896484,0.3076923076923077,0.8269230769230769,0.21428571428571427,0.8571428571428571,0.00472751631047092
67,1.5759022235870361,1.54165780544281,0.21153846153846154,0.8269230769230769,0.21428571428571427,0.8571428571428571,0.0046907667001096585
68,1.6089344024658203,1.5406451225280762,0.3076923076923077,0.8269230769230769,0.21428571428571427,0.8571428571428571,0.0046518550675098596
69,1.6171754002571106,1.537940263748169,0.2692307692307692,0.8269230769230769,0.21428571428571427,0.8571428571428571,0.004610819813755038
70,1.5457202196121216,1.535308599472046,0.3076923076923077,0.8269230769230769,0.21428571428571427,0.8571428571428571,0.004567701435686404
71,1.606882929801941,1.533281922340393,0.36538461538461536,0.8269230769230769,0.21428571428571427,0.8571428571428571,0.0045225424859373685
72,1.559817135334015,1.530418872833252,0.34615384615384615,0.8269230769230769,0.21428571428571427,0.8571428571428571,0.0044753875309392266
73,1.5353493690490723,1.527915120124817,0.4230769230769231,0.8269230769230769,0.21428571428571427,0.8571428571428571,0.004426283106939473
74,1.5966415405273438,1.5265344381332397,0.38461538461538464,0.8269230769230769,0.21428571428571427,0.8571428571428571,0.004375277674076149
75,1.6107870936393738,1.5275851488113403,0.28846153846153844,0.8269230769230769,0.21428571428571427,0.8571428571428571,0.004322421568553529
76,1.5536799430847168,1.5278072357177734,0.34615384615384615,0.8269230769230769,0.21428571428571427,0.8571428571428571,0.004267766952966369
77,1.5961578488349915,1.5269484519958496,0.34615384615384615,0.8269230769230769,0.21428571428571427,0.8571428571428571,0.004211367764821722
78,1.5305211544036865,1.5267627239227295,0.34615384615384615,0.8269230769230769,0.21428571428571427,0.8571428571428571,0.00415327966330913
79,1.5792900323867798,1.5274158716201782,0.40384615384615385,0.8269230769230769,0.21428571428571427,0.8571428571428571,0.004093559974371724
80,1.4853952527046204,1.5278583765029907,0.4230769230769231,0.8269230769230769,0.21428571428571427,0.8571428571428571,0.004032267634132442
81,1.6369625926017761,1.5292813777923584,0.36538461538461536,0.8269230769230769,0.21428571428571427,0.8571428571428571,0.003969463130731183
82,1.5650500655174255,1.5292304754257202,0.3269230769230769,0.8269230769230769,0.21428571428571427,0.8571428571428571,0.003905208444630327
83,1.566701352596283,1.529682993888855,0.3269230769230769,0.8269230769230769,0.21428571428571427,0.8571428571428571,0.0038395669874474914
84,1.5895406603813171,1.5296742916107178,0.34615384615384615,0.8269230769230769,0.21428571428571427,0.8571428571428571,0.0037726035393759283
85,1.5140920281410217,1.5297434329986572,0.38461538461538464,0.8269230769230769,0.21428571428571427,0.8571428571428571,0.0037043841852542883
86,1.5478304028511047,1.5301485061645508,0.3269230769230769,0.8269230769230769,0.21428571428571427,0.8571428571428571,0.003634976249348867
87,1.5150598287582397,1.5298075675964355,0.28846153846153844,0.8269230769230769,0.21428571428571427,0.8571428571428571,0.003564448228912682
88,1.546689748764038,1.5290619134902954,0.38461538461538464,0.8269230769230769,0.21428571428571427,0.8571428571428571,0.003492869726586951
89,1.607517957687378,1.528327226638794,0.34615384615384615,0.8269230769230769,0.21428571428571427,0.8571428571428571,0.0034203113817116953
90,1.5863715410232544,1.527815580368042,0.36538461538461536,0.8269230769230769,0.21428571428571427,0.8571428571428571,0.0033468448006132292
91,1.5799087285995483,1.5274291038513184,0.40384615384615385,0.8269230769230769,0.21428571428571427,0.8571428571428571,0.0032725424859373687
92,1.6214030385017395,1.5276437997817993,0.3269230769230769,0.8269230769230769,0.21428571428571427,0.8571428571428571,0.0031974777650980737
93,1.5832009315490723,1.5280128717422485,0.28846153846153844,0.8269230769230769,0.21428571428571427,0.8571428571428571,0.0031217247179121366
94,1.5648621916770935,1.5286158323287964,0.2692307692307692,0.8269230769230769,0.21428571428571427,0.8571428571428571,0.0030453581034913567
95,1.531920313835144,1.5290340185165405,0.34615384615384615,0.8269230769230769,0.21428571428571427,0.8571428571428571,0.002968453286464312
96,1.5323851108551025,1.529604196548462,0.36538461538461536,0.8269230769230769,0.21428571428571427,0.8571428571428571,0.0028910861626005773
97,1.5298094153404236,1.5296275615692139,0.36538461538461536,0.8269230769230769,0.21428571428571427,0.8571428571428571,0.002813333083910761
98,1.5794243812561035,1.529247522354126,0.34615384615384615,0.8269230769230769,0.21428571428571427,0.8571428571428571,0.002735270783296286
99,1.5616079568862915,1.529101848602295,0.3269230769230769,0.8269230769230769,0.21428571428571427,0.8571428571428571,0.0026569762988232835
100,1.5773983001708984,1.5291097164154053,0.34615384615384615,0.8269230769230769,0.21428571428571427,0.8571428571428571,0.0025785268976953207
101,1.5544143319129944,1.529175043106079,0.4423076923076923,0.8269230769230769,0.21428571428571427,0.8571428571428571,0.0025
102,1.5595752596855164,1.529139757156372,0.3269230769230769,0.8269230769230769,0.21428571428571427,0.8571428571428571,0.0024214731023046794
103,1.586072027683258,1.5287703275680542,0.34615384615384615,0.8269230769230769,0.21428571428571427,0.8571428571428571,0.0023430237011767166
104,1.5696192979812622,1.5286977291107178,0.40384615384615385,0.8269230769230769,0.21428571428571427,0.8571428571428571,0.002264729216703714
105,1.5462818145751953,1.5286858081817627,0.3269230769230769,0.8269230769230769,0.21428571428571427,0.8571428571428571,0.0021866669160892395
106,1.5594248175621033,1.5285522937774658,0.3269230769230769,0.8269230769230769,0.21428571428571427,0.8571428571428571,0.002108913837399423
107,1.5722661018371582,1.5282793045043945,0.38461538461538464,0.8269230769230769,0.21428571428571427,0.8571428571428571,0.0020315467135356884
108,1.612050473690033,1.5277013778686523,0.34615384615384615,0.8269230769230769,0.21428571428571427,0.8571428571428571,0.0019546418965086442
109,1.5778688788414001,1.527867317199707,0.40384615384615385,0.8269230769230769,0.21428571428571427,0.8571428571428571,0.0018782752820878628
110,1.562335193157196,1.5280338525772095,0.40384615384615385,0.8269230769230769,0.21428571428571427,0.8571428571428571,0.001802522234901927
111,1.57197767496109,1.528717041015625,0.34615384615384615,0.8269230769230769,0.21428571428571427,0.8571428571428571,0.0017274575140626323
112,1.5887324810028076,1.528987169265747,0.36538461538461536,0.8269230769230769,0.21428571428571427,0.8571428571428571,0.0016531551993867715
113,1.5971413850784302,1.529209017753601,0.3269230769230769,0.8269230769230769,0.21428571428571427,0.8571428571428571,0.0015796886182883059
114,1.534731924533844,1.5293763875961304,0.38461538461538464,0.8269230769230769,0.21428571428571427,0.8571428571428571,0.0015071302734130482
115,1.6074086427688599,1.5298959016799927,0.36538461538461536,0.8269230769230769,0.21428571428571427,0.8571428571428571,0.0014355517710873183
116,1.5653884410858154,1.5303326845169067,0.3076923076923077,0.8269230769230769,0.21428571428571427,0.8571428571428571,0.0013650237506511332
117,1.5284196138381958,1.5310865640640259,0.34615384615384615,0.8269230769230769,0.21428571428571427,0.8571428571428571,0.0012956158147457114
118,1.5988489985466003,1.5316544771194458,0.4807692307692308,0.8269230769230769,0.21428571428571427,0.8571428571428571,0.0012273964606240718
119,1.5769035816192627,1.5319041013717651,0.28846153846153844,0.8269230769230769,0.21428571428571427,0.8571428571428571,0.0011604330125525079
120,1.6041964888572693,1.5323827266693115,0.2692307692307692,0.8269230769230769,0.21428571428571427,0.8571428571428571,0.0010947915553696733
121,1.500554084777832,1.5327160358428955,0.34615384615384615,0.8269230769230769,0.21428571428571427,0.8571428571428571,0.0010305368692688174
122,1.585216224193573,1.5328850746154785,0.3076923076923077,0.8269230769230769,0.21428571428571427,0.8571428571428571,0.0009677323658675585
123,1.63169264793396,1.5330932140350342,0.4230769230769231,0.8269230769230769,0.21428571428571427,0.8571428571428571,0.0009064400256282757
124,1.5468233227729797,1.5337003469467163,0.34615384615384615,0.8269230769230769,0.21428571428571427,0.8571428571428571,0.0008467203366908707
125,1.6003239154815674,1.5337084531784058,0.36538461538461536,0.8269230769230769,0.21428571428571427,0.8571428571428571,0.0007886322351782782
126,1.584329605102539,1.5341243743896484,0.40384615384615385,0.8269230769230769,0.21428571428571427,0.8571428571428571,0.0007322330470336313
127,1.588801383972168,1.5342981815338135,0.34615384615384615,0.8269230769230769,0.21428571428571427,0.8571428571428571,0.0006775784314464717
128,1.5901817083358765,1.5346107482910156,0.34615384615384615,0.8269230769230769,0.21428571428571427,0.8571428571428571,0.0006247223259238514
129,1.568279504776001,1.5348408222198486,0.3076923076923077,0.8269230769230769,0.21428571428571427,0.8571428571428571,0.0005737168930605272
130,1.5317296981811523,1.5350522994995117,0.34615384615384615,0.8269230769230769,0.21428571428571427,0.8571428571428571,0.000524612469060774
131,1.5207065343856812,1.5350937843322754,0.36538461538461536,0.8269230769230769,0.21428571428571427,0.8571428571428571,0.00047745751406263163
132,1.54954195022583,1.535233974456787,0.3269230769230769,0.8269230769230769,0.21428571428571427,0.8571428571428571,0.000432298564313596
133,1.5973531603813171,1.5354526042938232,0.2692307692307692,0.8269230769230769,0.21428571428571427,0.8571428571428571,0.00038918018624496285
134,1.537618637084961,1.5354372262954712,0.34615384615384615,0.8269230769230769,0.21428571428571427,0.8571428571428571,0.0003481449324901406
135,1.5825878381729126,1.5356767177581787,0.2692307692307692,0.8269230769230769,0.21428571428571427,0.8571428571428571,0.00030923329989034103
136,1.5494322776794434,1.5354677438735962,0.38461538461538464,0.8269230769230769,0.21428571428571427,0.8571428571428571,0.00027248368952908055
137,1.5590677857398987,1.5356624126434326,0.40384615384615385,0.8269230769230769,0.21428571428571427,0.8571428571428571,0.00023793236883495162
138,1.5801135897636414,1.5355263948440552,0.34615384615384615,0.8269230769230769,0.21428571428571427,0.8571428571428571,0.0002056134357900477
139,1.6220955848693848,1.5355851650238037,0.3269230769230769,0.8269230769230769,0.21428571428571427,0.8571428571428571,0.00017555878527937164
140,1.5582720637321472,1.5357383489608765,0.4423076923076923,0.8269230769230769,0.21428571428571427,0.8571428571428571,0.00014779807761443637
141,1.5920831561088562,1.535552740097046,0.38461538461538464,0.8269230769230769,0.21428571428571427,0.8571428571428571,0.00012235870926211617
142,1.5418984293937683,1.535623550415039,0.38461538461538464,0.8269230769230769,0.21428571428571427,0.8571428571428571,9.926578580764262e-05
143,1.5461970567703247,1.5356649160385132,0.4230769230769231,0.8269230769230769,0.21428571428571427,0.8571428571428571,7.854209717842258e-05
144,1.580695390701294,1.5358154773712158,0.40384615384615385,0.8269230769230769,0.21428571428571427,0.8571428571428571,6.0208095153131695e-05
145,1.645207166671753,1.5356314182281494,0.3076923076923077,0.8269230769230769,0.21428571428571427,0.8571428571428571,4.4281873178278196e-05
146,1.5653958916664124,1.5355720520019531,0.38461538461538464,0.8269230769230769,0.21428571428571427,0.8571428571428571,3.077914851215585e-05
147,1.5945170521736145,1.5356576442718506,0.25,0.8269230769230769,0.21428571428571427,0.8571428571428571,1.9713246713805587e-05
148,1.5587158203125,1.5355898141860962,0.46153846153846156,0.8269230769230769,0.21428571428571427,0.8571428571428571,1.109508849230001e-05
149,1.6119690537452698,1.5357146263122559,0.34615384615384615,0.8269230769230769,0.21428571428571427,0.8571428571428571,4.933178929321102e-06
150,1.5946859121322632,1.5356073379516602,0.34615384615384615,0.8269230769230769,0.21428571428571427,0.8571428571428571,1.233599085671e-06
151,1.6332831382751465,1.5389888286590576,0.2692307692307692,0.8269230769230769,0.21428571428571427,0.8571428571428571,0.005
152,1.5746851563453674,1.542320728302002,0.38461538461538464,0.8269230769230769,0.21428571428571427,0.8571428571428571,0.004999691581204151
153,1.578103244304657,1.5450762510299683,0.38461538461538464,0.8269230769230769,0.21428571428571427,0.8571428571428571,0.0049987664009143295
154,1.5603400468826294,1.5467522144317627,0.4423076923076923,0.8269230769230769,0.21428571428571427,0.8571428571428571,0.004997224687404925
155,1.6015584468841553,1.5481266975402832,0.34615384615384615,0.8269230769230769,0.21428571428571427,0.8571428571428571,0.004995066821070679
156,1.621904969215393,1.5489215850830078,0.2692307692307692,0.8269230769230769,0.21428571428571427,0.8571428571428571,0.00499229333433282
157,1.6188437938690186,1.5502678155899048,0.34615384615384615,0.8269230769230769,0.21428571428571427,0.8571428571428571,0.0049889049115077
158,1.5871973037719727,1.5511138439178467,0.4230769230769231,0.8269230769230769,0.21428571428571427,0.8571428571428571,0.004984902388637949
159,1.5843688249588013,1.550948143005371,0.3269230769230769,0.8269230769230769,0.21428571428571427,0.8571428571428571,0.004980286753286195
160,1.5737059712409973,1.5512266159057617,0.3269230769230769,0.8269230769230769,0.21428571428571427,0.8571428571428571,0.004975059144291394
161,1.5483601093292236,1.5498085021972656,0.28846153846153844,0.8269230769230769,0.21428571428571427,0.8571428571428571,0.0049692208514878445
162,1.6151549816131592,1.548663854598999,0.2692307692307692,0.8269230769230769,0.21428571428571427,0.8571428571428571,0.004962773315386935
163,1.6088748574256897,1.5474815368652344,0.3076923076923077,0.8269230769230769,0.21428571428571427,0.8571428571428571,0.004955718126821722
164,1.5269262194633484,1.5459322929382324,0.38461538461538464,0.8269230769230769,0.21428571428571427,0.8571428571428571,0.0049480570265544145
165,1.5714094042778015,1.5438618659973145,0.34615384615384615,0.8269230769230769,0.21428571428571427,0.8571428571428571,0.004939791904846869
166,1.5390104055404663,1.5418542623519897,0.38461538461538464,0.8269230769230769,0.21428571428571427,0.8571428571428571,0.004930924800994192
167,1.5865905284881592,1.5388290882110596,0.34615384615384615,0.8269230769230769,0.21428571428571427,0.8571428571428571,0.004921457902821578
168,1.6058326363563538,1.535954236984253,0.34615384615384615,0.8269230769230769,0.21428571428571427,0.8571428571428571,0.004911393546144495
169,1.6281868815422058,1.5344436168670654,0.38461538461538464,0.8269230769230769,0.21428571428571427,0.8571428571428571,0.004900734214192358
170,1.5381722450256348,1.53216552734375,0.36538461538461536,0.8269230769230769,0.21428571428571427,0.8571428571428571,0.004889482536995825
171,1.5615299344062805,1.5306198596954346,0.4230769230769231,0.8269230769230769,0.21428571428571427,0.8571428571428571,0.0048776412907378846
172,1.616572618484497,1.529056429862976,0.3269230769230769,0.8269230769230769,0.21428571428571427,0.8571428571428571,0.004865213397068863
173,1.554894208908081,1.5282636880874634,0.36538461538461536,0.8269230769230769,0.21428571428571427,0.8571428571428571,0.004852201922385564
174,1.644788920879364,1.5277085304260254,0.3076923076923077,0.8269230769230769,0.21428571428571427,0.8571428571428571,0.004838610077074669
175,1.6256362199783325,1.5286622047424316,0.3076923076923077,0.8269230769230769,0.21428571428571427,0.8571428571428571,0.004824441214720628
176,1.5511760711669922,1.5301859378814697,0.34615384615384615,0.8269230769230769,0.21428571428571427,0.8571428571428571,0.004809698831278217
177,1.592686653137207,1.5315017700195312,0.40384615384615385,0.8269230769230769,0.21428571428571427,0.8571428571428571,0.0047943865642099525
178,1.616039752960205,1.5344446897506714,0.34615384615384615,0.8269230769230769,0.21428571428571427,0.8571428571428571,0.004778508191588613
179,1.5467541217803955,1.5373976230621338,0.36538461538461536,0.8269230769230769,0.21428571428571427,0.8571428571428571,0.004762067631165049
180,1.5618187189102173,1.5392705202102661,0.2692307692307692,0.8269230769230769,0.21428571428571427,0.8571428571428571,0.004745068939401539
181,1.5899856090545654,1.5402753353118896,0.34615384615384615,0.8269230769230769,0.21428571428571427,0.8571428571428571,0.00472751631047092
182,1.6393630504608154,1.5416792631149292,0.28846153846153844,0.8269230769230769,0.21428571428571427,0.8571428571428571,0.004709414075221734
183,1.5726103782653809,1.543287754058838,0.3269230769230769,0.8269230769230769,0.21428571428571427,0.8571428571428571,0.0046907667001096585
184,1.600187599658966,1.5442442893981934,0.36538461538461536,0.8269230769230769,0.21428571428571427,0.8571428571428571,0.004671578786095479
185,1.5967503190040588,1.5450890064239502,0.36538461538461536,0.8269230769230769,0.21428571428571427,0.8571428571428571,0.0046518550675098596
186,1.5995637774467468,1.545953392982483,0.34615384615384615,0.8269230769230769,0.21428571428571427,0.8571428571428571,0.004631600410885231
187,1.583414912223816,1.546975016593933,0.28846153846153844,0.8269230769230769,0.21428571428571427,0.8571428571428571,0.004610819813755038
188,1.6019349694252014,1.5470020771026611,0.38461538461538464,0.8269230769230769,0.21428571428571427,0.8571428571428571,0.004589518403420676
189,1.5315756797790527,1.5471702814102173,0.38461538461538464,0.8269230769230769,0.21428571428571427,0.8571428571428571,0.004567701435686404
190,1.555118203163147,1.54666268825531,0.34615384615384615,0.8269230769230769,0.21428571428571427,0.8571428571428571,0.004545374293562558
191,1.559194028377533,1.546315312385559,0.38461538461538464,0.8269230769230769,0.21428571428571427,0.8571428571428571,0.0045225424859373685
192,1.590238869190216,1.5455501079559326,0.40384615384615385,0.8269230769230769,0.21428571428571427,0.8571428571428571,0.004499211646217727
193,1.5259405970573425,1.5457286834716797,0.40384615384615385,0.8269230769230769,0.21428571428571427,0.8571428571428571,0.0044753875309392266
194,1.5828310251235962,1.5467376708984375,0.38461538461538464,0.8269230769230769,0.21428571428571427,0.8571428571428571,0.004451076018345824
195,1.5566736459732056,1.5468376874923706,0.38461538461538464,0.8269230769230769,0.21428571428571427,0.8571428571428571,0.004426283106939473
196,1.5966567397117615,1.5482287406921387,0.40384615384615385,0.8269230769230769,0.21428571428571427,0.8571428571428571,0.004401014914000078
197,1.5214019417762756,1.549842357635498,0.4230769230769231,0.8269230769230769,0.21428571428571427,0.8571428571428571,0.004375277674076149
198,1.5250006914138794,1.5514897108078003,0.3269230769230769,0.8269230769230769,0.21428571428571427,0.8571428571428571,0.004349077737446524
199,1.5371317267417908,1.5527899265289307,0.4230769230769231,0.8269230769230769,0.21428571428571427,0.8571428571428571,0.004322421568553529
200,1.5196679830551147,1.5552315711975098,0.4230769230769231,0.8269230769230769,0.21428571428571427,0.8571428571428571,0.004295315744407973
201,1.6165567636489868,1.5567306280136108,0.36538461538461536,0.8269230769230769,0.21428571428571427,0.8571428571428571,0.004267766952966369
202,1.5918890237808228,1.5558512210845947,0.36538461538461536,0.8269230769230769,0.21428571428571427,0.8571428571428571,0.004239781991480785
203,1.544410228729248,1.5551286935806274,0.40384615384615385,0.8269230769230769,0.21428571428571427,0.8571428571428571,0.004211367764821722
204,1.5698354840278625,1.5538134574890137,0.38461538461538464,0.8269230769230769,0.21428571428571427,0.8571428571428571,0.004182531283774433
205,1.5795378684997559,1.5525894165039062,0.38461538461538464,0.8269230769230769,0.21428571428571427,0.8571428571428571,0.00415327966330913
206,1.603632390499115,1.5514566898345947,0.34615384615384615,0.8269230769230769,0.21428571428571427,0.8571428571428571,0.00412362012082546
207,1.5547931790351868,1.5500632524490356,0.34615384615384615,0.8269230769230769,0.21428571428571427,0.8571428571428571,0.004093559974371724
208,1.574345350265503,1.5486178398132324,0.40384615384615385,0.8269230769230769,0.21428571428571427,0.8571428571428571,0.004063106640839263
209,1.5632116794586182,1.5475140810012817,0.38461538461538464,0.8269230769230769,0.21428571428571427,0.8571428571428571,0.004032267634132442
210,1.5489075779914856,1.5467420816421509,0.40384615384615385,0.8269230769230769,0.21428571428571427,0.8571428571428571,0.004001050563314711
211,1.6238325834274292,1.5454928874969482,0.36538461538461536,0.8269230769230769,0.21428571428571427,0.8571428571428571,0.003969463130731183
212,1.5467936396598816,1.5446743965148926,0.4230769230769231,0.8269230769230769,0.21428571428571427,0.8571428571428571,0.003937513130108197
213,1.5441632866859436,1.5440044403076172,0.36538461538461536,0.8269230769230769,0.21428571428571427,0.8571428571428571,0.003905208444630327
214,1.5353754758834839,1.5428931713104248,0.36538461538461536,0.8269230769230769,0.21428571428571427,0.8571428571428571,0.0038725570449953295
215,1.5715382099151611,1.542203664779663,0.34615384615384615,0.8269230769230769,0.21428571428571427,0.8571428571428571,0.0038395669874474914
216,1.5786190032958984,1.5417295694351196,0.36538461538461536,0.8269230769230769,0.21428571428571427,0.8571428571428571,0.0038062464117898723
217,1.5507825016975403,1.5402799844741821,0.38461538461538464,0.8269230769230769,0.21428571428571427,0.8571428571428571,0.0037726035393759283
218,1.6031022667884827,1.5392568111419678,0.3269230769230769,0.8269230769230769,0.21428571428571427,0.8571428571428571,0.003738646671081019
219,1.5688130855560303,1.538407325744629,0.36538461538461536,0.8269230769230769,0.21428571428571427,0.8571428571428571,0.0037043841852542883
220,1.5733370184898376,1.5373125076293945,0.40384615384615385,0.8269230769230769,0.21428571428571427,0.8571428571428571,0.0036698245356514337
221,1.5834453105926514,1.5370397567749023,0.28846153846153844,0.8269230769230769,0.21428571428571427,0.8571428571428571,0.003634976249348867
222,1.575889229774475,1.535784363746643,0.40384615384615385,0.8269230769230769,0.21428571428571427,0.8571428571428571,0.0035998479246397877
223,1.5987668633460999,1.535076379776001,0.36538461538461536,0.8269230769230769,0.21428571428571427,0.8571428571428571,0.003564448228912682
224,1.5930408239364624,1.5348312854766846,0.36538461538461536,0.8269230769230769,0.21428571428571427,0.8571428571428571,0.0035287858965127724
225,1.564761996269226,1.5349551439285278,0.4230769230769231,0.8269230769230769,0.21428571428571427,0.8571428571428571,0.003492869726586951
226,1.5652081966400146,1.53510320186615,0.34615384615384615,0.8269230769230769,0.21428571428571427,0.8571428571428571,0.003456708580912725
227,1.5978315472602844,1.5349427461624146,0.25,0.8269230769230769,0.21428571428571427,0.8571428571428571,0.0034203113817116953
228,1.5977450013160706,1.5347976684570312,0.3269230769230769,0.8269230769230769,0.21428571428571427,0.8571428571428571,0.003383687109448143
229,1.5525941252708435,1.5344661474227905,0.38461538461538464,0.8269230769230769,0.21428571428571427,0.8571428571428571,0.0033468448006132292
230,1.5541180968284607,1.5341991186141968,0.36538461538461536,0.8269230769230769,0.21428571428571427,0.8571428571428571,0.003309793545495374
231,1.539559245109558,1.5334374904632568,0.3076923076923077,0.8269230769230769,0.21428571428571427,0.8571428571428571,0.0032725424859373687
232,1.5461915731430054,1.5331333875656128,0.40384615384615385,0.8269230769230769,0.21428571428571427,0.8571428571428571,0.00323510081308076
233,1.5461539030075073,1.5322459936141968,0.4230769230769231,0.8269230769230769,0.21428571428571427,0.8571428571428571,0.0031974777650980737
234,1.579362392425537,1.5314264297485352,0.40384615384615385,0.8269230769230769,0.21428571428571427,0.8571428571428571,0.003159682624913432
235,1.5602750778198242,1.5304895639419556,0.34615384615384615,0.8269230769230769,0.21428571428571427,0.8571428571428571,0.0031217247179121366
236,1.5425884127616882,1.5300896167755127,0.4230769230769231,0.8269230769230769,0.21428571428571427,0.8571428571428571,0.0030836134096397638
237,1.5722199082374573,1.5299298763275146,0.3076923076923077,0.8269230769230769,0.21428571428571427,0.8571428571428571,0.0030453581034913567
238,1.5578284859657288,1.5297560691833496,0.2692307692307692,0.8269230769230769,0.21428571428571427,0.8571428571428571,0.0030069682383912816
239,1.5724086165428162,1.5297499895095825,0.38461538461538464,0.8269230769230769,0.21428571428571427,0.8571428571428571,0.002968453286464312
240,1.5723631381988525,1.5296401977539062,0.36538461538461536,0.8269230769230769,0.21428571428571427,0.8571428571428571,0.0029298227506985236
241,1.5590324997901917,1.530437707901001,0.3269230769230769,0.8269230769230769,0.21428571428571427,0.8571428571428571,0.0028910861626005773
242,1.5403324961662292,1.5304185152053833,0.4230769230769231,0.8269230769230769,0.21428571428571427,0.8571428571428571,0.0028522530798439573
243,1.5398491621017456,1.531001091003418,0.3076923076923077,0.8269230769230769,0.21428571428571427,0.8571428571428571,0.002813333083910761
244,1.5324609875679016,1.5311086177825928,0.3269230769230769,0.8269230769230769,0.21428571428571427,0.8571428571428571,0.0027743357777276134
245,1.603588581085205,1.5307323932647705,0.3269230769230769,0.8269230769230769,0.21428571428571427,0.8571428571428571,0.002735270783296286
246,1.6171107292175293,1.5320093631744385,0.3076923076923077,0.8269230769230769,0.21428571428571427,0.8571428571428571,0.0026961477393196128
247,1.556527554988861,1.5321056842803955,0.38461538461538464,0.8269230769230769,0.21428571428571427,0.8571428571428571,0.0026569762988232835
248,1.5598254203796387,1.532582402229309,0.3269230769230769,0.8269230769230769,0.21428571428571427,0.8571428571428571,0.0026177661267741065
249,1.566034734249115,1.5326870679855347,0.4230769230769231,0.8269230769230769,0.21428571428571427,0.8571428571428571,0.0025785268976953207
250,1.5769273042678833,1.5338340997695923,0.3269230769230769,0.8269230769230769,0.21428571428571427,0.8571428571428571,0.002539268293279552
251,1.5689617991447449,1.5337814092636108,0.38461538461538464,0.8269230769230769,0.21428571428571427,0.8571428571428571,0.0025
252,1.5378124117851257,1.5341200828552246,0.36538461538461536,0.8269230769230769,0.21428571428571427,0.8571428571428571,0.002460731706720449
253,1.5787925720214844,1.5347111225128174,0.40384615384615385,0.8269230769230769,0.21428571428571427,0.8571428571428571,0.0024214731023046794
254,1.608243703842163,1.5348507165908813,0.36538461538461536,0.8269230769230769,0.21428571428571427,0.8571428571428571,0.0023822338732258936
255,1.5459439754486084,1.5347598791122437,0.4230769230769231,0.8269230769230769,0.21428571428571427,0.8571428571428571,0.0023430237011767166
256,1.5414131879806519,1.5347645282745361,0.36538461538461536,0.8269230769230769,0.21428571428571427,0.8571428571428571,0.002303852260680388
257,1.5668857097625732,1.5344438552856445,0.38461538461538464,0.8269230769230769,0.21428571428571427,0.8571428571428571,0.002264729216703714
258,1.5654979348182678,1.5343122482299805,0.38461538461538464,0.8269230769230769,0.21428571428571427,0.8571428571428571,0.0022256642222723867
259,1.5112515091896057,1.5341882705688477,0.38461538461538464,0.8269230769230769,0.21428571428571427,0.8571428571428571,0.0021866669160892395
260,1.5452911853790283,1.5337110757827759,0.3269230769230769,0.8269230769230769,0.21428571428571427,0.8571428571428571,0.002147746920156044
261,1.5693607330322266,1.5336148738861084,0.36538461538461536,0.8269230769230769,0.21428571428571427,0.8571428571428571,0.002108913837399423
262,1.5582576394081116,1.5337331295013428,0.40384615384615385,0.8269230769230769,0.21428571428571427,0.8571428571428571,0.002070177249301476
263,1.5487381219863892,1.533266544342041,0.3076923076923077,0.8269230769230769,0.21428571428571427,0.8571428571428571,0.0020315467135356884
264,1.5749918222427368,1.5334326028823853,0.36538461538461536,0.8269230769230769,0.21428571428571427,0.8571428571428571,0.001993031761608719
265,1.6524628400802612,1.53354012966156,0.38461538461538464,0.8269230769230769,0.21428571428571427,0.8571428571428571,0.0019546418965086442
266,1.5362911224365234,1.5337759256362915,0.3076923076923077,0.8269230769230769,0.21428571428571427,0.8571428571428571,0.0019163865903602361
267,1.6116136312484741,1.5336158275604248,0.3076923076923077,0.8269230769230769,0.21428571428571427,0.8571428571428571,0.0018782752820878628
268,1.5266724228858948,1.5342730283737183,0.34615384615384615,0.8269230769230769,0.21428571428571427,0.8571428571428571,0.0018403173750865679
269,1.5568440556526184,1.5341306924819946,0.34615384615384615,0.8269230769230769,0.21428571428571427,0.8571428571428571,0.001802522234901927
270,1.5737966299057007,1.5342259407043457,0.36538461538461536,0.8269230769230769,0.21428571428571427,0.8571428571428571,0.0017648991869192404
271,1.5528302192687988,1.5345344543457031,0.38461538461538464,0.8269230769230769,0.21428571428571427,0.8571428571428571,0.0017274575140626323
272,1.5047721862792969,1.5346848964691162,0.36538461538461536,0.8269230769230769,0.21428571428571427,0.8571428571428571,0.0016902064545046263
273,1.535658359527588,1.5346646308898926,0.38461538461538464,0.8269230769230769,0.21428571428571427,0.8571428571428571,0.0016531551993867715
274,1.5274375677108765,1.5352976322174072,0.36538461538461536,0.8269230769230769,0.21428571428571427,0.8571428571428571,0.0016163128905518577
275,1.5635181069374084,1.5355840921401978,0.36538461538461536,0.8269230769230769,0.21428571428571427,0.8571428571428571,0.0015796886182883059
276,1.5122210383415222,1.5349606275558472,0.36538461538461536,0.8269230769230769,0.21428571428571427,0.8571428571428571,0.0015432914190872762
277,1.5167085528373718,1.5351277589797974,0.36538461538461536,0.8269230769230769,0.21428571428571427,0.8571428571428571,0.0015071302734130482
278,1.5339804887771606,1.535210371017456,0.36538461538461536,0.8269230769230769,0.21428571428571427,0.8571428571428571,0.001471214103487228
279,1.5530707240104675,1.5354470014572144,0.36538461538461536,0.8269230769230769,0.21428571428571427,0.8571428571428571,0.0014355517710873183
280,1.5741403698921204,1.5350680351257324,0.36538461538461536,0.8269230769230769,0.21428571428571427,0.8571428571428571,0.001400152075360212
281,1.5707961320877075,1.5352931022644043,0.36538461538461536,0.8269230769230769,0.21428571428571427,0.8571428571428571,0.0013650237506511332
282,1.5647713541984558,1.5351616144180298,0.36538461538461536,0.8269230769230769,0.21428571428571427,0.8571428571428571,0.001330175464348567
283,1.5746116638183594,1.5350468158721924,0.36538461538461536,0.8269230769230769,0.21428571428571427,0.8571428571428571,0.0012956158147457114
284,1.5945777297019958,1.5353825092315674,0.36538461538461536,0.8269230769230769,0.21428571428571427,0.8571428571428571,0.001261353328918981
285,1.5481194257736206,1.5352671146392822,0.36538461538461536,0.8269230769230769,0.21428571428571427,0.8571428571428571,0.0012273964606240718
286,1.5653213858604431,1.535180687904358,0.36538461538461536,0.8269230769230769,0.21428571428571427,0.8571428571428571,0.001193753588210128
287,1.5495431423187256,1.5353626012802124,0.36538461538461536,0.8269230769230769,0.21428571428571427,0.8571428571428571,0.0011604330125525079
288,1.5536110401153564,1.5353960990905762,0.36538461538461536,0.8269230769230769,0.21428571428571427,0.8571428571428571,0.0011274429550046702
289,1.5199693441390991,1.535589337348938,0.36538461538461536,0.8269230769230769,0.21428571428571427,0.8571428571428571,0.0010947915553696733
290,1.526089608669281,1.5349751710891724,0.36538461538461536,0.8269230769230769,0.21428571428571427,0.8571428571428571,0.0010624868698918036
291,1.619627594947815,1.53513503074646,0.36538461538461536,0.8269230769230769,0.21428571428571427,0.8571428571428571,0.0010305368692688174
292,1.5330749154090881,1.5350754261016846,0.36538461538461536,0.8269230769230769,0.21428571428571427,0.8571428571428571,0.0009989494366852902
293,1.5689831376075745,1.5350826978683472,0.36538461538461536,0.8269230769230769,0.21428571428571427,0.8571428571428571,0.0009677323658675585
294,1.5921574234962463,1.5352435111999512,0.36538461538461536,0.8269230769230769,0.21428571428571427,0.8571428571428571,0.000936893359160737
295,1.6066805124282837,1.5348658561706543,0.36538461538461536,0.8269230769230769,0.21428571428571427,0.8571428571428571,0.0009064400256282757
296,1.5425923466682434,1.5346434116363525,0.36538461538461536,0.8269230769230769,0.21428571428571427,0.8571428571428571,0.0008763798791745412
297,1.5563719868659973,1.5345484018325806,0.36538461538461536,0.8269230769230769,0.21428571428571427,0.8571428571428571,0.0008467203366908707
298,1.567823588848114,1.5340019464492798,0.36538461538461536,0.8269230769230769,0.21428571428571427,0.8571428571428571,0.0008174687162255665
299,1.5353034734725952,1.5345714092254639,0.36538461538461536,0.8269230769230769,0.21428571428571427,0.8571428571428571,0.0007886322351782782
300,1.577187180519104,1.5342046022415161,0.36538461538461536,0.8269230769230769,0.21428571428571427,0.8571428571428571,0.0007602180085192142
301,1.5421287417411804,1.533846378326416,0.36538461538461536,0.8269230769230769,0.21428571428571427,0.8571428571428571,0.0007322330470336313
302,1.5801761746406555,1.5341811180114746,0.36538461538461536,0.8269230769230769,0.21428571428571427,0.8571428571428571,0.0007046842555920282
303,1.563898503780365,1.5338060855865479,0.36538461538461536,0.8269230769230769,0.21428571428571427,0.8571428571428571,0.0006775784314464717
304,1.550188660621643,1.5338172912597656,0.36538461538461536,0.8269230769230769,0.21428571428571427,0.8571428571428571,0.0006509222625534758
305,1.4968653321266174,1.5337092876434326,0.36538461538461536,0.8269230769230769,0.21428571428571427,0.8571428571428571,0.0006247223259238514
306,1.5813022255897522,1.5334901809692383,0.36538461538461536,0.8269230769230769,0.21428571428571427,0.8571428571428571,0.0005989850859999227
307,1.5602917671203613,1.5335447788238525,0.36538461538461536,0.8269230769230769,0.21428571428571427,0.8571428571428571,0.0005737168930605272
308,1.5644842982292175,1.5339608192443848,0.36538461538461536,0.8269230769230769,0.21428571428571427,0.8571428571428571,0.000548923981654176
309,1.5934154391288757,1.5340075492858887,0.36538461538461536,0.8269230769230769,0.21428571428571427,0.8571428571428571,0.000524612469060774
310,1.579933524131775,1.533876657485962,0.36538461538461536,0.8269230769230769,0.21428571428571427,0.8571428571428571,0.0005007883537822738
311,1.5942221283912659,1.5340101718902588,0.36538461538461536,0.8269230769230769,0.21428571428571427,0.8571428571428571,0.00047745751406263163
312,1.525517225265503,1.5338530540466309,0.36538461538461536,0.8269230769230769,0.21428571428571427,0.8571428571428571,0.00045462570643744175
313,1.5386382341384888,1.5338832139968872,0.36538461538461536,0.8269230769230769,0.21428571428571427,0.8571428571428571,0.000432298564313596
314,1.5757567286491394,1.5340664386749268,0.36538461538461536,0.8269230769230769,0.21428571428571427,0.8571428571428571,0.00041048159657932487
315,1.5395604372024536,1.5338155031204224,0.36538461538461536,0.8269230769230769,0.21428571428571427,0.8571428571428571,0.00038918018624496285
316,1.5501428842544556,1.5342326164245605,0.36538461538461536,0.8269230769230769,0.21428571428571427,0.8571428571428571,0.00036839958911477014
317,1.575499713420868,1.5342856645584106,0.36538461538461536,0.8269230769230769,0.21428571428571427,0.8571428571428571,0.0003481449324901406
318,1.5335775017738342,1.5340969562530518,0.36538461538461536,0.8269230769230769,0.21428571428571427,0.8571428571428571,0.0003284212139045217
319,1.5718774795532227,1.5342695713043213,0.36538461538461536,0.8269230769230769,0.21428571428571427,0.8571428571428571,0.00030923329989034103
320,1.5714004635810852,1.5347501039505005,0.36538461538461536,0.8269230769230769,0.21428571428571427,0.8571428571428571,0.00029058592477826633
321,1.5789607763290405,1.5343462228775024,0.36538461538461536,0.8269230769230769,0.21428571428571427,0.8571428571428571,0.00027248368952908055
322,1.5812867879867554,1.5343226194381714,0.36538461538461536,0.8269230769230769,0.21428571428571427,0.8571428571428571,0.00025493106059846116
323,1.502975881099701,1.5342768430709839,0.36538461538461536,0.8269230769230769,0.21428571428571427,0.8571428571428571,0.00023793236883495162
324,1.5836302042007446,1.5344434976577759,0.36538461538461536,0.8269230769230769,0.21428571428571427,0.8571428571428571,0.00022149180841138732
325,1.5712663531303406,1.5347020626068115,0.36538461538461536,0.8269230769230769,0.21428571428571427,0.8571428571428571,0.0002056134357900477
326,1.5545865893363953,1.5341696739196777,0.36538461538461536,0.8269230769230769,0.21428571428571427,0.8571428571428571,0.0001903011687217837
327,1.5827398896217346,1.53438401222229,0.36538461538461536,0.8269230769230769,0.21428571428571427,0.8571428571428571,0.00017555878527937164
328,1.5390716791152954,1.5345368385314941,0.36538461538461536,0.8269230769230769,0.21428571428571427,0.8571428571428571,0.00016138992292533155
329,1.5751632452011108,1.5343494415283203,0.36538461538461536,0.8269230769230769,0.21428571428571427,0.8571428571428571,0.00014779807761443637
330,1.5529158115386963,1.5343495607376099,0.36538461538461536,0.8269230769230769,0.21428571428571427,0.8571428571428571,0.00013478660293113676
331,1.5734385251998901,1.5345287322998047,0.36538461538461536,0.8269230769230769,0.21428571428571427,0.8571428571428571,0.00012235870926211617
332,1.5633049011230469,1.5343409776687622,0.36538461538461536,0.8269230769230769,0.21428571428571427,0.8571428571428571,0.0001105174630041747
333,1.5774508714675903,1.5345478057861328,0.36538461538461536,0.8269230769230769,0.21428571428571427,0.8571428571428571,9.926578580764262e-05
334,1.5648465156555176,1.5348427295684814,0.36538461538461536,0.8269230769230769,0.21428571428571427,0.8571428571428571,8.860645385550508e-05
335,1.5788745284080505,1.5345759391784668,0.36538461538461536,0.8269230769230769,0.21428571428571427,0.8571428571428571,7.854209717842258e-05
336,1.5767117142677307,1.534703254699707,0.36538461538461536,0.8269230769230769,0.21428571428571427,0.8571428571428571,6.90751990058086e-05
337,1.6273165941238403,1.5347447395324707,0.36538461538461536,0.8269230769230769,0.21428571428571427,0.8571428571428571,6.0208095153131695e-05
338,1.5143502354621887,1.534487247467041,0.36538461538461536,0.8269230769230769,0.21428571428571427,0.8571428571428571,5.194297344558535e-05
339,1.5614984631538391,1.5348824262619019,0.36538461538461536,0.8269230769230769,0.21428571428571427,0.8571428571428571,4.4281873178278196e-05
340,1.5409774780273438,1.5346229076385498,0.36538461538461536,0.8269230769230769,0.21428571428571427,0.8571428571428571,3.7226684613065334e-05
341,1.6042637825012207,1.534712314605713,0.36538461538461536,0.8269230769230769,0.21428571428571427,0.8571428571428571,3.077914851215585e-05
342,1.5690292716026306,1.534679889678955,0.36538461538461536,0.8269230769230769,0.21428571428571427,0.8571428571428571,2.4940855708606158e-05
343,1.6006820797920227,1.534501314163208,0.36538461538461536,0.8269230769230769,0.21428571428571427,0.8571428571428571,1.9713246713805587e-05
344,1.546334981918335,1.534828543663025,0.36538461538461536,0.8269230769230769,0.21428571428571427,0.8571428571428571,1.5097611362051012e-05
345,1.5401225090026855,1.5346968173980713,0.36538461538461536,0.8269230769230769,0.21428571428571427,0.8571428571428571,1.109508849230001e-05
346,1.5989396572113037,1.5347989797592163,0.36538461538461536,0.8269230769230769,0.21428571428571427,0.8571428571428571,7.70666566718009e-06
347,1.5583459734916687,1.535064458847046,0.36538461538461536,0.8269230769230769,0.21428571428571427,0.8571428571428571,4.933178929321102e-06
348,1.5514867305755615,1.534621000289917,0.36538461538461536,0.8269230769230769,0.21428571428571427,0.8571428571428571,2.775312595075241e-06
349,1.560508668422699,1.534964919090271,0.36538461538461536,0.8269230769230769,0.21428571428571427,0.8571428571428571,1.233599085671e-06
350,1.550290822982788,1.5344631671905518,0.36538461538461536,0.8269230769230769,0.21428571428571427,0.8571428571428571,3.0841879584853074e-07
