epoch,train_loss,val_loss,train_acc_action,train_acc_status,val_acc_action,val_acc_status,learning_rate
1,1.729552447795868,1.5042624473571777,0.3269230769230769,0.6923076923076923,0.5714285714285714,0.8571428571428571,0.0004
2,1.5588189959526062,1.5342442989349365,0.4230769230769231,0.8269230769230769,0.2857142857142857,0.8571428571428571,0.0004
3,1.5096179246902466,1.4707274436950684,0.40384615384615385,0.8269230769230769,0.5,0.8571428571428571,0.0004
4,1.3897238969802856,1.5683029890060425,0.5384615384615384,0.8269230769230769,0.42857142857142855,0.8571428571428571,0.0004
5,1.466491937637329,1.4493653774261475,0.5,0.8269230769230769,0.5,0.8571428571428571,0.0004
6,1.3912506699562073,1.5813652276992798,0.5384615384615384,0.8269230769230769,0.2857142857142857,0.8571428571428571,0.0004
7,1.331345558166504,1.379400610923767,0.5384615384615384,0.8269230769230769,0.42857142857142855,0.8571428571428571,0.0004
8,1.2491530179977417,1.3904743194580078,0.6346153846153846,0.8269230769230769,0.42857142857142855,0.8571428571428571,0.0004
9,1.3557990193367004,1.313835620880127,0.5769230769230769,0.8269230769230769,0.5,0.8571428571428571,0.0004
10,1.2774178385734558,1.3667891025543213,0.5769230769230769,0.8269230769230769,0.5714285714285714,0.8571428571428571,0.0004
11,1.3206284046173096,1.4889870882034302,0.5961538461538461,0.8269230769230769,0.42857142857142855,0.8571428571428571,0.0004
12,1.2946311831474304,1.3405485153198242,0.5576923076923077,0.8269230769230769,0.6428571428571429,0.8571428571428571,0.0004
13,1.2526839971542358,1.326104760169983,0.5961538461538461,0.8269230769230769,0.5,0.8571428571428571,0.0004
14,1.243190348148346,1.5510185956954956,0.5769230769230769,0.8269230769230769,0.42857142857142855,0.8571428571428571,0.0004
15,1.26890629529953,1.4216394424438477,0.6153846153846154,0.8269230769230769,0.5,0.8571428571428571,0.0004
16,1.2729796767234802,1.1390191316604614,0.6153846153846154,0.8269230769230769,0.6428571428571429,0.8571428571428571,0.0004
17,1.2770293354988098,1.4054049253463745,0.6153846153846154,0.8269230769230769,0.35714285714285715,0.8571428571428571,0.0004
18,1.3959726691246033,1.5551986694335938,0.5384615384615384,0.8269230769230769,0.42857142857142855,0.8571428571428571,0.0004
19,1.159310519695282,1.4427516460418701,0.6538461538461539,0.8269230769230769,0.5714285714285714,0.8571428571428571,0.0004
20,1.3150086402893066,1.3871798515319824,0.6538461538461539,0.8269230769230769,0.5714285714285714,0.8571428571428571,0.0004
21,1.2645818591117859,1.3168463706970215,0.5576923076923077,0.8269230769230769,0.5,0.8571428571428571,0.0004
22,1.3665083646774292,1.3873703479766846,0.5384615384615384,0.8269230769230769,0.5,0.8571428571428571,0.0004
23,1.3045875430107117,1.2678658962249756,0.5384615384615384,0.8269230769230769,0.5,0.8571428571428571,0.0004
24,1.2136890888214111,1.5515494346618652,0.5769230769230769,0.8269230769230769,0.35714285714285715,0.8571428571428571,0.0004
25,1.336391806602478,1.333972692489624,0.5192307692307693,0.8269230769230769,0.5,0.8571428571428571,0.0004
26,1.1411287784576416,1.2875733375549316,0.5576923076923077,0.8269230769230769,0.6428571428571429,0.8571428571428571,0.0004
27,1.2761224508285522,1.3312911987304688,0.5769230769230769,0.8269230769230769,0.5,0.8571428571428571,0.0004
28,1.254288136959076,1.2158453464508057,0.6346153846153846,0.8269230769230769,0.5714285714285714,0.8571428571428571,0.0004
29,1.3799651861190796,1.2893173694610596,0.5769230769230769,0.8269230769230769,0.5714285714285714,0.8571428571428571,0.0004
30,1.1414368152618408,1.1149991750717163,0.6730769230769231,0.8269230769230769,0.7142857142857143,0.8571428571428571,0.0004
31,1.2253267765045166,1.420878291130066,0.5961538461538461,0.8269230769230769,0.35714285714285715,0.8571428571428571,0.0004
32,1.1871986985206604,1.464738368988037,0.6153846153846154,0.8269230769230769,0.5714285714285714,0.8571428571428571,0.0004
33,1.2923910021781921,1.1854405403137207,0.5192307692307693,0.8269230769230769,0.6428571428571429,0.8571428571428571,0.0004
34,1.1684929728507996,1.534534215927124,0.6153846153846154,0.8269230769230769,0.42857142857142855,0.8571428571428571,0.0004
35,1.3785154819488525,1.4198896884918213,0.6346153846153846,0.8269230769230769,0.5,0.8571428571428571,0.0004
36,1.190330684185028,1.414003610610962,0.6730769230769231,0.8269230769230769,0.5714285714285714,0.8571428571428571,0.0004
37,1.2590957880020142,1.2139897346496582,0.5769230769230769,0.8269230769230769,0.5714285714285714,0.8571428571428571,0.0004
38,1.2500035762786865,1.1433509588241577,0.5961538461538461,0.8269230769230769,0.5714285714285714,0.8571428571428571,0.0004
39,1.2161158323287964,1.5416513681411743,0.5961538461538461,0.8269230769230769,0.42857142857142855,0.8571428571428571,0.0004
40,1.1610338687896729,1.4645488262176514,0.5961538461538461,0.8269230769230769,0.5,0.8571428571428571,0.0004
41,1.221150517463684,1.1941888332366943,0.5192307692307693,0.8269230769230769,0.42857142857142855,0.8571428571428571,0.0004
42,1.1050370335578918,1.247739553451538,0.6153846153846154,0.8269230769230769,0.5,0.8571428571428571,0.0004
43,1.2446069121360779,1.1481953859329224,0.6153846153846154,0.8269230769230769,0.5714285714285714,0.8571428571428571,0.0004
44,1.2403910756111145,1.4304251670837402,0.5384615384615384,0.8269230769230769,0.42857142857142855,0.8571428571428571,0.0004
45,1.1473324298858643,1.2110276222229004,0.7115384615384616,0.8269230769230769,0.6428571428571429,0.8571428571428571,0.0004
46,1.1419146656990051,1.2969472408294678,0.6730769230769231,0.8269230769230769,0.5714285714285714,0.8571428571428571,0.0004
47,1.2384038865566254,1.2707903385162354,0.5384615384615384,0.8269230769230769,0.5714285714285714,0.8571428571428571,0.0004
48,1.1018549799919128,1.3453810214996338,0.6346153846153846,0.8269230769230769,0.5,0.8571428571428571,0.0004
49,1.1132544875144958,1.2662534713745117,0.6538461538461539,0.8269230769230769,0.5714285714285714,0.8571428571428571,0.0004
50,1.229939877986908,1.4732699394226074,0.5576923076923077,0.8269230769230769,0.42857142857142855,0.8571428571428571,0.0004
51,1.114285945892334,1.551410436630249,0.6730769230769231,0.8269230769230769,0.35714285714285715,0.8571428571428571,0.0004
52,1.3792355060577393,1.368321180343628,0.5769230769230769,0.8269230769230769,0.5714285714285714,0.8571428571428571,0.0004
53,1.2077513933181763,1.4457544088363647,0.6346153846153846,0.8269230769230769,0.5,0.8571428571428571,0.0004
54,1.2357184886932373,1.5406608581542969,0.5576923076923077,0.8269230769230769,0.2857142857142857,0.8571428571428571,0.0004
55,1.242101013660431,1.2308043241500854,0.5192307692307693,0.8269230769230769,0.5714285714285714,0.8571428571428571,0.0004
56,1.0785599946975708,1.0804147720336914,0.6923076923076923,0.8269230769230769,0.6428571428571429,0.8571428571428571,0.0004
57,1.2326871752738953,1.5967319011688232,0.5769230769230769,0.8269230769230769,0.2857142857142857,0.8571428571428571,0.0004
58,1.1856942772865295,1.3171502351760864,0.6153846153846154,0.8269230769230769,0.5,0.8571428571428571,0.0004
59,1.0358425974845886,1.4235332012176514,0.6538461538461539,0.8269230769230769,0.35714285714285715,0.8571428571428571,0.0004
60,1.186301589012146,1.4145845174789429,0.5961538461538461,0.8269230769230769,0.42857142857142855,0.8571428571428571,0.0004
61,1.2089035511016846,1.3269398212432861,0.6153846153846154,0.8269230769230769,0.5,0.8571428571428571,0.0004
62,1.1503012776374817,1.2740919589996338,0.6923076923076923,0.8269230769230769,0.5,0.8571428571428571,0.0004
63,1.292661190032959,1.484015941619873,0.5384615384615384,0.8269230769230769,0.35714285714285715,0.8571428571428571,0.0004
64,1.222071647644043,1.5016109943389893,0.5961538461538461,0.8269230769230769,0.42857142857142855,0.8571428571428571,0.0004
65,1.2093260288238525,1.272657871246338,0.6923076923076923,0.8269230769230769,0.5,0.8571428571428571,0.0004
66,1.2039316296577454,1.3650007247924805,0.5769230769230769,0.8269230769230769,0.42857142857142855,0.8571428571428571,0.0004
67,1.33412504196167,1.3921035528182983,0.5576923076923077,0.8269230769230769,0.5714285714285714,0.8571428571428571,0.0004
68,1.202280044555664,1.7603950500488281,0.6153846153846154,0.8461538461538461,0.2857142857142857,0.7857142857142857,0.0004
69,0.9844366312026978,1.7170026302337646,0.6923076923076923,0.8461538461538461,0.2857142857142857,0.6428571428571429,0.0004
70,1.2467830181121826,1.4091964960098267,0.5769230769230769,0.8846153846153846,0.5,0.7142857142857143,0.0004
71,1.1706290245056152,1.3516842126846313,0.6730769230769231,0.8269230769230769,0.42857142857142855,0.6428571428571429,0.0004
72,1.1648287177085876,1.3364694118499756,0.6153846153846154,0.8076923076923077,0.5714285714285714,0.6428571428571429,0.0004
73,1.287672996520996,1.4611799716949463,0.5769230769230769,0.8076923076923077,0.6428571428571429,0.6428571428571429,0.0004
74,1.1657662391662598,1.44339919090271,0.5961538461538461,0.8076923076923077,0.5714285714285714,0.6428571428571429,0.0004
75,1.3941107988357544,1.5462543964385986,0.5576923076923077,0.7884615384615384,0.42857142857142855,0.6428571428571429,0.0004
76,1.1821065545082092,1.4648940563201904,0.6153846153846154,0.8653846153846154,0.2857142857142857,0.7142857142857143,0.0004
77,1.0729636549949646,1.2604866027832031,0.7115384615384616,0.7692307692307693,0.5,0.7857142857142857,0.0004
78,1.2172566652297974,1.2118167877197266,0.5961538461538461,0.8461538461538461,0.5,0.8571428571428571,0.0004
79,1.177419364452362,1.4303712844848633,0.6538461538461539,0.8269230769230769,0.5,0.8571428571428571,0.0004
80,1.1946189403533936,1.406620979309082,0.6153846153846154,0.8269230769230769,0.5,0.8571428571428571,0.0004
81,1.2125279903411865,1.3936843872070312,0.5961538461538461,0.8269230769230769,0.42857142857142855,0.8571428571428571,0.0004
82,1.2595503330230713,1.162757396697998,0.6346153846153846,0.8269230769230769,0.5714285714285714,0.8571428571428571,0.0004
83,1.1847251653671265,1.381751537322998,0.5769230769230769,0.8269230769230769,0.42857142857142855,0.8571428571428571,0.0004
84,1.0638877153396606,1.3760464191436768,0.6153846153846154,0.8269230769230769,0.42857142857142855,0.8571428571428571,0.0004
85,1.1284737586975098,1.3664993047714233,0.6923076923076923,0.8076923076923077,0.42857142857142855,0.8571428571428571,0.0004
86,1.1273415088653564,1.38759183883667,0.6538461538461539,0.8076923076923077,0.5,0.8571428571428571,0.0004
87,1.070371687412262,1.4699277877807617,0.5961538461538461,0.8269230769230769,0.5,0.8571428571428571,0.0004
88,1.0711175203323364,1.5254631042480469,0.6923076923076923,0.8269230769230769,0.42857142857142855,0.8571428571428571,0.0004
89,1.1166619062423706,1.3637138605117798,0.6538461538461539,0.8269230769230769,0.5,0.8571428571428571,0.0004
90,1.2734836339950562,1.3530560731887817,0.5576923076923077,0.8269230769230769,0.5,0.8571428571428571,0.0004
91,1.2720394134521484,1.2008700370788574,0.6153846153846154,0.8269230769230769,0.5,0.8571428571428571,0.0004
92,1.0956194996833801,1.38728928565979,0.6153846153846154,0.8269230769230769,0.5,0.8571428571428571,0.0004
93,1.14820596575737,1.3028382062911987,0.6346153846153846,0.8461538461538461,0.5714285714285714,0.8571428571428571,0.0004
94,1.0112126767635345,1.5989493131637573,0.6346153846153846,0.8269230769230769,0.35714285714285715,0.8571428571428571,0.0004
95,1.0978715419769287,1.2561044692993164,0.6923076923076923,0.8269230769230769,0.5,0.8571428571428571,0.0004
96,1.2958687543869019,1.3052644729614258,0.5192307692307693,0.8461538461538461,0.42857142857142855,0.8571428571428571,0.0004
97,1.13264662027359,1.5998139381408691,0.5961538461538461,0.8269230769230769,0.35714285714285715,0.7857142857142857,0.0004
98,1.1238631010055542,1.420241117477417,0.6730769230769231,0.8076923076923077,0.5,0.7857142857142857,0.0004
99,1.1117541790008545,1.7381302118301392,0.6153846153846154,0.8269230769230769,0.35714285714285715,0.7857142857142857,0.0004
100,1.1023661494255066,1.5618665218353271,0.7115384615384616,0.7884615384615384,0.42857142857142855,0.6428571428571429,0.0004
101,1.2806605100631714,1.6285139322280884,0.5961538461538461,0.7884615384615384,0.35714285714285715,0.7857142857142857,0.0004
102,1.1508122086524963,1.255974531173706,0.5961538461538461,0.8076923076923077,0.5,0.8571428571428571,0.0004
103,1.0429943203926086,1.51524019241333,0.6730769230769231,0.8653846153846154,0.35714285714285715,0.8571428571428571,0.0004
104,1.0173315703868866,1.2881176471710205,0.7307692307692307,0.8269230769230769,0.42857142857142855,0.8571428571428571,0.0004
105,1.3118951916694641,1.3105412721633911,0.6730769230769231,0.8269230769230769,0.42857142857142855,0.8571428571428571,0.0004
106,1.3650741577148438,1.1912504434585571,0.6346153846153846,0.8269230769230769,0.6428571428571429,0.8571428571428571,0.0004
107,1.246117353439331,1.424709677696228,0.5961538461538461,0.8269230769230769,0.5,0.8571428571428571,0.0004
108,1.0961793065071106,1.7336634397506714,0.6538461538461539,0.8269230769230769,0.35714285714285715,0.8571428571428571,0.0004
109,1.2653979063034058,1.181891679763794,0.6346153846153846,0.8269230769230769,0.6428571428571429,0.8571428571428571,0.0004
110,1.3549081087112427,1.3865565061569214,0.5769230769230769,0.8269230769230769,0.2857142857142857,0.8571428571428571,0.0004
111,1.140746533870697,1.3903961181640625,0.5961538461538461,0.8269230769230769,0.5,0.8571428571428571,0.0004
112,1.2055753469467163,1.5167570114135742,0.6153846153846154,0.8269230769230769,0.42857142857142855,0.8571428571428571,0.0004
113,1.2961692810058594,1.4848437309265137,0.46153846153846156,0.8269230769230769,0.35714285714285715,0.8571428571428571,0.0004
114,1.1827935576438904,1.4159018993377686,0.6346153846153846,0.8269230769230769,0.35714285714285715,0.8571428571428571,0.0004
115,1.1431038975715637,1.4734536409378052,0.5192307692307693,0.8269230769230769,0.5,0.8571428571428571,0.0004
116,1.2694288492202759,1.5309863090515137,0.5961538461538461,0.8269230769230769,0.42857142857142855,0.8571428571428571,0.0004
117,1.0586130619049072,1.531505823135376,0.7307692307692307,0.8269230769230769,0.2857142857142857,0.8571428571428571,0.0004
118,1.2960325479507446,1.4129407405853271,0.5384615384615384,0.8269230769230769,0.42857142857142855,0.8571428571428571,0.0004
119,1.0886808037757874,1.8087514638900757,0.6153846153846154,0.8269230769230769,0.2857142857142857,0.8571428571428571,0.0004
120,1.2805574536323547,1.4738956689834595,0.5769230769230769,0.8269230769230769,0.5,0.8571428571428571,0.0004
121,1.25912606716156,1.4334347248077393,0.6538461538461539,0.8269230769230769,0.5,0.8571428571428571,0.0004
122,1.1240427494049072,1.0904814004898071,0.5769230769230769,0.8269230769230769,0.6428571428571429,0.8571428571428571,0.0004
123,1.1582534313201904,1.3710551261901855,0.6153846153846154,0.8461538461538461,0.5714285714285714,0.8571428571428571,0.0004
124,1.271300733089447,1.174407958984375,0.5576923076923077,0.8461538461538461,0.7142857142857143,0.8571428571428571,0.0004
125,1.3413290977478027,1.4737311601638794,0.5384615384615384,0.8269230769230769,0.42857142857142855,0.8571428571428571,0.0004
126,1.1431269645690918,1.292804479598999,0.5961538461538461,0.8269230769230769,0.6428571428571429,0.8571428571428571,0.0004
127,1.1116125583648682,1.1776728630065918,0.5961538461538461,0.8269230769230769,0.6428571428571429,0.8571428571428571,0.0004
128,1.234040081501007,1.2070364952087402,0.5192307692307693,0.8269230769230769,0.5714285714285714,0.8571428571428571,0.0004
129,1.3267815113067627,1.2575976848602295,0.6153846153846154,0.8269230769230769,0.42857142857142855,0.8571428571428571,0.0004
130,1.1819584369659424,1.5280753374099731,0.6153846153846154,0.8269230769230769,0.42857142857142855,0.6428571428571429,0.0004
131,1.036959946155548,1.4033203125,0.6538461538461539,0.8461538461538461,0.35714285714285715,0.7857142857142857,0.0004
132,1.2250920534133911,1.4142335653305054,0.6730769230769231,0.7884615384615384,0.5,0.6428571428571429,0.0004
133,1.0691902935504913,1.3271667957305908,0.6923076923076923,0.8653846153846154,0.5,0.7142857142857143,0.0004
134,1.4868674278259277,1.5082125663757324,0.5384615384615384,0.7884615384615384,0.42857142857142855,0.5714285714285714,0.0004
135,1.139340877532959,1.6470794677734375,0.5961538461538461,0.8653846153846154,0.2857142857142857,0.7857142857142857,0.0004
136,1.1879965662956238,1.3105146884918213,0.6153846153846154,0.8076923076923077,0.5714285714285714,0.6428571428571429,0.0004
137,1.2102227807044983,1.4531114101409912,0.5961538461538461,0.8269230769230769,0.5,0.6428571428571429,0.0004
138,1.3591442704200745,1.427394151687622,0.4807692307692308,0.8653846153846154,0.6428571428571429,0.6428571428571429,0.0004
139,1.1620466113090515,1.6312586069107056,0.5769230769230769,0.8076923076923077,0.5,0.5714285714285714,0.0004
140,1.17897367477417,1.4506170749664307,0.6538461538461539,0.8269230769230769,0.5,0.5714285714285714,0.0004
141,1.191985845565796,1.5671703815460205,0.6153846153846154,0.8076923076923077,0.42857142857142855,0.5714285714285714,0.0004
142,1.2312279343605042,1.2721331119537354,0.6346153846153846,0.7307692307692307,0.5714285714285714,0.5714285714285714,0.0004
143,1.3771877884864807,1.6909077167510986,0.5769230769230769,0.75,0.42857142857142855,0.6428571428571429,0.0004
144,1.145201861858368,1.3033971786499023,0.6538461538461539,0.8653846153846154,0.5714285714285714,0.7142857142857143,0.0004
145,1.2227389216423035,1.46010160446167,0.5961538461538461,0.8076923076923077,0.5,0.8571428571428571,0.0004
146,1.2725359797477722,1.2362310886383057,0.5961538461538461,0.8269230769230769,0.5,0.8571428571428571,0.0004
147,1.2642806768417358,1.7139360904693604,0.5769230769230769,0.8269230769230769,0.2857142857142857,0.8571428571428571,0.0004
148,1.1659770905971527,1.4419574737548828,0.6730769230769231,0.8269230769230769,0.35714285714285715,0.8571428571428571,0.0004
149,1.1994940638542175,1.044891595840454,0.6346153846153846,0.8269230769230769,0.5714285714285714,0.8571428571428571,0.0004
150,1.1843698024749756,1.3489607572555542,0.5576923076923077,0.8269230769230769,0.42857142857142855,0.8571428571428571,0.0004
151,1.3356126546859741,1.1022155284881592,0.5769230769230769,0.8269230769230769,0.7142857142857143,0.8571428571428571,0.0004
152,1.316303014755249,1.2008166313171387,0.46153846153846156,0.8269230769230769,0.5714285714285714,0.8571428571428571,0.0004
153,1.154976725578308,1.3496350049972534,0.6153846153846154,0.8269230769230769,0.2857142857142857,0.8571428571428571,0.0004
154,1.1376853585243225,1.2400691509246826,0.5769230769230769,0.8269230769230769,0.5714285714285714,0.8571428571428571,0.0004
155,1.0447871685028076,1.401540994644165,0.5961538461538461,0.8269230769230769,0.5,0.8571428571428571,0.0004
156,1.2586088180541992,1.2805471420288086,0.6153846153846154,0.8269230769230769,0.35714285714285715,0.8571428571428571,0.0004
157,1.097372591495514,1.5000267028808594,0.6153846153846154,0.8269230769230769,0.35714285714285715,0.8571428571428571,0.0004
158,1.2514190673828125,1.3338531255722046,0.5769230769230769,0.8269230769230769,0.2857142857142857,0.8571428571428571,0.0004
159,1.2383925318717957,1.271141529083252,0.6153846153846154,0.8269230769230769,0.5714285714285714,0.8571428571428571,0.0004
160,1.1060935854911804,1.0742344856262207,0.5384615384615384,0.8269230769230769,0.6428571428571429,0.8571428571428571,0.0004
161,1.2490789890289307,1.3817954063415527,0.6346153846153846,0.8269230769230769,0.35714285714285715,0.8571428571428571,0.0004
162,1.1292425990104675,1.1180708408355713,0.6346153846153846,0.8269230769230769,0.5714285714285714,0.8571428571428571,0.0004
163,1.1490565836429596,1.2945150136947632,0.5769230769230769,0.8269230769230769,0.5714285714285714,0.8571428571428571,0.0004
164,1.1433222889900208,1.201763391494751,0.5769230769230769,0.8269230769230769,0.5,0.8571428571428571,0.0004
165,1.153096616268158,1.146239995956421,0.6538461538461539,0.8269230769230769,0.5714285714285714,0.8571428571428571,0.0004
166,1.1981921195983887,1.2414987087249756,0.5384615384615384,0.8269230769230769,0.42857142857142855,0.8571428571428571,0.0004
167,1.0769644975662231,1.4647974967956543,0.6923076923076923,0.8269230769230769,0.35714285714285715,0.8571428571428571,0.0004
168,1.0663869082927704,1.1954529285430908,0.6730769230769231,0.8269230769230769,0.5,0.8571428571428571,0.0004
169,1.2992658019065857,1.1519381999969482,0.5769230769230769,0.8269230769230769,0.5714285714285714,0.8571428571428571,0.0004
170,1.305507779121399,1.5296682119369507,0.4807692307692308,0.8269230769230769,0.42857142857142855,0.8571428571428571,0.0004
171,1.2746495604515076,1.3629670143127441,0.5192307692307693,0.8269230769230769,0.7142857142857143,0.8571428571428571,0.0004
172,1.2081400752067566,1.275996446609497,0.5192307692307693,0.8269230769230769,0.6428571428571429,0.8571428571428571,0.0004
173,1.1279063820838928,1.3245214223861694,0.5769230769230769,0.8269230769230769,0.5714285714285714,0.7142857142857143,0.0004
174,1.2793195247650146,1.2738037109375,0.5384615384615384,0.8461538461538461,0.7142857142857143,0.7142857142857143,0.0004
175,1.0881769955158234,1.41952383518219,0.6730769230769231,0.8076923076923077,0.42857142857142855,0.7142857142857143,0.0004
176,1.2177115678787231,1.3220059871673584,0.5192307692307693,0.8846153846153846,0.5,0.7142857142857143,0.0004
177,1.1825904846191406,1.2363004684448242,0.5576923076923077,0.7884615384615384,0.6428571428571429,0.7142857142857143,0.0004
178,1.314070999622345,1.3903968334197998,0.4807692307692308,0.8653846153846154,0.5,0.7857142857142857,0.0004
179,1.2398875951766968,1.4260003566741943,0.6346153846153846,0.75,0.42857142857142855,0.7857142857142857,0.0004
180,1.1848202347755432,1.4319608211517334,0.5961538461538461,0.8269230769230769,0.42857142857142855,0.6428571428571429,0.0004
181,1.2992851734161377,1.2788954973220825,0.6346153846153846,0.8461538461538461,0.5714285714285714,0.6428571428571429,0.0004
182,1.094047725200653,1.3600289821624756,0.6153846153846154,0.8076923076923077,0.5714285714285714,0.8571428571428571,0.0004
183,0.9876974523067474,1.238294243812561,0.6153846153846154,0.8461538461538461,0.5,0.8571428571428571,0.0004
184,1.338697910308838,1.1202791929244995,0.6538461538461539,0.8269230769230769,0.5714285714285714,0.8571428571428571,0.0004
185,1.1443706154823303,1.5482823848724365,0.6153846153846154,0.8269230769230769,0.42857142857142855,0.8571428571428571,0.0004
186,1.3379585146903992,1.3950879573822021,0.5384615384615384,0.8269230769230769,0.42857142857142855,0.8571428571428571,0.0004
187,1.2681666612625122,1.2399474382400513,0.5961538461538461,0.8269230769230769,0.5,0.8571428571428571,0.0004
188,1.1806086897850037,1.110432744026184,0.5961538461538461,0.8269230769230769,0.6428571428571429,0.8571428571428571,0.0004
189,1.2760648131370544,1.2640659809112549,0.5961538461538461,0.8269230769230769,0.42857142857142855,0.8571428571428571,0.0004
190,1.337413728237152,1.3401386737823486,0.5192307692307693,0.8269230769230769,0.42857142857142855,0.8571428571428571,0.0004
191,1.1107222437858582,1.0722452402114868,0.6153846153846154,0.8269230769230769,0.6428571428571429,0.8571428571428571,0.0004
192,1.1766718626022339,1.1823768615722656,0.6153846153846154,0.8269230769230769,0.5714285714285714,0.8571428571428571,0.0004
193,1.1499865651130676,1.2119446992874146,0.6730769230769231,0.8269230769230769,0.6428571428571429,0.8571428571428571,0.0004
194,1.120121330022812,1.2045139074325562,0.5576923076923077,0.8269230769230769,0.5714285714285714,0.8571428571428571,0.0004
195,1.1592094898223877,1.2017263174057007,0.5961538461538461,0.8269230769230769,0.6428571428571429,0.8571428571428571,0.0004
196,1.3092566132545471,1.521776556968689,0.5961538461538461,0.8269230769230769,0.42857142857142855,0.8571428571428571,0.0004
197,1.3040934801101685,1.4225358963012695,0.5961538461538461,0.8269230769230769,0.5,0.8571428571428571,0.0004
198,1.2104469537734985,1.2261857986450195,0.5384615384615384,0.8269230769230769,0.5714285714285714,0.8571428571428571,0.0004
199,1.0869783759117126,1.5533052682876587,0.5769230769230769,0.8269230769230769,0.42857142857142855,0.8571428571428571,0.0004
200,1.1815484166145325,1.435288906097412,0.6538461538461539,0.8269230769230769,0.5,0.8571428571428571,0.0004
201,1.2805759906768799,1.1392613649368286,0.5576923076923077,0.8269230769230769,0.5714285714285714,0.8571428571428571,0.0004
202,1.1803861856460571,1.2212634086608887,0.6153846153846154,0.8269230769230769,0.42857142857142855,0.8571428571428571,0.0004
203,1.065385103225708,1.3115084171295166,0.6730769230769231,0.8269230769230769,0.5,0.8571428571428571,0.0004
204,1.1489819288253784,1.5680444240570068,0.6153846153846154,0.8269230769230769,0.35714285714285715,0.8571428571428571,0.0004
205,1.008363515138626,1.2897932529449463,0.6346153846153846,0.8269230769230769,0.5,0.8571428571428571,0.0004
206,1.0909570455551147,1.3107945919036865,0.6346153846153846,0.8269230769230769,0.5,0.8571428571428571,0.0004
207,1.3114237189292908,1.2572088241577148,0.5769230769230769,0.8269230769230769,0.42857142857142855,0.8571428571428571,0.0004
208,1.1186505556106567,1.20029616355896,0.7115384615384616,0.8269230769230769,0.5714285714285714,0.8571428571428571,0.0004
209,1.1371994614601135,1.5399417877197266,0.7307692307692307,0.8269230769230769,0.35714285714285715,0.8571428571428571,0.0004
210,1.120313137769699,1.223106861114502,0.6153846153846154,0.8269230769230769,0.5714285714285714,0.8571428571428571,0.0004
211,1.1303399801254272,1.3569560050964355,0.6730769230769231,0.8269230769230769,0.5,0.8571428571428571,0.0004
212,1.0386999249458313,1.2707875967025757,0.7115384615384616,0.8269230769230769,0.42857142857142855,0.8571428571428571,0.0004
213,1.1054748892784119,1.6510413885116577,0.6923076923076923,0.8269230769230769,0.2857142857142857,0.8571428571428571,0.0004
214,1.013505071401596,1.332518458366394,0.6923076923076923,0.8269230769230769,0.5,0.8571428571428571,0.0004
215,1.2798636555671692,1.4381030797958374,0.5384615384615384,0.8269230769230769,0.5714285714285714,0.8571428571428571,0.0004
216,1.1693153977394104,1.5081045627593994,0.6153846153846154,0.8269230769230769,0.35714285714285715,0.8571428571428571,0.0004
217,1.1640403270721436,1.5258857011795044,0.6730769230769231,0.8076923076923077,0.35714285714285715,0.7142857142857143,0.0004
218,1.1163108348846436,1.3774770498275757,0.6538461538461539,0.8076923076923077,0.35714285714285715,0.6428571428571429,0.0004
219,1.3289780020713806,1.6198052167892456,0.5769230769230769,0.7884615384615384,0.2857142857142857,0.7142857142857143,0.0004
220,1.1889376640319824,1.3903820514678955,0.5769230769230769,0.7884615384615384,0.5,0.7142857142857143,0.0004
221,1.276699960231781,1.375971794128418,0.5769230769230769,0.8269230769230769,0.5714285714285714,0.7142857142857143,0.0004
222,1.0331010222434998,1.3048707246780396,0.6538461538461539,0.7692307692307693,0.5,0.7142857142857143,0.0004
223,1.0317131280899048,1.439310073852539,0.6730769230769231,0.8076923076923077,0.42857142857142855,0.6428571428571429,0.0004
224,1.3328374028205872,1.5557255744934082,0.5961538461538461,0.8076923076923077,0.42857142857142855,0.5714285714285714,0.0004
225,1.1810463666915894,1.115581750869751,0.6730769230769231,0.8076923076923077,0.7142857142857143,0.6428571428571429,0.0004
226,1.105641484260559,1.6156442165374756,0.6730769230769231,0.7692307692307693,0.42857142857142855,0.8571428571428571,0.0004
227,1.1912919878959656,1.4493101835250854,0.5961538461538461,0.8269230769230769,0.42857142857142855,0.8571428571428571,0.0004
228,1.136270523071289,1.6963132619857788,0.6346153846153846,0.8076923076923077,0.35714285714285715,0.8571428571428571,0.0004
229,1.12911856174469,1.5725184679031372,0.6923076923076923,0.8269230769230769,0.35714285714285715,0.8571428571428571,0.0004
230,1.1889744997024536,1.6742613315582275,0.6153846153846154,0.8269230769230769,0.21428571428571427,0.8571428571428571,0.0004
231,1.1521585583686829,1.113931655883789,0.6346153846153846,0.8269230769230769,0.6428571428571429,0.8571428571428571,0.0004
232,1.2993912100791931,1.2093522548675537,0.5961538461538461,0.8269230769230769,0.5,0.8571428571428571,0.0004
233,1.0389815866947174,1.3348079919815063,0.7307692307692307,0.8269230769230769,0.42857142857142855,0.8571428571428571,0.0004
234,1.2352128624916077,1.3627455234527588,0.5576923076923077,0.8269230769230769,0.42857142857142855,0.8571428571428571,0.0004
235,1.2537914514541626,1.1613683700561523,0.5961538461538461,0.8269230769230769,0.6428571428571429,0.8571428571428571,0.0004
236,1.0806539356708527,1.2904598712921143,0.5384615384615384,0.8269230769230769,0.6428571428571429,0.8571428571428571,0.0004
237,1.1454411745071411,1.5982582569122314,0.5769230769230769,0.8269230769230769,0.6428571428571429,0.8571428571428571,0.0004
238,1.2299331426620483,1.4259663820266724,0.6346153846153846,0.8269230769230769,0.5714285714285714,0.8571428571428571,0.0004
239,1.1686168313026428,1.2054523229599,0.5769230769230769,0.8269230769230769,0.35714285714285715,0.8571428571428571,0.0004
240,1.1378659009933472,1.1667640209197998,0.46153846153846156,0.8269230769230769,0.6428571428571429,0.8571428571428571,0.0004
241,1.0075811445713043,1.317786693572998,0.6538461538461539,0.8269230769230769,0.42857142857142855,0.8571428571428571,0.0004
242,1.1699991822242737,1.2400686740875244,0.5961538461538461,0.8269230769230769,0.5,0.8571428571428571,0.0004
243,1.1511882543563843,1.2581664323806763,0.6153846153846154,0.8269230769230769,0.5714285714285714,0.8571428571428571,0.0004
244,1.028869867324829,1.174464225769043,0.6538461538461539,0.8269230769230769,0.5714285714285714,0.8571428571428571,0.0004
245,1.243873417377472,1.1354765892028809,0.6346153846153846,0.8269230769230769,0.5714285714285714,0.8571428571428571,0.0004
246,1.1359332203865051,1.4484808444976807,0.6346153846153846,0.8269230769230769,0.5,0.8571428571428571,0.0004
247,1.0247050523757935,1.3085403442382812,0.6923076923076923,0.8269230769230769,0.5,0.8571428571428571,0.0004
248,1.1694642901420593,1.4078606367111206,0.6153846153846154,0.8269230769230769,0.42857142857142855,0.8571428571428571,0.0004
249,1.419017255306244,1.2412407398223877,0.5576923076923077,0.8269230769230769,0.5,0.8571428571428571,0.0004
250,1.1987611651420593,1.3843575716018677,0.5961538461538461,0.8461538461538461,0.5714285714285714,0.7857142857142857,0.0004
251,1.2151231169700623,1.4765291213989258,0.5769230769230769,0.8461538461538461,0.42857142857142855,0.7142857142857143,0.0004
252,1.102592647075653,1.1773273944854736,0.6923076923076923,0.8076923076923077,0.5714285714285714,0.6428571428571429,0.0004
253,1.1300405859947205,1.398404836654663,0.6346153846153846,0.8076923076923077,0.5714285714285714,0.6428571428571429,0.0004
254,1.2542548179626465,1.3749754428863525,0.5961538461538461,0.8076923076923077,0.5714285714285714,0.6428571428571429,0.0004
255,1.1734410524368286,1.46246337890625,0.5961538461538461,0.7884615384615384,0.35714285714285715,0.6428571428571429,0.0004
256,1.1420219540596008,1.1343693733215332,0.5961538461538461,0.8076923076923077,0.6428571428571429,0.7857142857142857,0.0004
257,1.2890796065330505,1.3779997825622559,0.5576923076923077,0.8076923076923077,0.42857142857142855,0.5714285714285714,0.0004
258,1.3890745043754578,1.1994538307189941,0.5384615384615384,0.8461538461538461,0.5714285714285714,0.7857142857142857,0.0004
259,1.1286179423332214,1.2241013050079346,0.6346153846153846,0.7884615384615384,0.5,0.6428571428571429,0.0004
260,0.9719227254390717,1.4170987606048584,0.6923076923076923,0.8461538461538461,0.5,0.7857142857142857,0.0004
261,1.0803475975990295,1.1924397945404053,0.6538461538461539,0.8269230769230769,0.5,0.7857142857142857,0.0004
262,1.3114055395126343,1.5091034173965454,0.6346153846153846,0.8076923076923077,0.42857142857142855,0.7857142857142857,0.0004
263,1.1627911925315857,1.424062728881836,0.6153846153846154,0.7884615384615384,0.42857142857142855,0.7142857142857143,0.0004
264,1.1045430898666382,1.4034647941589355,0.6346153846153846,0.8269230769230769,0.35714285714285715,0.8571428571428571,0.0004
265,1.1742205917835236,1.289777159690857,0.6346153846153846,0.8269230769230769,0.5714285714285714,0.8571428571428571,0.0004
266,1.1027262210845947,1.1907398700714111,0.5961538461538461,0.8076923076923077,0.5,0.8571428571428571,0.0004
267,1.2204395532608032,1.6575894355773926,0.6730769230769231,0.8076923076923077,0.42857142857142855,0.8571428571428571,0.0004
268,1.0913812518119812,1.2733583450317383,0.5576923076923077,0.8269230769230769,0.5,0.8571428571428571,0.0004
269,1.2281874418258667,1.5924348831176758,0.6153846153846154,0.8269230769230769,0.42857142857142855,0.8571428571428571,0.0004
270,1.1629173755645752,1.306412696838379,0.6153846153846154,0.8269230769230769,0.5,0.8571428571428571,0.0004
271,1.088600516319275,1.0323420763015747,0.6730769230769231,0.8269230769230769,0.6428571428571429,0.8571428571428571,0.0004
272,1.2158127427101135,1.2348322868347168,0.5769230769230769,0.8269230769230769,0.6428571428571429,0.8571428571428571,0.0004
273,1.226599097251892,1.3872737884521484,0.5769230769230769,0.8269230769230769,0.42857142857142855,0.7857142857142857,0.0004
274,1.1586121320724487,1.4895567893981934,0.5961538461538461,0.8269230769230769,0.42857142857142855,0.7142857142857143,0.0004
275,1.1955076456069946,1.4071398973464966,0.5961538461538461,0.8269230769230769,0.5,0.8571428571428571,0.0004
276,1.2987689971923828,1.6921613216400146,0.5769230769230769,0.8076923076923077,0.42857142857142855,0.7857142857142857,0.0004
277,1.2032645344734192,1.2168642282485962,0.5961538461538461,0.8269230769230769,0.5714285714285714,0.8571428571428571,0.0004
278,1.017659842967987,1.20565927028656,0.6730769230769231,0.8076923076923077,0.5714285714285714,0.8571428571428571,0.0004
279,1.1330464780330658,1.4414777755737305,0.5769230769230769,0.8269230769230769,0.35714285714285715,0.8571428571428571,0.0004
280,1.1061107516288757,1.446556806564331,0.6730769230769231,0.7692307692307693,0.42857142857142855,0.7142857142857143,0.0004
281,1.1930312514305115,1.4327943325042725,0.6538461538461539,0.7884615384615384,0.42857142857142855,0.7142857142857143,0.0004
282,1.1957024335861206,1.2775622606277466,0.6538461538461539,0.7884615384615384,0.5,0.8571428571428571,0.0004
283,1.1828576922416687,1.3057286739349365,0.5769230769230769,0.8076923076923077,0.42857142857142855,0.8571428571428571,0.0004
284,1.176596462726593,1.4378471374511719,0.6346153846153846,0.8076923076923077,0.42857142857142855,0.7857142857142857,0.0004
285,1.1407076120376587,1.2178094387054443,0.6538461538461539,0.7884615384615384,0.5,0.7857142857142857,0.0004
286,1.1773928999900818,1.4641168117523193,0.6153846153846154,0.8653846153846154,0.42857142857142855,0.8571428571428571,0.0004
287,0.9789896905422211,1.531158685684204,0.7115384615384616,0.8461538461538461,0.5,0.8571428571428571,0.0004
288,1.2027381658554077,1.4041075706481934,0.6538461538461539,0.8076923076923077,0.35714285714285715,0.8571428571428571,0.0004
289,1.1840148568153381,1.6741092205047607,0.6730769230769231,0.8269230769230769,0.2857142857142857,0.8571428571428571,0.0004
290,1.1067667603492737,1.1260854005813599,0.6923076923076923,0.8269230769230769,0.5,0.8571428571428571,0.0004
291,1.0361746549606323,1.2123057842254639,0.6538461538461539,0.8269230769230769,0.5,0.8571428571428571,0.0004
292,1.112911880016327,1.3495322465896606,0.5769230769230769,0.8269230769230769,0.35714285714285715,0.8571428571428571,0.0004
293,1.1982963383197784,1.1032003164291382,0.6923076923076923,0.8269230769230769,0.5714285714285714,0.8571428571428571,0.0004
294,1.0701408982276917,1.2095410823822021,0.6346153846153846,0.8269230769230769,0.5714285714285714,0.8571428571428571,0.0004
295,1.0742912888526917,1.2520684003829956,0.6538461538461539,0.8269230769230769,0.5,0.8571428571428571,0.0004
296,1.049353539943695,1.4457054138183594,0.5576923076923077,0.8269230769230769,0.42857142857142855,0.8571428571428571,0.0004
297,1.314291000366211,1.7833926677703857,0.5961538461538461,0.8269230769230769,0.35714285714285715,0.8571428571428571,0.0004
298,1.1023856401443481,1.4229966402053833,0.6538461538461539,0.8269230769230769,0.5,0.7857142857142857,0.0004
299,1.1656780242919922,1.3379253149032593,0.7115384615384616,0.8269230769230769,0.5714285714285714,0.8571428571428571,0.0004
300,1.2237414121627808,1.164726734161377,0.7692307692307693,0.8269230769230769,0.5714285714285714,0.8571428571428571,0.0004
301,1.0698359608650208,1.6068848371505737,0.6346153846153846,0.8269230769230769,0.2857142857142857,0.8571428571428571,0.0004
302,1.2558716535568237,2.0005407333374023,0.6153846153846154,0.8269230769230769,0.21428571428571427,0.8571428571428571,0.0004
303,1.2286511659622192,1.193042278289795,0.6153846153846154,0.8269230769230769,0.5,0.8571428571428571,0.0004
304,1.1057462096214294,1.3586905002593994,0.6538461538461539,0.8269230769230769,0.5,0.8571428571428571,0.0004
305,1.121689796447754,1.479513168334961,0.5961538461538461,0.8269230769230769,0.42857142857142855,0.8571428571428571,0.0004
306,1.1435281038284302,1.49534010887146,0.6153846153846154,0.8076923076923077,0.5,0.8571428571428571,0.0004
307,1.1722153425216675,1.4963319301605225,0.6153846153846154,0.8269230769230769,0.5,0.8571428571428571,0.0004
308,0.9840158224105835,1.341822862625122,0.6730769230769231,0.8461538461538461,0.5,0.8571428571428571,0.0004
309,1.2654823064804077,1.4415955543518066,0.5576923076923077,0.8269230769230769,0.5714285714285714,0.8571428571428571,0.0004
310,0.97667196393013,1.2924407720565796,0.6923076923076923,0.8269230769230769,0.5,0.8571428571428571,0.0004
311,1.0107206106185913,1.266474723815918,0.75,0.8269230769230769,0.5,0.8571428571428571,0.0004
312,1.2137927412986755,1.1955543756484985,0.6538461538461539,0.8269230769230769,0.5,0.8571428571428571,0.0004
313,1.1036403477191925,1.4278783798217773,0.6730769230769231,0.8269230769230769,0.5,0.8571428571428571,0.0004
314,1.141473114490509,1.5419578552246094,0.6923076923076923,0.8269230769230769,0.5714285714285714,0.8571428571428571,0.0004
315,1.0763001143932343,1.4587361812591553,0.6923076923076923,0.8269230769230769,0.5,0.8571428571428571,0.0004
316,1.1341211795806885,1.1959280967712402,0.5961538461538461,0.8269230769230769,0.5,0.8571428571428571,0.0004
317,1.3016358613967896,1.2349669933319092,0.5769230769230769,0.8269230769230769,0.5714285714285714,0.8571428571428571,0.0004
318,0.9789731502532959,1.5422518253326416,0.6923076923076923,0.8269230769230769,0.42857142857142855,0.8571428571428571,0.0004
319,1.1074833571910858,1.4482532739639282,0.6730769230769231,0.8269230769230769,0.42857142857142855,0.8571428571428571,0.0004
320,1.105755478143692,1.230487585067749,0.6923076923076923,0.8269230769230769,0.5714285714285714,0.8571428571428571,0.0004
321,1.382754921913147,1.3801268339157104,0.5961538461538461,0.8269230769230769,0.5714285714285714,0.7857142857142857,0.0004
322,1.2588108777999878,1.2621502876281738,0.5769230769230769,0.8076923076923077,0.5714285714285714,0.7142857142857143,0.0004
323,1.0798185467720032,1.472461462020874,0.6153846153846154,0.8461538461538461,0.5,0.5714285714285714,0.0004
324,1.2058104872703552,1.4804043769836426,0.6153846153846154,0.8076923076923077,0.42857142857142855,0.5714285714285714,0.0004
325,1.0335898995399475,1.4093313217163086,0.7115384615384616,0.8461538461538461,0.42857142857142855,0.5714285714285714,0.0004
326,0.8872172236442566,1.0982037782669067,0.75,0.8653846153846154,0.6428571428571429,0.6428571428571429,0.0004
327,1.2438544631004333,1.257404088973999,0.5769230769230769,0.7884615384615384,0.5,0.7142857142857143,0.0004
328,1.0952214896678925,1.7498801946640015,0.7307692307692307,0.8653846153846154,0.42857142857142855,0.6428571428571429,0.0004
329,1.0588398575782776,1.2241730690002441,0.6923076923076923,0.8269230769230769,0.5714285714285714,0.6428571428571429,0.0004
330,1.341468870639801,1.5317306518554688,0.5,0.7307692307692307,0.5,0.6428571428571429,0.0004
331,1.2156594395637512,1.3858349323272705,0.6730769230769231,0.8269230769230769,0.5,0.7142857142857143,0.0004
332,1.1107618808746338,1.432611346244812,0.6538461538461539,0.8076923076923077,0.5,0.7142857142857143,0.0004
333,1.0486835837364197,1.2794697284698486,0.6153846153846154,0.8076923076923077,0.42857142857142855,0.7857142857142857,0.0004
334,1.2130897045135498,1.1615914106369019,0.6923076923076923,0.7692307692307693,0.5,0.7857142857142857,0.0004
335,1.1115249395370483,1.1613826751708984,0.6730769230769231,0.8076923076923077,0.5,0.8571428571428571,0.0004
336,1.046406865119934,1.5228790044784546,0.7307692307692307,0.8076923076923077,0.35714285714285715,0.7857142857142857,0.0004
337,1.2051748037338257,1.2717804908752441,0.5769230769230769,0.8461538461538461,0.5714285714285714,0.8571428571428571,0.0004
338,1.1458598971366882,1.6798396110534668,0.5384615384615384,0.8076923076923077,0.42857142857142855,0.8571428571428571,0.0004
339,1.0381774604320526,1.4357614517211914,0.6346153846153846,0.8269230769230769,0.5,0.8571428571428571,0.0004
340,1.184557557106018,1.5836281776428223,0.5961538461538461,0.8269230769230769,0.5,0.8571428571428571,0.0004
341,1.0772918462753296,1.4469952583312988,0.6346153846153846,0.8269230769230769,0.42857142857142855,0.7142857142857143,0.0004
342,1.0742813050746918,1.577904462814331,0.6153846153846154,0.8269230769230769,0.5,0.5714285714285714,0.0004
343,1.2409005165100098,1.6041219234466553,0.6923076923076923,0.8653846153846154,0.42857142857142855,0.7857142857142857,0.0004
344,1.2373725175857544,1.4327116012573242,0.5769230769230769,0.8461538461538461,0.5714285714285714,0.5714285714285714,0.0004
345,1.2001336216926575,1.4357984066009521,0.5961538461538461,0.8269230769230769,0.5,0.7142857142857143,0.0004
346,1.1125086545944214,1.6463004350662231,0.6346153846153846,0.8461538461538461,0.42857142857142855,0.6428571428571429,0.0004
347,1.0231727361679077,1.2873064279556274,0.75,0.8269230769230769,0.5,0.7142857142857143,0.0004
348,1.0762445330619812,1.3899760246276855,0.5961538461538461,0.9038461538461539,0.5714285714285714,0.7857142857142857,0.0004
349,1.0124715864658356,1.5813095569610596,0.7115384615384616,0.8461538461538461,0.5,0.7142857142857143,0.0004
350,0.9995497465133667,1.638031005859375,0.5961538461538461,0.9038461538461539,0.42857142857142855,0.7857142857142857,0.0004
351,1.2447842061519623,1.971367597579956,0.5769230769230769,0.8269230769230769,0.35714285714285715,0.7142857142857143,0.0004
352,1.0587820410728455,1.5211378335952759,0.6730769230769231,0.8461538461538461,0.42857142857142855,0.7857142857142857,0.0004
353,0.9578029215335846,1.7217869758605957,0.6730769230769231,0.8461538461538461,0.5,0.6428571428571429,0.0004
354,1.1055474877357483,2.0370495319366455,0.6153846153846154,0.8653846153846154,0.2857142857142857,0.5714285714285714,0.0004
355,1.0326775014400482,1.6574326753616333,0.6730769230769231,0.8653846153846154,0.42857142857142855,0.7142857142857143,0.0004
356,1.26091867685318,1.9047260284423828,0.5961538461538461,0.8269230769230769,0.42857142857142855,0.5714285714285714,0.0004
357,1.2679060101509094,1.5044631958007812,0.5,0.8269230769230769,0.5714285714285714,0.5714285714285714,0.0004
358,1.1691960990428925,1.4068577289581299,0.5961538461538461,0.8653846153846154,0.5714285714285714,0.7142857142857143,0.0004
359,1.0834261178970337,1.4632456302642822,0.7115384615384616,0.8461538461538461,0.5,0.7857142857142857,0.0004
360,0.9453376829624176,1.328965187072754,0.7115384615384616,0.8653846153846154,0.5714285714285714,0.7857142857142857,0.0004
361,1.1187463998794556,1.4715847969055176,0.6346153846153846,0.8653846153846154,0.5714285714285714,0.6428571428571429,0.0004
362,1.2383709251880646,1.8519700765609741,0.6730769230769231,0.8269230769230769,0.42857142857142855,0.5714285714285714,0.0004
363,0.9350403547286987,1.9400055408477783,0.6730769230769231,0.8653846153846154,0.35714285714285715,0.7142857142857143,0.0004
364,1.1172474026679993,1.476515769958496,0.5961538461538461,0.8461538461538461,0.5,0.7857142857142857,0.0004
365,1.0951192378997803,1.975719690322876,0.5961538461538461,0.8846153846153846,0.42857142857142855,0.5714285714285714,0.0004
366,0.9909659624099731,1.599212884902954,0.5961538461538461,0.8846153846153846,0.5,0.7857142857142857,0.0004
367,1.0430144667625427,1.2249009609222412,0.6923076923076923,0.8269230769230769,0.5714285714285714,0.7857142857142857,0.0004
368,1.099349856376648,1.5565568208694458,0.6346153846153846,0.8461538461538461,0.5,0.7142857142857143,0.0004
369,1.2190253138542175,1.5971425771713257,0.5769230769230769,0.8076923076923077,0.5,0.6428571428571429,0.0004
370,1.1738738119602203,1.8040356636047363,0.6346153846153846,0.8269230769230769,0.42857142857142855,0.7142857142857143,0.0004
371,1.1967787742614746,1.5228214263916016,0.5961538461538461,0.8269230769230769,0.5,0.7857142857142857,0.0004
372,1.2747663259506226,1.6300442218780518,0.6538461538461539,0.8461538461538461,0.5,0.6428571428571429,0.0004
373,1.0544158220291138,1.177595853805542,0.6346153846153846,0.8269230769230769,0.5714285714285714,0.8571428571428571,0.0004
374,1.313923716545105,1.4464194774627686,0.6153846153846154,0.8269230769230769,0.42857142857142855,0.8571428571428571,0.0004
375,1.1435906291007996,1.4571967124938965,0.6153846153846154,0.8653846153846154,0.5714285714285714,0.7142857142857143,0.0004
376,0.9803468585014343,1.584831953048706,0.6538461538461539,0.8269230769230769,0.42857142857142855,0.6428571428571429,0.0004
377,1.2842600345611572,1.7992432117462158,0.5961538461538461,0.7884615384615384,0.42857142857142855,0.6428571428571429,0.0004
378,0.9655339121818542,1.5854854583740234,0.75,0.8269230769230769,0.5714285714285714,0.8571428571428571,0.0004
379,0.8771869838237762,1.8310573101043701,0.6153846153846154,0.8846153846153846,0.35714285714285715,0.7142857142857143,0.0004
380,1.1528027057647705,1.3872381448745728,0.5961538461538461,0.8653846153846154,0.5,0.8571428571428571,0.0004
381,1.0213980674743652,1.2430799007415771,0.6346153846153846,0.8269230769230769,0.5,0.7857142857142857,0.0004
382,1.1193512380123138,1.4142069816589355,0.6346153846153846,0.8269230769230769,0.5714285714285714,0.7857142857142857,0.0004
383,1.212098479270935,1.7633172273635864,0.5769230769230769,0.8269230769230769,0.35714285714285715,0.7142857142857143,0.0004
384,1.2659937143325806,1.6111055612564087,0.5192307692307693,0.8269230769230769,0.42857142857142855,0.6428571428571429,0.0004
385,1.1718823909759521,1.3753879070281982,0.5769230769230769,0.8269230769230769,0.5714285714285714,0.7142857142857143,0.0004
386,1.1729852557182312,2.1466593742370605,0.6538461538461539,0.8653846153846154,0.2857142857142857,0.6428571428571429,0.0004
387,1.2606623768806458,1.9195994138717651,0.5769230769230769,0.8461538461538461,0.42857142857142855,0.8571428571428571,0.0004
388,1.4126344323158264,1.7642107009887695,0.5576923076923077,0.8076923076923077,0.42857142857142855,0.7142857142857143,0.0004
389,1.1834477186203003,1.5817418098449707,0.5769230769230769,0.8653846153846154,0.5,0.7857142857142857,0.0004
390,1.1081289649009705,1.5517921447753906,0.6538461538461539,0.8461538461538461,0.5714285714285714,0.5714285714285714,0.0004
391,1.128267228603363,1.284013271331787,0.5769230769230769,0.8461538461538461,0.6428571428571429,0.6428571428571429,0.0004
392,1.175515592098236,1.6852853298187256,0.6923076923076923,0.8461538461538461,0.35714285714285715,0.8571428571428571,0.0004
393,1.1872291564941406,1.7208540439605713,0.6346153846153846,0.8461538461538461,0.5714285714285714,0.5714285714285714,0.0004
394,1.0536109805107117,1.4459083080291748,0.5769230769230769,0.8846153846153846,0.5714285714285714,0.7142857142857143,0.0004
395,0.9832638502120972,1.817307949066162,0.6346153846153846,0.8461538461538461,0.5,0.6428571428571429,0.0004
396,1.1612691581249237,1.5570385456085205,0.5961538461538461,0.7884615384615384,0.42857142857142855,0.7857142857142857,0.0004
397,0.8471190929412842,1.700398325920105,0.7884615384615384,0.8846153846153846,0.5714285714285714,0.6428571428571429,0.0004
398,0.9590453505516052,2.4567105770111084,0.6730769230769231,0.8461538461538461,0.42857142857142855,0.5714285714285714,0.0004
399,1.0273302793502808,1.5104706287384033,0.6153846153846154,0.8269230769230769,0.5714285714285714,0.7142857142857143,0.0004
400,1.136727899312973,1.8157784938812256,0.6153846153846154,0.8461538461538461,0.5,0.5,0.0004
401,1.023609697818756,1.595981240272522,0.6538461538461539,0.9230769230769231,0.5714285714285714,0.7142857142857143,0.0004
402,1.1756137907505035,1.5832209587097168,0.5576923076923077,0.8269230769230769,0.5,0.7142857142857143,0.0004
403,1.205952227115631,1.7282330989837646,0.6538461538461539,0.8269230769230769,0.5,0.5714285714285714,0.0004
404,1.1591132283210754,1.8886945247650146,0.6730769230769231,0.9038461538461539,0.42857142857142855,0.42857142857142855,0.0004
405,1.1204766035079956,1.8008017539978027,0.6153846153846154,0.8076923076923077,0.42857142857142855,0.6428571428571429,0.0004
406,1.2365224361419678,1.5059571266174316,0.5961538461538461,0.8846153846153846,0.42857142857142855,0.6428571428571429,0.0004
407,1.0724242329597473,1.6746060848236084,0.5961538461538461,0.8461538461538461,0.5714285714285714,0.5,0.0004
408,1.0710750222206116,1.4566686153411865,0.5769230769230769,0.8461538461538461,0.5714285714285714,0.5,0.0004
409,0.9672036170959473,1.434460163116455,0.6538461538461539,0.9423076923076923,0.5714285714285714,0.6428571428571429,0.0004
410,1.2123903632164001,1.8327202796936035,0.6153846153846154,0.8269230769230769,0.5714285714285714,0.42857142857142855,0.0004
411,1.1137097775936127,1.4332084655761719,0.6730769230769231,0.8461538461538461,0.5714285714285714,0.7857142857142857,0.0004
412,1.1218074560165405,1.6594254970550537,0.5576923076923077,0.8653846153846154,0.5714285714285714,0.7142857142857143,0.0004
413,1.2513988614082336,1.9550971984863281,0.6346153846153846,0.8269230769230769,0.35714285714285715,0.7142857142857143,0.0004
414,0.8869806528091431,2.177417278289795,0.6538461538461539,0.8653846153846154,0.35714285714285715,0.6428571428571429,0.0004
415,1.0828163027763367,1.8470406532287598,0.6346153846153846,0.8461538461538461,0.5,0.5714285714285714,0.0004
416,0.9739015102386475,1.6250529289245605,0.6730769230769231,0.8846153846153846,0.5714285714285714,0.7142857142857143,0.0004
417,0.9177614450454712,1.8390295505523682,0.7307692307692307,0.8846153846153846,0.5714285714285714,0.8571428571428571,0.0004
418,0.8773429989814758,2.1507327556610107,0.7115384615384616,0.8846153846153846,0.42857142857142855,0.6428571428571429,0.0004
419,1.1035643517971039,1.8717453479766846,0.6730769230769231,0.8269230769230769,0.42857142857142855,0.7142857142857143,0.0004
420,0.9929193258285522,2.520812511444092,0.6538461538461539,0.8846153846153846,0.35714285714285715,0.5714285714285714,0.0004
421,0.8940533101558685,1.9500775337219238,0.7115384615384616,0.8846153846153846,0.5714285714285714,0.7142857142857143,0.0004
422,1.1370415091514587,1.6015398502349854,0.6153846153846154,0.8653846153846154,0.6428571428571429,0.7857142857142857,0.0004
423,1.0325916111469269,1.9244725704193115,0.6730769230769231,0.8269230769230769,0.35714285714285715,0.7857142857142857,0.0004
424,0.9099427163600922,2.2589354515075684,0.6730769230769231,0.8461538461538461,0.42857142857142855,0.7142857142857143,0.0004
425,1.0490061044692993,1.8605786561965942,0.6730769230769231,0.8461538461538461,0.5,0.7857142857142857,0.0004
426,1.210164725780487,2.248140573501587,0.5961538461538461,0.8461538461538461,0.35714285714285715,0.5714285714285714,0.0004
427,1.2201449573040009,1.7807996273040771,0.6923076923076923,0.8076923076923077,0.5,0.5714285714285714,0.0004
428,1.0974887013435364,1.5045242309570312,0.6538461538461539,0.8461538461538461,0.5714285714285714,0.7142857142857143,0.0004
429,1.0821066498756409,1.8558802604675293,0.6346153846153846,0.8846153846153846,0.35714285714285715,0.6428571428571429,0.0004
430,0.919641762971878,2.072366952896118,0.6923076923076923,0.8653846153846154,0.35714285714285715,0.6428571428571429,0.0004
431,0.9698692560195923,1.513765573501587,0.7115384615384616,0.8461538461538461,0.5,0.6428571428571429,0.0004
432,0.9784494042396545,1.8417202234268188,0.6923076923076923,0.8846153846153846,0.5,0.7142857142857143,0.0004
433,1.0084100365638733,2.143601655960083,0.6538461538461539,0.8653846153846154,0.42857142857142855,0.5714285714285714,0.0004
434,1.1480101943016052,1.6609764099121094,0.6538461538461539,0.7884615384615384,0.5714285714285714,0.7857142857142857,0.0004
435,1.0553751587867737,1.8197553157806396,0.7307692307692307,0.8461538461538461,0.5,0.6428571428571429,0.0004
436,1.0469946265220642,2.2300305366516113,0.6153846153846154,0.8653846153846154,0.42857142857142855,0.6428571428571429,0.0004
437,1.171116292476654,1.8191394805908203,0.6923076923076923,0.8269230769230769,0.42857142857142855,0.7142857142857143,0.0004
438,1.4246885180473328,1.871460199356079,0.46153846153846156,0.8076923076923077,0.42857142857142855,0.5714285714285714,0.0004
439,1.0630608201026917,1.8007197380065918,0.6923076923076923,0.8653846153846154,0.42857142857142855,0.6428571428571429,0.0004
440,1.281641662120819,1.5289214849472046,0.5384615384615384,0.8269230769230769,0.35714285714285715,0.8571428571428571,0.0004
441,1.1119014024734497,1.5207579135894775,0.6153846153846154,0.8461538461538461,0.5,0.7142857142857143,0.0004
442,1.191976547241211,1.0056418180465698,0.5961538461538461,0.8076923076923077,0.6428571428571429,0.9285714285714286,0.0004
443,1.1317325830459595,1.9645425081253052,0.6923076923076923,0.8461538461538461,0.5,0.5714285714285714,0.0004
444,1.0636158883571625,1.5109515190124512,0.7115384615384616,0.8461538461538461,0.42857142857142855,0.8571428571428571,0.0004
445,0.9676631987094879,1.7443114519119263,0.6538461538461539,0.8846153846153846,0.5,0.7857142857142857,0.0004
446,1.0305037796497345,1.9016634225845337,0.6153846153846154,0.8269230769230769,0.5714285714285714,0.6428571428571429,0.0004
447,1.0779485404491425,2.5805559158325195,0.6538461538461539,0.7884615384615384,0.2857142857142857,0.5714285714285714,0.0004
448,0.8976906538009644,2.0858511924743652,0.6923076923076923,0.8653846153846154,0.35714285714285715,0.7142857142857143,0.0004
449,1.2734163403511047,2.0877199172973633,0.5384615384615384,0.8269230769230769,0.35714285714285715,0.6428571428571429,0.0004
450,1.2755165696144104,1.5724480152130127,0.5,0.8461538461538461,0.5714285714285714,0.7857142857142857,0.0004
451,1.341995120048523,1.5566279888153076,0.5961538461538461,0.8269230769230769,0.5,0.6428571428571429,0.0004
452,1.1787394881248474,1.8914471864700317,0.6538461538461539,0.8461538461538461,0.5,0.42857142857142855,0.0004
453,1.0630791783332825,1.5089106559753418,0.7115384615384616,0.8076923076923077,0.42857142857142855,0.7857142857142857,0.0004
454,0.9836483895778656,1.5822336673736572,0.6538461538461539,0.8653846153846154,0.42857142857142855,0.5714285714285714,0.0004
455,1.1149343848228455,1.552405834197998,0.5961538461538461,0.8076923076923077,0.5,0.42857142857142855,0.0004
456,1.1663294434547424,1.6151797771453857,0.6538461538461539,0.8076923076923077,0.5714285714285714,0.5714285714285714,0.0004
457,1.200725018978119,1.1705693006515503,0.6153846153846154,0.8269230769230769,0.6428571428571429,0.7142857142857143,0.0004
458,1.2669700980186462,1.2070403099060059,0.6153846153846154,0.7884615384615384,0.6428571428571429,0.7142857142857143,0.0004
459,1.083128571510315,1.8417537212371826,0.5769230769230769,0.8461538461538461,0.42857142857142855,0.5714285714285714,0.0004
460,1.1952802538871765,1.7152947187423706,0.5576923076923077,0.9230769230769231,0.42857142857142855,0.6428571428571429,0.0004
461,1.143159031867981,1.4944696426391602,0.6153846153846154,0.8653846153846154,0.42857142857142855,0.6428571428571429,0.0004
462,1.239786684513092,1.4688317775726318,0.5576923076923077,0.8653846153846154,0.5,0.6428571428571429,0.0004
463,1.0469560027122498,1.2294787168502808,0.6730769230769231,0.8846153846153846,0.5,0.9285714285714286,0.0004
464,0.9898371696472168,1.51423978805542,0.7115384615384616,0.8653846153846154,0.42857142857142855,0.7857142857142857,0.0004
465,1.1579890847206116,1.4891135692596436,0.6538461538461539,0.8653846153846154,0.5,0.7142857142857143,0.0004
466,1.2340799570083618,1.6460227966308594,0.6346153846153846,0.8461538461538461,0.5,0.6428571428571429,0.0004
467,1.1308417916297913,1.500260353088379,0.7115384615384616,0.8269230769230769,0.5,0.7142857142857143,0.0004
468,0.9570508599281311,1.4832442998886108,0.7307692307692307,0.8461538461538461,0.42857142857142855,0.7857142857142857,0.0004
469,1.059336245059967,1.769043207168579,0.6346153846153846,0.8461538461538461,0.5714285714285714,0.5,0.0004
470,1.014366865158081,1.5605270862579346,0.6923076923076923,0.8653846153846154,0.6428571428571429,0.5714285714285714,0.0004
471,1.1471988558769226,1.6251308917999268,0.5961538461538461,0.8653846153846154,0.5714285714285714,0.5,0.0004
472,0.9985122084617615,1.3769676685333252,0.6153846153846154,0.8653846153846154,0.5,0.6428571428571429,0.0004
473,1.0752457976341248,1.6121506690979004,0.6923076923076923,0.8846153846153846,0.5714285714285714,0.5,0.0004
474,1.1606815457344055,1.4803792238235474,0.6923076923076923,0.8076923076923077,0.5,0.6428571428571429,0.0004
475,1.1179354190826416,2.1003975868225098,0.6538461538461539,0.8653846153846154,0.42857142857142855,0.5714285714285714,0.0004
476,1.1823782324790955,2.019397020339966,0.5961538461538461,0.8461538461538461,0.42857142857142855,0.7142857142857143,0.0004
477,1.281244695186615,2.016286611557007,0.5961538461538461,0.8653846153846154,0.5,0.5,0.0004
478,1.0618095397949219,1.8768949508666992,0.7115384615384616,0.8846153846153846,0.42857142857142855,0.5,0.0004
479,1.0782589316368103,2.013073444366455,0.5769230769230769,0.8653846153846154,0.5,0.35714285714285715,0.0004
480,1.1464454531669617,1.965537667274475,0.6346153846153846,0.8653846153846154,0.35714285714285715,0.7142857142857143,0.0004
481,1.1420142650604248,1.7299456596374512,0.6923076923076923,0.8269230769230769,0.5,0.5,0.0004
482,1.0152207016944885,1.752406358718872,0.6346153846153846,0.8461538461538461,0.42857142857142855,0.6428571428571429,0.0004
483,1.0125168859958649,1.9437519311904907,0.6923076923076923,0.9038461538461539,0.42857142857142855,0.5,0.0004
484,1.2051604986190796,1.7256802320480347,0.5384615384615384,0.8269230769230769,0.5,0.6428571428571429,0.0004
485,1.0554518103599548,1.9018479585647583,0.7115384615384616,0.7692307692307693,0.35714285714285715,0.5714285714285714,0.0004
486,1.0464184284210205,1.8886997699737549,0.6153846153846154,0.9230769230769231,0.42857142857142855,0.5,0.0004
487,1.0658698678016663,1.7502760887145996,0.6153846153846154,0.8653846153846154,0.42857142857142855,0.6428571428571429,0.0004
488,1.0317434668540955,1.8531484603881836,0.6153846153846154,0.9038461538461539,0.5,0.6428571428571429,0.0004
489,1.1305380463600159,2.075855255126953,0.5769230769230769,0.8461538461538461,0.2857142857142857,0.7857142857142857,0.0004
490,1.2822935581207275,1.8814597129821777,0.5769230769230769,0.8653846153846154,0.42857142857142855,0.5,0.0004
491,0.9085386395454407,2.06430721282959,0.6923076923076923,0.9423076923076923,0.42857142857142855,0.42857142857142855,0.0004
492,1.2038745284080505,1.919309377670288,0.6923076923076923,0.8269230769230769,0.35714285714285715,0.6428571428571429,0.0004
493,1.0853834450244904,1.8275147676467896,0.6538461538461539,0.8269230769230769,0.35714285714285715,0.7857142857142857,0.0004
494,1.117823302745819,1.8877979516983032,0.6153846153846154,0.8461538461538461,0.5,0.6428571428571429,0.0004
495,0.8701686859130859,1.4202477931976318,0.6730769230769231,0.8653846153846154,0.5714285714285714,0.5714285714285714,0.0004
496,1.1900212168693542,2.2912535667419434,0.6153846153846154,0.8653846153846154,0.35714285714285715,0.42857142857142855,0.0004
497,1.1428037583827972,2.0950093269348145,0.6730769230769231,0.8461538461538461,0.5,0.42857142857142855,0.0004
498,1.0447351038455963,1.9755373001098633,0.7115384615384616,0.8653846153846154,0.5,0.6428571428571429,0.0004
499,0.8299351930618286,1.9390727281570435,0.8076923076923077,0.9038461538461539,0.5,0.5714285714285714,0.0004
500,1.2723440527915955,2.26005482673645,0.6346153846153846,0.8461538461538461,0.35714285714285715,0.42857142857142855,0.0004
501,0.896293580532074,1.9614487886428833,0.7307692307692307,0.8461538461538461,0.5,0.5714285714285714,0.0004
502,1.1437354981899261,1.9953641891479492,0.5961538461538461,0.8076923076923077,0.5,0.6428571428571429,0.0004
503,1.032949447631836,2.4900455474853516,0.6923076923076923,0.8653846153846154,0.5,0.5,0.0004
504,1.0028271675109863,1.9285926818847656,0.6923076923076923,0.8461538461538461,0.5,0.5714285714285714,0.0004
505,0.9818241596221924,2.1500587463378906,0.7692307692307693,0.9038461538461539,0.42857142857142855,0.5,0.0004
506,0.9848273992538452,2.081637382507324,0.6923076923076923,0.8653846153846154,0.2857142857142857,0.7857142857142857,0.0004
507,1.1484128832817078,1.6807905435562134,0.6538461538461539,0.8269230769230769,0.42857142857142855,0.7142857142857143,0.0004
508,1.104284405708313,1.6734857559204102,0.6538461538461539,0.8269230769230769,0.42857142857142855,0.7142857142857143,0.0004
509,1.1009086966514587,1.6129010915756226,0.6923076923076923,0.8461538461538461,0.35714285714285715,0.7142857142857143,0.0004
510,0.9623867273330688,1.4923505783081055,0.7692307692307693,0.8461538461538461,0.42857142857142855,0.7142857142857143,0.0004
511,1.132015585899353,1.777579426765442,0.6730769230769231,0.8269230769230769,0.35714285714285715,0.7142857142857143,0.0004
512,1.2964504957199097,1.8666443824768066,0.7115384615384616,0.8269230769230769,0.5,0.6428571428571429,0.0004
513,1.1607956886291504,2.311345100402832,0.6346153846153846,0.8461538461538461,0.35714285714285715,0.35714285714285715,0.0004
514,1.101327896118164,2.0245187282562256,0.75,0.8653846153846154,0.5,0.5,0.0004
515,1.0681989789009094,1.9530436992645264,0.7115384615384616,0.9038461538461539,0.5714285714285714,0.35714285714285715,0.0004
516,0.814921647310257,1.792266607284546,0.8076923076923077,0.9038461538461539,0.5,0.5714285714285714,0.0004
517,1.1873988509178162,1.8642815351486206,0.6923076923076923,0.8653846153846154,0.5,0.42857142857142855,0.0004
518,1.0221033692359924,2.117601156234741,0.75,0.8846153846153846,0.5,0.5,0.0004
519,0.9103949666023254,1.795937180519104,0.7307692307692307,0.8653846153846154,0.5,0.5714285714285714,0.0004
520,0.9051993191242218,2.6077890396118164,0.7307692307692307,0.9230769230769231,0.2857142857142857,0.42857142857142855,0.0004
521,1.0482738018035889,2.1783533096313477,0.6730769230769231,0.8653846153846154,0.2857142857142857,0.6428571428571429,0.0004
522,0.9051282405853271,1.8087095022201538,0.6923076923076923,0.9423076923076923,0.5,0.6428571428571429,0.0004
523,1.0915300846099854,2.02699613571167,0.6923076923076923,0.8269230769230769,0.5,0.5,0.0004
524,1.1332669854164124,2.1235134601593018,0.6538461538461539,0.7884615384615384,0.42857142857142855,0.42857142857142855,0.0004
525,1.0251944661140442,1.5641905069351196,0.6923076923076923,0.8653846153846154,0.5,0.6428571428571429,0.0004
526,1.0039933919906616,1.864605188369751,0.6346153846153846,0.9038461538461539,0.5714285714285714,0.5714285714285714,0.0004
527,1.206940233707428,1.9519193172454834,0.6538461538461539,0.8076923076923077,0.5,0.5714285714285714,0.0004
528,1.0606753528118134,1.8905140161514282,0.6730769230769231,0.8461538461538461,0.35714285714285715,0.7142857142857143,0.0004
529,1.0484880805015564,2.0188722610473633,0.7115384615384616,0.8461538461538461,0.42857142857142855,0.6428571428571429,0.0004
530,1.3303839564323425,1.8826565742492676,0.5576923076923077,0.7884615384615384,0.5,0.5,0.0004
531,1.0003710687160492,2.1065757274627686,0.75,0.8461538461538461,0.35714285714285715,0.6428571428571429,0.0004
532,1.1875929534435272,1.973670482635498,0.6730769230769231,0.8461538461538461,0.35714285714285715,0.5714285714285714,0.0004
533,1.0541877150535583,1.8333942890167236,0.6538461538461539,0.8269230769230769,0.2857142857142857,0.7142857142857143,0.0004
534,1.217908501625061,1.7938637733459473,0.5384615384615384,0.8461538461538461,0.5,0.5714285714285714,0.0004
535,0.9758592247962952,1.8789887428283691,0.7307692307692307,0.8653846153846154,0.35714285714285715,0.6428571428571429,0.0004
536,1.0643084049224854,2.0942959785461426,0.7115384615384616,0.9038461538461539,0.35714285714285715,0.42857142857142855,0.0004
537,0.8355903625488281,1.8974382877349854,0.75,0.9615384615384616,0.42857142857142855,0.6428571428571429,0.0004
538,1.2111337780952454,2.0903401374816895,0.6346153846153846,0.8653846153846154,0.42857142857142855,0.5714285714285714,0.0004
539,0.9703850746154785,1.688478946685791,0.6153846153846154,0.8846153846153846,0.5,0.7142857142857143,0.0004
540,1.0731493830680847,2.0003652572631836,0.6538461538461539,0.9038461538461539,0.5,0.5714285714285714,0.0004
541,1.0286727249622345,1.944912314414978,0.6923076923076923,0.8269230769230769,0.5,0.5714285714285714,0.0004
542,1.022607684135437,2.0714848041534424,0.6538461538461539,0.8846153846153846,0.5714285714285714,0.35714285714285715,0.0004
543,0.8943808674812317,1.9377983808517456,0.7307692307692307,0.8846153846153846,0.42857142857142855,0.7142857142857143,0.0004
544,1.2710765600204468,1.5175721645355225,0.5961538461538461,0.8846153846153846,0.5714285714285714,0.6428571428571429,0.0004
545,0.9952363967895508,2.444528102874756,0.6730769230769231,0.9038461538461539,0.42857142857142855,0.5714285714285714,0.0004
546,1.3645681142807007,1.9891576766967773,0.7692307692307693,0.9038461538461539,0.5,0.5714285714285714,0.0004
547,1.2613328695297241,1.7220098972320557,0.6538461538461539,0.8653846153846154,0.42857142857142855,0.6428571428571429,0.0004
548,1.0813932418823242,1.7299590110778809,0.7307692307692307,0.8461538461538461,0.42857142857142855,0.5714285714285714,0.0004
549,1.0654349625110626,1.42479407787323,0.6153846153846154,0.9038461538461539,0.5714285714285714,0.5,0.0004
550,1.048693299293518,1.9729580879211426,0.6538461538461539,0.8653846153846154,0.42857142857142855,0.42857142857142855,0.0004
551,1.124217927455902,1.7509685754776,0.5961538461538461,0.8461538461538461,0.35714285714285715,0.5714285714285714,0.0004
552,1.0789909362792969,1.9665155410766602,0.6538461538461539,0.8461538461538461,0.42857142857142855,0.5714285714285714,0.0004
553,1.1166303753852844,2.6737780570983887,0.6153846153846154,0.8461538461538461,0.2857142857142857,0.35714285714285715,0.0004
554,0.9509971141815186,2.4244256019592285,0.6923076923076923,0.9230769230769231,0.35714285714285715,0.42857142857142855,0.0004
555,1.17685005068779,2.321831226348877,0.7307692307692307,0.8653846153846154,0.5714285714285714,0.42857142857142855,0.0004
556,1.141789972782135,1.8406782150268555,0.6923076923076923,0.8076923076923077,0.5714285714285714,0.6428571428571429,0.0004
557,0.9316433072090149,1.923443078994751,0.75,0.8653846153846154,0.5,0.42857142857142855,0.0004
558,1.3376613855361938,2.0454978942871094,0.6346153846153846,0.8076923076923077,0.42857142857142855,0.5714285714285714,0.0004
559,1.3135846853256226,2.153702735900879,0.6346153846153846,0.8269230769230769,0.5,0.6428571428571429,0.0004
560,1.0067023932933807,1.83536696434021,0.6346153846153846,0.8653846153846154,0.5,0.6428571428571429,0.0004
561,0.940025806427002,1.3096776008605957,0.6923076923076923,0.8461538461538461,0.5714285714285714,0.6428571428571429,0.0004
562,0.9673038721084595,1.5173759460449219,0.7307692307692307,0.8653846153846154,0.5714285714285714,0.5714285714285714,0.0004
563,0.8293481171131134,1.7192130088806152,0.75,0.8653846153846154,0.5714285714285714,0.5714285714285714,0.0004
564,1.0976547598838806,1.6311489343643188,0.6153846153846154,0.8653846153846154,0.5714285714285714,0.5,0.0004
565,0.8100107908248901,2.433340549468994,0.7115384615384616,0.8846153846153846,0.42857142857142855,0.2857142857142857,0.0004
566,1.047075092792511,1.7345366477966309,0.6346153846153846,0.9038461538461539,0.5,0.5714285714285714,0.0004
567,1.1252475380897522,1.6606976985931396,0.6923076923076923,0.8269230769230769,0.5714285714285714,0.5714285714285714,0.0004
568,1.1369212567806244,1.7190965414047241,0.6538461538461539,0.8461538461538461,0.35714285714285715,0.7142857142857143,0.0004
569,1.2033569812774658,1.6150538921356201,0.6346153846153846,0.8269230769230769,0.5,0.5714285714285714,0.0004
570,0.8531102538108826,2.427234172821045,0.6730769230769231,0.9615384615384616,0.42857142857142855,0.2857142857142857,0.0004
571,1.0844888389110565,2.1089816093444824,0.6923076923076923,0.8653846153846154,0.35714285714285715,0.5,0.0004
572,1.3027823567390442,1.560020089149475,0.6153846153846154,0.8461538461538461,0.5,0.7142857142857143,0.0004
573,1.1341210007667542,1.5124619007110596,0.6346153846153846,0.8846153846153846,0.42857142857142855,0.6428571428571429,0.0004
574,1.0779181122779846,1.7023345232009888,0.6538461538461539,0.8653846153846154,0.5714285714285714,0.5,0.0004
575,0.9987784624099731,2.315682888031006,0.5961538461538461,0.8846153846153846,0.35714285714285715,0.42857142857142855,0.0004
576,1.1540216207504272,1.856504201889038,0.6538461538461539,0.8846153846153846,0.42857142857142855,0.6428571428571429,0.0004
577,1.1512165069580078,1.8516879081726074,0.5961538461538461,0.8846153846153846,0.35714285714285715,0.6428571428571429,0.0004
578,1.119273066520691,1.974147915840149,0.6730769230769231,0.8846153846153846,0.42857142857142855,0.7142857142857143,0.0004
579,1.0917837023735046,2.313839912414551,0.6923076923076923,0.8653846153846154,0.5,0.42857142857142855,0.0004
580,1.1737093329429626,2.008035182952881,0.5961538461538461,0.8461538461538461,0.5,0.6428571428571429,0.0004
581,1.3327814936637878,1.6675828695297241,0.5769230769230769,0.8461538461538461,0.5714285714285714,0.7142857142857143,0.0004
582,1.2145482301712036,1.8507044315338135,0.6153846153846154,0.8461538461538461,0.42857142857142855,0.6428571428571429,0.0004
583,1.2395800352096558,2.1583762168884277,0.5576923076923077,0.8269230769230769,0.42857142857142855,0.6428571428571429,0.0004
584,0.978038489818573,2.389199733734131,0.6153846153846154,0.9038461538461539,0.42857142857142855,0.42857142857142855,0.0004
585,1.035248339176178,1.7090107202529907,0.6346153846153846,0.8846153846153846,0.5714285714285714,0.5714285714285714,0.0004
586,0.8224955797195435,2.3051862716674805,0.7307692307692307,0.9230769230769231,0.35714285714285715,0.42857142857142855,0.0004
587,0.9979899525642395,2.0978574752807617,0.6730769230769231,0.8653846153846154,0.5,0.5,0.0004
588,1.2066973447799683,1.7728041410446167,0.5961538461538461,0.8653846153846154,0.5714285714285714,0.5714285714285714,0.0004
589,1.039972960948944,2.772521495819092,0.6923076923076923,0.8846153846153846,0.42857142857142855,0.35714285714285715,0.0004
590,0.9923710823059082,2.3225388526916504,0.6923076923076923,0.9230769230769231,0.5714285714285714,0.42857142857142855,0.0004
591,1.2882472276687622,2.0904033184051514,0.5576923076923077,0.7884615384615384,0.42857142857142855,0.7142857142857143,0.0004
592,0.965961754322052,2.1999454498291016,0.7115384615384616,0.9038461538461539,0.5,0.5,0.0004
593,1.0176371932029724,2.0980372428894043,0.6923076923076923,0.8461538461538461,0.5,0.5714285714285714,0.0004
594,1.2239501774311066,2.282499313354492,0.6346153846153846,0.8653846153846154,0.5,0.42857142857142855,0.0004
595,1.0438657999038696,1.7610386610031128,0.6923076923076923,0.8846153846153846,0.5,0.7142857142857143,0.0004
596,1.0007808208465576,1.8557528257369995,0.6346153846153846,0.8846153846153846,0.42857142857142855,0.7142857142857143,0.0004
597,0.98759326338768,1.7212588787078857,0.7692307692307693,0.8653846153846154,0.6428571428571429,0.7142857142857143,0.0004
598,1.1670377254486084,2.0018482208251953,0.5769230769230769,0.8461538461538461,0.6428571428571429,0.5714285714285714,0.0004
599,1.236934781074524,1.7663447856903076,0.5576923076923077,0.7884615384615384,0.6428571428571429,0.5714285714285714,0.0004
600,1.1289445459842682,1.6592466831207275,0.6538461538461539,0.8269230769230769,0.42857142857142855,0.6428571428571429,0.0004
601,1.21315997838974,1.7918882369995117,0.6923076923076923,0.8269230769230769,0.5714285714285714,0.5714285714285714,0.0004
602,0.9347820281982422,1.5078285932540894,0.7115384615384616,0.9230769230769231,0.5,0.7142857142857143,0.0004
603,1.0975016355514526,2.082685947418213,0.6538461538461539,0.8076923076923077,0.35714285714285715,0.5,0.0004
604,1.1648253202438354,1.8322194814682007,0.5576923076923077,0.8653846153846154,0.5,0.5714285714285714,0.0004
605,1.0434292554855347,1.6243828535079956,0.6730769230769231,0.9038461538461539,0.42857142857142855,0.6428571428571429,0.0004
606,1.029331922531128,1.789891004562378,0.6346153846153846,0.8846153846153846,0.42857142857142855,0.5714285714285714,0.0004
607,1.1407762169837952,1.6418344974517822,0.6153846153846154,0.8846153846153846,0.42857142857142855,0.5714285714285714,0.0004
608,0.9909333884716034,1.5786190032958984,0.6538461538461539,0.8269230769230769,0.35714285714285715,0.7857142857142857,0.0004
609,1.3040667176246643,1.7427172660827637,0.5769230769230769,0.8461538461538461,0.5714285714285714,0.5,0.0004
610,0.9672221541404724,2.0192291736602783,0.6346153846153846,0.9038461538461539,0.42857142857142855,0.5,0.0004
611,0.9419465661048889,1.6458998918533325,0.6730769230769231,0.9230769230769231,0.5714285714285714,0.42857142857142855,0.0004
612,1.1307262182235718,1.8652342557907104,0.6923076923076923,0.8269230769230769,0.5,0.5714285714285714,0.0004
613,1.1988393664360046,2.1339943408966064,0.6346153846153846,0.8269230769230769,0.5,0.6428571428571429,0.0004
614,1.2268778681755066,1.6560592651367188,0.5769230769230769,0.8461538461538461,0.5,0.7857142857142857,0.0004
615,0.9180404543876648,2.1634886264801025,0.7115384615384616,0.8653846153846154,0.5714285714285714,0.6428571428571429,0.0004
616,0.9841675162315369,2.6836023330688477,0.6730769230769231,0.8653846153846154,0.2857142857142857,0.5,0.0004
617,1.002977579832077,2.494516372680664,0.6346153846153846,0.9038461538461539,0.5,0.42857142857142855,0.0004
618,1.1158098876476288,1.922389030456543,0.6923076923076923,0.8076923076923077,0.5714285714285714,0.5714285714285714,0.0004
619,1.182507336139679,2.3850302696228027,0.7115384615384616,0.8846153846153846,0.2857142857142857,0.6428571428571429,0.0004
620,1.1570726335048676,2.5148491859436035,0.6538461538461539,0.8846153846153846,0.5,0.2857142857142857,0.0004
621,1.2270061373710632,2.6415486335754395,0.6153846153846154,0.8076923076923077,0.42857142857142855,0.35714285714285715,0.0004
622,1.1094785034656525,2.240546941757202,0.6923076923076923,0.9038461538461539,0.5,0.5714285714285714,0.0004
623,1.1642372012138367,2.7849788665771484,0.6730769230769231,0.9038461538461539,0.35714285714285715,0.2857142857142857,0.0004
624,1.2262881994247437,2.3386077880859375,0.6923076923076923,0.8653846153846154,0.5,0.35714285714285715,0.0004
625,1.069173514842987,2.203943967819214,0.6923076923076923,0.8269230769230769,0.5,0.5,0.0004
626,1.0333718359470367,1.8927512168884277,0.6538461538461539,0.8846153846153846,0.35714285714285715,0.7142857142857143,0.0004
627,1.0194920301437378,2.3330841064453125,0.7115384615384616,0.8461538461538461,0.5,0.5,0.0004
628,1.0321517586708069,2.7694032192230225,0.7115384615384616,0.8269230769230769,0.5,0.35714285714285715,0.0004
629,0.9210182428359985,2.715524911880493,0.7884615384615384,0.8653846153846154,0.5,0.42857142857142855,0.0004
630,0.9507651627063751,2.360481023788452,0.7307692307692307,0.8461538461538461,0.5714285714285714,0.42857142857142855,0.0004
631,1.204277217388153,2.640599250793457,0.6346153846153846,0.7884615384615384,0.42857142857142855,0.5714285714285714,0.0004
632,1.2819281220436096,2.770890235900879,0.5769230769230769,0.8653846153846154,0.35714285714285715,0.5,0.0004
633,1.0285619497299194,1.8674254417419434,0.6730769230769231,0.8461538461538461,0.5714285714285714,0.6428571428571429,0.0004
634,1.1118581891059875,2.265092134475708,0.6923076923076923,0.8461538461538461,0.5714285714285714,0.5,0.0004
635,1.1641374826431274,1.9088380336761475,0.6730769230769231,0.8653846153846154,0.35714285714285715,0.6428571428571429,0.0004
636,1.0082488059997559,1.4905145168304443,0.6923076923076923,0.8269230769230769,0.5714285714285714,0.7142857142857143,0.0004
637,1.158555805683136,1.2551909685134888,0.6538461538461539,0.8076923076923077,0.6428571428571429,0.7857142857142857,0.0004
638,1.2031434774398804,1.7668159008026123,0.5961538461538461,0.8269230769230769,0.35714285714285715,0.7142857142857143,0.0004
639,1.1347271800041199,1.6799678802490234,0.6346153846153846,0.8269230769230769,0.5,0.5714285714285714,0.0004
640,1.1108552813529968,1.5089714527130127,0.6346153846153846,0.8269230769230769,0.5,0.7142857142857143,0.0004
641,0.9782094955444336,1.5160629749298096,0.6538461538461539,0.8461538461538461,0.5714285714285714,0.6428571428571429,0.0004
642,1.0666673183441162,1.7461451292037964,0.75,0.8846153846153846,0.5714285714285714,0.42857142857142855,0.0004
643,0.9364766478538513,1.554434061050415,0.7692307692307693,0.8846153846153846,0.42857142857142855,0.6428571428571429,0.0004
644,0.9442725777626038,1.616587519645691,0.75,0.8269230769230769,0.5714285714285714,0.5714285714285714,0.0004
645,1.2701252698898315,2.27309513092041,0.6730769230769231,0.8461538461538461,0.42857142857142855,0.35714285714285715,0.0004
646,1.0211243033409119,1.8192164897918701,0.7307692307692307,0.8653846153846154,0.35714285714285715,0.7142857142857143,0.0004
647,1.0430763959884644,2.229818344116211,0.6923076923076923,0.8461538461538461,0.5,0.5714285714285714,0.0004
648,1.005466878414154,1.6082600355148315,0.6538461538461539,0.8846153846153846,0.42857142857142855,0.7857142857142857,0.0004
649,0.8903922438621521,2.296957015991211,0.75,0.9230769230769231,0.42857142857142855,0.5,0.0004
650,0.9748084545135498,1.79572331905365,0.6730769230769231,0.8461538461538461,0.5714285714285714,0.7142857142857143,0.0004
651,1.3175165057182312,2.172534942626953,0.5576923076923077,0.8653846153846154,0.5,0.6428571428571429,0.0004
652,0.924053817987442,1.9782123565673828,0.6730769230769231,0.9038461538461539,0.5,0.5,0.0004
653,1.2718781232833862,1.6965231895446777,0.5769230769230769,0.8076923076923077,0.5714285714285714,0.7142857142857143,0.0004
654,0.9641312062740326,1.950034737586975,0.7307692307692307,0.8653846153846154,0.5,0.5,0.0004
655,1.2031850814819336,2.4139485359191895,0.6538461538461539,0.8461538461538461,0.42857142857142855,0.5,0.0004
656,1.1922603249549866,2.124197006225586,0.6346153846153846,0.8461538461538461,0.42857142857142855,0.42857142857142855,0.0004
657,1.0499923825263977,2.26847767829895,0.6923076923076923,0.8653846153846154,0.42857142857142855,0.5714285714285714,0.0004
658,1.2591756582260132,1.9790349006652832,0.5576923076923077,0.8461538461538461,0.5,0.5,0.0004
659,1.1085302829742432,2.283308506011963,0.6730769230769231,0.8653846153846154,0.42857142857142855,0.5,0.0004
660,1.1088599562644958,1.8489909172058105,0.6346153846153846,0.9038461538461539,0.5,0.5714285714285714,0.0004
661,1.2398095726966858,1.983522653579712,0.5961538461538461,0.8269230769230769,0.5,0.5714285714285714,0.0004
662,1.316382348537445,1.8449397087097168,0.5576923076923077,0.8653846153846154,0.5,0.5714285714285714,0.0004
663,1.050058513879776,2.0651750564575195,0.6538461538461539,0.8653846153846154,0.5714285714285714,0.5714285714285714,0.0004
664,1.0025229454040527,2.443798065185547,0.7115384615384616,0.8653846153846154,0.35714285714285715,0.5,0.0004
665,1.181972086429596,2.4985716342926025,0.5769230769230769,0.8461538461538461,0.42857142857142855,0.5,0.0004
666,1.070189893245697,1.8927264213562012,0.5961538461538461,0.8846153846153846,0.5714285714285714,0.7142857142857143,0.0004
667,1.0818230211734772,1.8024109601974487,0.6346153846153846,0.8269230769230769,0.5714285714285714,0.5714285714285714,0.0004
668,1.078637719154358,2.639915943145752,0.6538461538461539,0.8653846153846154,0.5,0.35714285714285715,0.0004
669,1.0953821539878845,1.871584177017212,0.6346153846153846,0.8461538461538461,0.42857142857142855,0.6428571428571429,0.0004
670,1.0449053645133972,2.155168056488037,0.6346153846153846,0.8846153846153846,0.5714285714285714,0.42857142857142855,0.0004
671,1.1127300560474396,2.622767448425293,0.75,0.8269230769230769,0.42857142857142855,0.2857142857142857,0.0004
672,0.9746599197387695,2.2221803665161133,0.6923076923076923,0.9038461538461539,0.42857142857142855,0.42857142857142855,0.0004
673,1.1325035095214844,2.317138910293579,0.6346153846153846,0.8076923076923077,0.5714285714285714,0.42857142857142855,0.0004
674,1.085567593574524,2.5044164657592773,0.6346153846153846,0.8653846153846154,0.35714285714285715,0.42857142857142855,0.0004
675,1.173084318637848,2.0408687591552734,0.6538461538461539,0.8461538461538461,0.35714285714285715,0.6428571428571429,0.0004
676,1.142135739326477,1.7623536586761475,0.6153846153846154,0.8461538461538461,0.42857142857142855,0.6428571428571429,0.0004
677,1.0255773663520813,1.7718479633331299,0.5961538461538461,0.8846153846153846,0.5,0.5714285714285714,0.0004
678,1.1535828113555908,2.025763511657715,0.6153846153846154,0.8653846153846154,0.5,0.5,0.0004
679,1.1699249744415283,1.6633925437927246,0.6153846153846154,0.8461538461538461,0.5,0.7142857142857143,0.0004
680,0.9529691934585571,1.9821090698242188,0.6730769230769231,0.8846153846153846,0.5714285714285714,0.5714285714285714,0.0004
681,1.2357078790664673,2.211398124694824,0.5961538461538461,0.8269230769230769,0.5,0.5,0.0004
682,0.9966062307357788,2.258824348449707,0.75,0.8846153846153846,0.5,0.6428571428571429,0.0004
683,1.014299213886261,1.8385379314422607,0.6538461538461539,0.8461538461538461,0.5,0.7857142857142857,0.0004
684,1.067099690437317,1.8121674060821533,0.7115384615384616,0.8076923076923077,0.5,0.6428571428571429,0.0004
685,1.2560752630233765,2.443168878555298,0.6153846153846154,0.7307692307692307,0.42857142857142855,0.5,0.0004
686,1.1688844561576843,2.3596317768096924,0.5192307692307693,0.8846153846153846,0.42857142857142855,0.5714285714285714,0.0004
687,0.9991132020950317,2.0507373809814453,0.7115384615384616,0.8653846153846154,0.5714285714285714,0.6428571428571429,0.0004
688,1.0954672694206238,1.5279263257980347,0.5961538461538461,0.8653846153846154,0.2857142857142857,0.8571428571428571,0.0004
689,1.1845898628234863,2.380998134613037,0.6153846153846154,0.8269230769230769,0.42857142857142855,0.5,0.0004
690,1.1801557540893555,2.4204812049865723,0.6153846153846154,0.8461538461538461,0.35714285714285715,0.42857142857142855,0.0004
691,1.1855140924453735,2.4654664993286133,0.6538461538461539,0.8269230769230769,0.42857142857142855,0.5,0.0004
692,1.200478196144104,2.1564323902130127,0.6346153846153846,0.8653846153846154,0.5,0.5,0.0004
693,1.21321439743042,2.3530664443969727,0.6923076923076923,0.8846153846153846,0.35714285714285715,0.35714285714285715,0.0004
694,0.9637998342514038,1.849591612815857,0.6153846153846154,0.8846153846153846,0.35714285714285715,0.7142857142857143,0.0004
695,1.1697635054588318,1.393750786781311,0.6538461538461539,0.8461538461538461,0.5714285714285714,0.7857142857142857,0.0004
696,1.0443089306354523,1.5294569730758667,0.7115384615384616,0.8461538461538461,0.5,0.6428571428571429,0.0004
697,0.9884617328643799,2.3066141605377197,0.6730769230769231,0.8653846153846154,0.35714285714285715,0.5,0.0004
698,1.205496609210968,1.8300251960754395,0.6153846153846154,0.8846153846153846,0.5,0.5714285714285714,0.0004
699,0.8897844552993774,1.5607573986053467,0.6923076923076923,0.8461538461538461,0.5714285714285714,0.7142857142857143,0.0004
700,0.8309329152107239,2.3376071453094482,0.75,0.8846153846153846,0.42857142857142855,0.42857142857142855,0.0004
701,1.1156045198440552,2.159609794616699,0.6153846153846154,0.8461538461538461,0.42857142857142855,0.5,0.0004
702,1.2320077419281006,2.1719584465026855,0.6730769230769231,0.8846153846153846,0.42857142857142855,0.5,0.0004
703,1.2670764327049255,1.5510945320129395,0.6153846153846154,0.8846153846153846,0.5,0.7857142857142857,0.0004
704,0.9955660104751587,1.8011142015457153,0.6923076923076923,0.8461538461538461,0.5714285714285714,0.6428571428571429,0.0004
705,1.0195450484752655,1.9196856021881104,0.6538461538461539,0.8846153846153846,0.42857142857142855,0.7142857142857143,0.0004
706,1.0307904481887817,1.738969087600708,0.7307692307692307,0.8461538461538461,0.7142857142857143,0.5714285714285714,0.0004
707,1.1551789343357086,2.155233860015869,0.5769230769230769,0.8846153846153846,0.42857142857142855,0.5,0.0004
708,1.0279866456985474,1.8139348030090332,0.7307692307692307,0.8846153846153846,0.42857142857142855,0.7857142857142857,0.0004
709,1.259561836719513,2.2482528686523438,0.6153846153846154,0.8461538461538461,0.5714285714285714,0.5,0.0004
710,0.9719612896442413,1.8679561614990234,0.6346153846153846,0.9423076923076923,0.42857142857142855,0.7142857142857143,0.0004
711,1.0081536769866943,1.8474998474121094,0.5961538461538461,0.8076923076923077,0.5,0.6428571428571429,0.0004
712,0.954870343208313,2.2141926288604736,0.6730769230769231,0.9423076923076923,0.42857142857142855,0.7142857142857143,0.0004
713,1.0752789974212646,1.577498197555542,0.6346153846153846,0.8846153846153846,0.2857142857142857,0.9285714285714286,0.0004
714,1.0397901237010956,2.5515379905700684,0.6538461538461539,0.9038461538461539,0.35714285714285715,0.5714285714285714,0.0004
715,1.1497169733047485,1.8440899848937988,0.6923076923076923,0.8461538461538461,0.5,0.7142857142857143,0.0004
716,1.2043639421463013,1.8161814212799072,0.6346153846153846,0.8461538461538461,0.5714285714285714,0.7142857142857143,0.0004
717,1.1774902939796448,1.5569205284118652,0.6538461538461539,0.8653846153846154,0.5,0.8571428571428571,0.0004
718,1.031261920928955,1.7718236446380615,0.6153846153846154,0.8846153846153846,0.5714285714285714,0.7142857142857143,0.0004
719,1.0564009547233582,1.570530652999878,0.6538461538461539,0.8846153846153846,0.6428571428571429,0.7142857142857143,0.0004
720,1.1042365431785583,2.493389129638672,0.6923076923076923,0.8461538461538461,0.35714285714285715,0.5714285714285714,0.0004
721,0.7656666040420532,1.6717956066131592,0.7884615384615384,0.9038461538461539,0.5714285714285714,0.7857142857142857,0.0004
722,0.9982513785362244,2.0481979846954346,0.7884615384615384,0.8653846153846154,0.42857142857142855,0.6428571428571429,0.0004
723,1.028314471244812,2.325483798980713,0.6538461538461539,0.8846153846153846,0.42857142857142855,0.5,0.0004
724,0.8698501586914062,1.4092111587524414,0.75,0.9038461538461539,0.5,0.7142857142857143,0.0004
725,1.0682466626167297,1.8863859176635742,0.6538461538461539,0.9038461538461539,0.42857142857142855,0.5714285714285714,0.0004
726,0.9900762438774109,2.215280055999756,0.6923076923076923,0.8461538461538461,0.42857142857142855,0.5714285714285714,0.0004
727,1.073642075061798,1.7571572065353394,0.6346153846153846,0.8846153846153846,0.42857142857142855,0.7142857142857143,0.0004
728,1.0071937143802643,1.876826524734497,0.6923076923076923,0.8846153846153846,0.5,0.7142857142857143,0.0004
729,0.975839763879776,2.2064015865325928,0.6923076923076923,0.8461538461538461,0.42857142857142855,0.5,0.0004
730,0.9208971560001373,2.38909649848938,0.7307692307692307,0.9230769230769231,0.42857142857142855,0.5,0.0004
731,0.9646365642547607,2.4320859909057617,0.6730769230769231,0.8846153846153846,0.5,0.5,0.0004
732,1.0121116042137146,2.8770599365234375,0.7692307692307693,0.8653846153846154,0.42857142857142855,0.35714285714285715,0.0004
733,1.217801809310913,2.145717144012451,0.6346153846153846,0.8653846153846154,0.5714285714285714,0.5714285714285714,0.0004
734,1.1059967875480652,2.828371524810791,0.6153846153846154,0.8846153846153846,0.2857142857142857,0.5,0.0004
735,1.1119062304496765,1.7268126010894775,0.6153846153846154,0.8846153846153846,0.5,0.6428571428571429,0.0004
736,1.000075340270996,2.2478795051574707,0.7307692307692307,0.8653846153846154,0.35714285714285715,0.5714285714285714,0.0004
737,1.0303141474723816,2.388324737548828,0.6538461538461539,0.8269230769230769,0.5,0.5714285714285714,0.0004
738,1.230937898159027,1.9537794589996338,0.5961538461538461,0.8269230769230769,0.5,0.6428571428571429,0.0004
739,1.252024233341217,1.9971263408660889,0.6153846153846154,0.8461538461538461,0.5714285714285714,0.6428571428571429,0.0004
740,1.1860170364379883,2.2285988330841064,0.7307692307692307,0.8461538461538461,0.21428571428571427,0.6428571428571429,0.0004
741,0.8924086391925812,1.9108707904815674,0.7692307692307693,0.8653846153846154,0.5,0.5714285714285714,0.0004
742,0.9395069479942322,1.5539082288742065,0.6346153846153846,0.8846153846153846,0.5714285714285714,0.5714285714285714,0.0004
743,1.0894868075847626,1.7981034517288208,0.6538461538461539,0.8269230769230769,0.5,0.5714285714285714,0.0004
744,1.2450986206531525,1.952688455581665,0.6538461538461539,0.8846153846153846,0.5,0.5714285714285714,0.0004
745,1.0426619350910187,2.1063764095306396,0.75,0.8461538461538461,0.42857142857142855,0.5714285714285714,0.0004
746,0.8789046704769135,1.9320619106292725,0.7692307692307693,0.9230769230769231,0.42857142857142855,0.5,0.0004
747,0.9112982153892517,1.8962836265563965,0.6346153846153846,0.8461538461538461,0.35714285714285715,0.6428571428571429,0.0004
748,0.8953526020050049,2.0978076457977295,0.6923076923076923,0.9038461538461539,0.42857142857142855,0.5714285714285714,0.0004
749,0.9126515686511993,2.1665215492248535,0.7115384615384616,0.9038461538461539,0.42857142857142855,0.5714285714285714,0.0004
750,0.9167373776435852,2.34478497505188,0.7692307692307693,0.8653846153846154,0.5714285714285714,0.35714285714285715,0.0004
751,0.9673020243644714,2.204622268676758,0.6346153846153846,0.9230769230769231,0.35714285714285715,0.5,0.0004
752,1.1967766284942627,1.8303248882293701,0.6153846153846154,0.8653846153846154,0.35714285714285715,0.7142857142857143,0.0004
753,1.135786771774292,1.9842772483825684,0.7115384615384616,0.8461538461538461,0.42857142857142855,0.5,0.0004
754,0.9724895358085632,2.0834922790527344,0.8269230769230769,0.8846153846153846,0.5714285714285714,0.5,0.0004
755,0.8872832953929901,1.8826370239257812,0.8076923076923077,0.8846153846153846,0.5,0.5714285714285714,0.0004
756,1.0933801531791687,2.282651901245117,0.7307692307692307,0.8461538461538461,0.42857142857142855,0.42857142857142855,0.0004
757,1.0107896029949188,1.7957863807678223,0.7115384615384616,0.8653846153846154,0.5,0.5714285714285714,0.0004
758,1.218810260295868,1.6687922477722168,0.5961538461538461,0.8269230769230769,0.5,0.7857142857142857,0.0004
759,0.8131605982780457,1.4947956800460815,0.7884615384615384,0.8653846153846154,0.5714285714285714,0.6428571428571429,0.0004
760,0.9203232824802399,2.1814255714416504,0.75,0.8269230769230769,0.42857142857142855,0.5,0.0004
761,0.9895514845848083,1.7527377605438232,0.6730769230769231,0.8846153846153846,0.5714285714285714,0.6428571428571429,0.0004
762,1.013278305530548,1.9859673976898193,0.6346153846153846,0.8846153846153846,0.5,0.5,0.0004
763,1.1718305945396423,1.9506251811981201,0.6923076923076923,0.8076923076923077,0.42857142857142855,0.5714285714285714,0.0004
764,1.0345497727394104,2.5387303829193115,0.6538461538461539,0.8846153846153846,0.35714285714285715,0.35714285714285715,0.0004
765,1.0314010381698608,1.8501808643341064,0.7307692307692307,0.8653846153846154,0.5,0.7142857142857143,0.0004
766,1.0868006944656372,1.9277220964431763,0.6923076923076923,0.8653846153846154,0.42857142857142855,0.5714285714285714,0.0004
767,1.13423490524292,1.7461934089660645,0.5769230769230769,0.8461538461538461,0.42857142857142855,0.6428571428571429,0.0004
768,1.0585126280784607,2.4675145149230957,0.6346153846153846,0.9038461538461539,0.21428571428571427,0.5714285714285714,0.0004
769,1.0786668062210083,1.6019474267959595,0.6538461538461539,0.8846153846153846,0.42857142857142855,0.7857142857142857,0.0004
770,0.9534410834312439,2.0074052810668945,0.6923076923076923,0.8653846153846154,0.42857142857142855,0.5,0.0004
771,0.8908098936080933,1.6640093326568604,0.7307692307692307,0.8846153846153846,0.5,0.6428571428571429,0.0004
772,0.9974721074104309,1.4277377128601074,0.6346153846153846,0.8653846153846154,0.42857142857142855,0.8571428571428571,0.0004
773,1.0743035078048706,1.8296747207641602,0.75,0.8269230769230769,0.42857142857142855,0.6428571428571429,0.0004
774,1.0964041948318481,1.9099116325378418,0.6538461538461539,0.8269230769230769,0.5714285714285714,0.5714285714285714,0.0004
775,1.0772414207458496,2.0253987312316895,0.7115384615384616,0.8461538461538461,0.2857142857142857,0.7142857142857143,0.0004
776,0.9413252472877502,1.8614822626113892,0.7115384615384616,0.9230769230769231,0.35714285714285715,0.7857142857142857,0.0004
777,1.1168105602264404,1.4838281869888306,0.6923076923076923,0.8653846153846154,0.5714285714285714,0.7142857142857143,0.0004
778,1.0215765535831451,2.1730453968048096,0.7692307692307693,0.8653846153846154,0.2857142857142857,0.5714285714285714,0.0004
779,1.0450807213783264,2.0083789825439453,0.6923076923076923,0.8846153846153846,0.5714285714285714,0.5,0.0004
780,1.0861664414405823,1.4486310482025146,0.6730769230769231,0.8461538461538461,0.5,0.7142857142857143,0.0004
781,1.0319292545318604,2.3028903007507324,0.7307692307692307,0.8653846153846154,0.5714285714285714,0.35714285714285715,0.0004
782,0.8028063476085663,2.7570672035217285,0.75,0.9615384615384616,0.35714285714285715,0.35714285714285715,0.0004
783,0.8949993550777435,2.4170165061950684,0.7115384615384616,0.9038461538461539,0.5,0.35714285714285715,0.0004
784,1.244387924671173,2.4131269454956055,0.6730769230769231,0.7884615384615384,0.5714285714285714,0.35714285714285715,0.0004
785,0.9656233787536621,1.7820912599563599,0.7692307692307693,0.9038461538461539,0.5714285714285714,0.5714285714285714,0.0004
786,0.9536951780319214,2.250216484069824,0.6730769230769231,0.9038461538461539,0.5,0.5,0.0004
787,1.0766743421554565,2.6521224975585938,0.7307692307692307,0.8846153846153846,0.5714285714285714,0.2857142857142857,0.0004
788,0.9818799495697021,2.2694091796875,0.7115384615384616,0.8846153846153846,0.35714285714285715,0.5714285714285714,0.0004
789,0.9340855479240417,2.067626476287842,0.7115384615384616,0.9038461538461539,0.35714285714285715,0.7142857142857143,0.0004
790,0.9164006412029266,2.041698455810547,0.7692307692307693,0.8846153846153846,0.5,0.5714285714285714,0.0004
791,1.0181846022605896,2.458225965499878,0.6538461538461539,0.9230769230769231,0.42857142857142855,0.42857142857142855,0.0004
792,1.0746877193450928,2.0586190223693848,0.6153846153846154,0.8461538461538461,0.5,0.5714285714285714,0.0004
793,1.1323898434638977,2.217538356781006,0.6538461538461539,0.9038461538461539,0.42857142857142855,0.5,0.0004
794,1.0046820938587189,2.201752185821533,0.6730769230769231,0.8846153846153846,0.42857142857142855,0.5714285714285714,0.0004
795,0.8769326508045197,2.420670986175537,0.6538461538461539,0.9230769230769231,0.42857142857142855,0.5714285714285714,0.0004
796,0.8983032703399658,1.6730873584747314,0.7115384615384616,0.9230769230769231,0.5714285714285714,0.7142857142857143,0.0004
797,1.0424755215644836,2.446092128753662,0.8076923076923077,0.8269230769230769,0.5,0.42857142857142855,0.0004
798,1.0535405278205872,2.7980785369873047,0.5961538461538461,0.8846153846153846,0.5,0.2857142857142857,0.0004
799,0.9904845356941223,2.420909881591797,0.7884615384615384,0.8653846153846154,0.42857142857142855,0.5714285714285714,0.0004
800,1.1458489894866943,1.7706615924835205,0.7307692307692307,0.8653846153846154,0.7142857142857143,0.5714285714285714,0.0004
801,1.0062271058559418,2.393435001373291,0.7115384615384616,0.8653846153846154,0.5,0.35714285714285715,0.0004
802,0.9787643551826477,2.4883038997650146,0.7307692307692307,0.8846153846153846,0.5,0.35714285714285715,0.0004
803,0.9733529984951019,2.8651909828186035,0.7115384615384616,0.8846153846153846,0.35714285714285715,0.42857142857142855,0.0004
804,0.989686131477356,1.5126399993896484,0.6923076923076923,0.8846153846153846,0.5714285714285714,0.7857142857142857,0.0004
805,1.0823935270309448,2.4351108074188232,0.6346153846153846,0.8653846153846154,0.14285714285714285,0.6428571428571429,0.0004
806,0.9014713168144226,1.7974635362625122,0.6923076923076923,0.8653846153846154,0.42857142857142855,0.7142857142857143,0.0004
807,1.1346554160118103,2.167733907699585,0.5769230769230769,0.8653846153846154,0.5,0.5714285714285714,0.0004
808,1.0300565659999847,2.581179141998291,0.6730769230769231,0.8653846153846154,0.2857142857142857,0.6428571428571429,0.0004
809,0.9687182903289795,2.246124744415283,0.7307692307692307,0.9230769230769231,0.42857142857142855,0.5714285714285714,0.0004
810,0.9828011691570282,1.8848869800567627,0.6923076923076923,0.8846153846153846,0.35714285714285715,0.6428571428571429,0.0004
811,0.7604312598705292,1.5261682271957397,0.7884615384615384,0.9038461538461539,0.7142857142857143,0.6428571428571429,0.0004
812,1.0830981135368347,2.3548529148101807,0.6538461538461539,0.8461538461538461,0.5714285714285714,0.6428571428571429,0.0004
813,1.2175492644309998,1.4555689096450806,0.6153846153846154,0.8269230769230769,0.6428571428571429,0.7142857142857143,0.0004
814,1.2554484009742737,1.6813119649887085,0.5384615384615384,0.8461538461538461,0.5714285714285714,0.7142857142857143,0.0004
815,1.133036881685257,1.9492546319961548,0.5961538461538461,0.7884615384615384,0.5,0.5714285714285714,0.0004
816,0.9225338101387024,2.1363580226898193,0.7115384615384616,0.9230769230769231,0.42857142857142855,0.6428571428571429,0.0004
817,1.0712458491325378,2.0942606925964355,0.6538461538461539,0.8653846153846154,0.5,0.6428571428571429,0.0004
818,1.0487430095672607,1.9081865549087524,0.6923076923076923,0.8269230769230769,0.42857142857142855,0.7142857142857143,0.0004
819,1.144588589668274,1.9308727979660034,0.6346153846153846,0.8076923076923077,0.5,0.6428571428571429,0.0004
820,1.061370611190796,1.939250111579895,0.5576923076923077,0.8846153846153846,0.5,0.5714285714285714,0.0004
821,1.2775906920433044,1.8654062747955322,0.6538461538461539,0.8269230769230769,0.35714285714285715,0.7142857142857143,0.0004
822,0.8513623774051666,2.485450506210327,0.75,0.9038461538461539,0.2857142857142857,0.5714285714285714,0.0004
823,1.0829232335090637,2.238372325897217,0.6923076923076923,0.8653846153846154,0.5,0.5,0.0004
824,1.0664355158805847,2.348780632019043,0.7115384615384616,0.8269230769230769,0.42857142857142855,0.6428571428571429,0.0004
825,0.9227895140647888,2.3897361755371094,0.7307692307692307,0.9038461538461539,0.5714285714285714,0.6428571428571429,0.0004
826,1.1877706050872803,1.994135856628418,0.5961538461538461,0.8846153846153846,0.6428571428571429,0.7142857142857143,0.0004
827,1.0465048253536224,2.122687816619873,0.6923076923076923,0.8653846153846154,0.5,0.5714285714285714,0.0004
828,1.1804199814796448,2.6480016708374023,0.5961538461538461,0.8653846153846154,0.35714285714285715,0.42857142857142855,0.0004
829,1.0784623622894287,1.7711896896362305,0.6346153846153846,0.8653846153846154,0.6428571428571429,0.5714285714285714,0.0004
830,1.2026852369308472,1.9045743942260742,0.5961538461538461,0.8653846153846154,0.5714285714285714,0.6428571428571429,0.0004
831,1.1059077382087708,2.0454585552215576,0.6153846153846154,0.8461538461538461,0.42857142857142855,0.5714285714285714,0.0004
832,0.9229010343551636,1.6547636985778809,0.6923076923076923,0.8846153846153846,0.5,0.7857142857142857,0.0004
833,1.1444696485996246,1.4451009035110474,0.6538461538461539,0.8846153846153846,0.6428571428571429,0.7857142857142857,0.0004
834,1.0392518639564514,1.886857032775879,0.6346153846153846,0.8653846153846154,0.42857142857142855,0.7857142857142857,0.0004
835,1.0327811539173126,2.1213018894195557,0.7692307692307693,0.8846153846153846,0.35714285714285715,0.7857142857142857,0.0004
836,1.1216426491737366,1.8882718086242676,0.6153846153846154,0.8653846153846154,0.5,0.6428571428571429,0.0004
837,0.8716536164283752,2.4554576873779297,0.7307692307692307,0.9230769230769231,0.5,0.6428571428571429,0.0004
838,1.1587482690811157,1.888273000717163,0.5769230769230769,0.8461538461538461,0.42857142857142855,0.7857142857142857,0.0004
839,1.1281125843524933,2.2979862689971924,0.5769230769230769,0.8846153846153846,0.5,0.6428571428571429,0.0004
840,1.0281062424182892,1.8084490299224854,0.5961538461538461,0.8653846153846154,0.5714285714285714,0.7142857142857143,0.0004
841,1.1267892718315125,2.1504600048065186,0.6730769230769231,0.7692307692307693,0.5,0.6428571428571429,0.0004
842,1.2068616151809692,2.3482720851898193,0.6538461538461539,0.8846153846153846,0.5714285714285714,0.42857142857142855,0.0004
843,0.9506140351295471,2.1404550075531006,0.7692307692307693,0.9038461538461539,0.5714285714285714,0.5,0.0004
844,1.055616021156311,2.174114942550659,0.6538461538461539,0.9038461538461539,0.2857142857142857,0.6428571428571429,0.0004
845,0.9874980449676514,2.3970894813537598,0.7307692307692307,0.8461538461538461,0.5,0.6428571428571429,0.0004
846,1.1873539686203003,2.2060999870300293,0.6153846153846154,0.8076923076923077,0.5,0.6428571428571429,0.0004
847,0.9160230755805969,2.1232714653015137,0.6538461538461539,0.8461538461538461,0.5,0.6428571428571429,0.0004
848,0.9718039035797119,1.7847709655761719,0.6730769230769231,0.9038461538461539,0.5714285714285714,0.6428571428571429,0.0004
849,0.8587822318077087,1.9934868812561035,0.7692307692307693,0.9038461538461539,0.35714285714285715,0.7142857142857143,0.0004
850,0.8894777894020081,2.0911824703216553,0.75,0.9038461538461539,0.5,0.5,0.0004
851,1.199013352394104,2.3855485916137695,0.6538461538461539,0.8076923076923077,0.42857142857142855,0.5,0.0004
852,1.1300283074378967,1.5429762601852417,0.6153846153846154,0.8653846153846154,0.5,0.7857142857142857,0.0004
853,0.7545716762542725,1.8683936595916748,0.7307692307692307,0.8846153846153846,0.5714285714285714,0.6428571428571429,0.0004
854,0.971613883972168,2.8354945182800293,0.6730769230769231,0.8461538461538461,0.35714285714285715,0.42857142857142855,0.0004
855,1.2249965071678162,2.0959482192993164,0.6153846153846154,0.75,0.5714285714285714,0.5714285714285714,0.0004
856,1.0724325776100159,1.9064441919326782,0.6730769230769231,0.8269230769230769,0.5,0.7142857142857143,0.0004
857,0.8816939890384674,1.7447402477264404,0.7115384615384616,0.9038461538461539,0.5,0.7142857142857143,0.0004
858,0.9366560876369476,1.7806142568588257,0.7307692307692307,0.8846153846153846,0.5,0.7857142857142857,0.0004
859,1.0609896779060364,1.910416603088379,0.6153846153846154,0.9038461538461539,0.5714285714285714,0.6428571428571429,0.0004
860,1.0131507515907288,2.4377965927124023,0.6730769230769231,0.9038461538461539,0.5714285714285714,0.42857142857142855,0.0004
861,1.0116373896598816,1.6730009317398071,0.7884615384615384,0.8846153846153846,0.42857142857142855,0.7857142857142857,0.0004
862,1.0250890254974365,1.9401283264160156,0.7307692307692307,0.8846153846153846,0.5,0.6428571428571429,0.0004
863,1.0590000748634338,1.9553462266921997,0.6153846153846154,0.9038461538461539,0.42857142857142855,0.6428571428571429,0.0004
864,1.0023311078548431,2.166348934173584,0.6923076923076923,0.8076923076923077,0.42857142857142855,0.5714285714285714,0.0004
865,1.1209836602210999,2.436677932739258,0.6730769230769231,0.8653846153846154,0.5,0.5,0.0004
866,1.086332082748413,2.7093915939331055,0.6730769230769231,0.9038461538461539,0.35714285714285715,0.5714285714285714,0.0004
867,1.134169340133667,2.0555195808410645,0.6346153846153846,0.8461538461538461,0.5,0.6428571428571429,0.0004
868,1.1357203125953674,2.4692611694335938,0.6153846153846154,0.8846153846153846,0.5714285714285714,0.42857142857142855,0.0004
869,0.9347289204597473,2.4555270671844482,0.7115384615384616,0.8653846153846154,0.5,0.5714285714285714,0.0004
870,1.073321521282196,2.0105350017547607,0.6730769230769231,0.8076923076923077,0.42857142857142855,0.7142857142857143,0.0004
871,1.32291841506958,2.476440906524658,0.5576923076923077,0.8461538461538461,0.5,0.42857142857142855,0.0004
872,1.0000241696834564,2.1622579097747803,0.6730769230769231,0.8653846153846154,0.5,0.7142857142857143,0.0004
873,1.0291938185691833,1.7218165397644043,0.6730769230769231,0.9038461538461539,0.6428571428571429,0.7142857142857143,0.0004
874,1.087134838104248,2.376476287841797,0.6538461538461539,0.8653846153846154,0.35714285714285715,0.5714285714285714,0.0004
875,0.8630640804767609,2.2707860469818115,0.7884615384615384,0.8846153846153846,0.42857142857142855,0.5714285714285714,0.0004
876,1.0040214657783508,2.5179202556610107,0.7115384615384616,0.8846153846153846,0.42857142857142855,0.42857142857142855,0.0004
877,1.089130938053131,2.1303162574768066,0.6538461538461539,0.8461538461538461,0.5,0.6428571428571429,0.0004
878,0.8833484351634979,2.8486080169677734,0.6730769230769231,0.9423076923076923,0.2857142857142857,0.5,0.0004
879,0.9852814972400665,2.6015710830688477,0.7115384615384616,0.8846153846153846,0.35714285714285715,0.6428571428571429,0.0004
880,1.0138290226459503,1.6261998414993286,0.7692307692307693,0.8461538461538461,0.6428571428571429,0.8571428571428571,0.0004
881,0.9168211817741394,2.469670295715332,0.6923076923076923,0.8846153846153846,0.42857142857142855,0.5,0.0004
882,1.2685256600379944,2.110105276107788,0.6730769230769231,0.7884615384615384,0.5,0.5714285714285714,0.0004
883,1.0462598204612732,1.7531129121780396,0.6346153846153846,0.8269230769230769,0.5714285714285714,0.5714285714285714,0.0004
884,1.1109274327754974,1.8176113367080688,0.6153846153846154,0.8269230769230769,0.5,0.7142857142857143,0.0004
885,1.2414953410625458,1.980880618095398,0.6153846153846154,0.7692307692307693,0.35714285714285715,0.6428571428571429,0.0004
886,1.132215142250061,1.9802463054656982,0.6346153846153846,0.8846153846153846,0.42857142857142855,0.7857142857142857,0.0004
887,0.9110974669456482,2.036914348602295,0.7692307692307693,0.8653846153846154,0.42857142857142855,0.5714285714285714,0.0004
888,0.9923206567764282,1.7312819957733154,0.7115384615384616,0.8653846153846154,0.5,0.6428571428571429,0.0004
889,1.0138069093227386,1.4514610767364502,0.7307692307692307,0.8653846153846154,0.5714285714285714,0.7857142857142857,0.0004
890,0.8888175189495087,2.1123509407043457,0.6923076923076923,0.9230769230769231,0.42857142857142855,0.42857142857142855,0.0004
891,1.0176987051963806,1.666975498199463,0.75,0.8269230769230769,0.5714285714285714,0.5714285714285714,0.0004
892,0.9248148202896118,1.868967056274414,0.7307692307692307,0.9038461538461539,0.5,0.5714285714285714,0.0004
893,0.9459334015846252,1.6457175016403198,0.6346153846153846,0.9038461538461539,0.5714285714285714,0.7142857142857143,0.0004
894,1.0987301766872406,1.8904016017913818,0.6346153846153846,0.8653846153846154,0.5,0.5,0.0004
895,0.9194578528404236,1.8279534578323364,0.7307692307692307,0.8846153846153846,0.5714285714285714,0.6428571428571429,0.0004
896,1.1420326828956604,2.270617723464966,0.6923076923076923,0.8461538461538461,0.42857142857142855,0.5,0.0004
897,1.0107554197311401,1.749667763710022,0.6730769230769231,0.9230769230769231,0.42857142857142855,0.7142857142857143,0.0004
898,1.1171457767486572,1.9347388744354248,0.6153846153846154,0.8653846153846154,0.5,0.6428571428571429,0.0004
899,0.9649167358875275,1.7378252744674683,0.75,0.8846153846153846,0.5714285714285714,0.6428571428571429,0.0004
900,1.1318576335906982,2.1080377101898193,0.6346153846153846,0.8653846153846154,0.5,0.5714285714285714,0.0004
901,1.0156417489051819,2.309438705444336,0.6346153846153846,0.9038461538461539,0.2857142857142857,0.6428571428571429,0.0004
902,0.9578475952148438,1.855555772781372,0.6538461538461539,0.9038461538461539,0.5714285714285714,0.5714285714285714,0.0004
903,0.8632217645645142,2.5767886638641357,0.6730769230769231,0.8653846153846154,0.35714285714285715,0.42857142857142855,0.0004
904,1.2066713571548462,2.075648307800293,0.6346153846153846,0.7692307692307693,0.35714285714285715,0.5714285714285714,0.0004
905,0.9143756031990051,2.117733955383301,0.7307692307692307,0.8846153846153846,0.5714285714285714,0.42857142857142855,0.0004
906,0.9755897521972656,2.0862929821014404,0.6923076923076923,0.9230769230769231,0.5,0.5714285714285714,0.0004
907,0.9477741122245789,2.0857558250427246,0.6923076923076923,0.9038461538461539,0.5714285714285714,0.5714285714285714,0.0004
908,1.111465573310852,2.1942832469940186,0.6153846153846154,0.8461538461538461,0.2857142857142857,0.5714285714285714,0.0004
909,1.02981036901474,2.2256269454956055,0.6538461538461539,0.8846153846153846,0.35714285714285715,0.5714285714285714,0.0004
910,1.0858004689216614,1.6243702173233032,0.6538461538461539,0.8461538461538461,0.5,0.7857142857142857,0.0004
911,0.9853709638118744,2.259085178375244,0.6730769230769231,0.9038461538461539,0.35714285714285715,0.6428571428571429,0.0004
912,1.1703823804855347,2.2039666175842285,0.6538461538461539,0.8269230769230769,0.42857142857142855,0.7142857142857143,0.0004
913,1.0669769644737244,1.6455183029174805,0.6923076923076923,0.8269230769230769,0.5,0.8571428571428571,0.0004
914,1.0190568268299103,2.1277215480804443,0.6538461538461539,0.8653846153846154,0.35714285714285715,0.7142857142857143,0.0004
915,1.0134984254837036,1.853848934173584,0.7115384615384616,0.8653846153846154,0.5714285714285714,0.7142857142857143,0.0004
916,0.9900750517845154,1.6517314910888672,0.6923076923076923,0.8461538461538461,0.5714285714285714,0.8571428571428571,0.0004
917,1.091475248336792,2.2498016357421875,0.7115384615384616,0.8461538461538461,0.5,0.42857142857142855,0.0004
918,0.9011993706226349,1.9829981327056885,0.7115384615384616,0.8461538461538461,0.5,0.6428571428571429,0.0004
919,1.0622398853302002,1.98888099193573,0.5384615384615384,0.8461538461538461,0.42857142857142855,0.5,0.0004
920,1.0389314889907837,2.165642499923706,0.6153846153846154,0.9423076923076923,0.5,0.5,0.0004
921,1.010890394449234,2.319537878036499,0.6153846153846154,0.8846153846153846,0.5,0.5,0.0004
922,1.1396123170852661,1.8626708984375,0.6538461538461539,0.8846153846153846,0.5,0.7142857142857143,0.0004
923,0.9091511964797974,2.6842310428619385,0.7115384615384616,0.9423076923076923,0.2857142857142857,0.35714285714285715,0.0004
924,0.9031537473201752,1.8864753246307373,0.6923076923076923,0.9230769230769231,0.5,0.6428571428571429,0.0004
925,0.8544155359268188,2.5548901557922363,0.6923076923076923,0.9615384615384616,0.5,0.35714285714285715,0.0004
926,1.0943890810012817,2.052797794342041,0.5961538461538461,0.8461538461538461,0.5,0.6428571428571429,0.0004
927,1.0877749919891357,1.5648987293243408,0.6538461538461539,0.8846153846153846,0.5,0.7142857142857143,0.0004
928,1.0087781846523285,2.0584206581115723,0.6346153846153846,0.9038461538461539,0.35714285714285715,0.6428571428571429,0.0004
929,1.066577136516571,2.056396484375,0.5192307692307693,0.8653846153846154,0.5,0.5714285714285714,0.0004
930,0.8600731492042542,1.922551155090332,0.7884615384615384,0.9423076923076923,0.5714285714285714,0.5714285714285714,0.0004
931,0.952061653137207,2.072629451751709,0.6923076923076923,0.8653846153846154,0.42857142857142855,0.7142857142857143,0.0004
932,1.079331874847412,1.8190503120422363,0.6538461538461539,0.8461538461538461,0.6428571428571429,0.6428571428571429,0.0004
933,1.0892268121242523,1.347574234008789,0.7115384615384616,0.8653846153846154,0.42857142857142855,0.9285714285714286,0.0004
934,1.0573179721832275,2.5010461807250977,0.7115384615384616,0.8461538461538461,0.42857142857142855,0.5714285714285714,0.0004
935,1.1292842030525208,1.742116928100586,0.6346153846153846,0.9038461538461539,0.5714285714285714,0.7142857142857143,0.0004
936,1.0421171188354492,2.1759190559387207,0.6346153846153846,0.8653846153846154,0.5714285714285714,0.5,0.0004
937,1.0566186308860779,2.6900246143341064,0.6923076923076923,0.8846153846153846,0.35714285714285715,0.5,0.0004
938,0.7862226963043213,2.721160411834717,0.75,0.9423076923076923,0.42857142857142855,0.5,0.0004
939,0.9939399063587189,2.1962525844573975,0.6538461538461539,0.9038461538461539,0.42857142857142855,0.6428571428571429,0.0004
940,1.0769225358963013,2.1035966873168945,0.5961538461538461,0.8653846153846154,0.35714285714285715,0.7142857142857143,0.0004
941,0.7912982106208801,2.763145923614502,0.7884615384615384,0.8653846153846154,0.42857142857142855,0.35714285714285715,0.0004
942,1.0255149006843567,2.3526532649993896,0.6923076923076923,0.8653846153846154,0.5714285714285714,0.5,0.0004
943,1.0296815037727356,2.5773887634277344,0.6538461538461539,0.8846153846153846,0.42857142857142855,0.5714285714285714,0.0004
944,1.136044681072235,2.2180402278900146,0.7115384615384616,0.8653846153846154,0.5,0.5714285714285714,0.0004
945,0.9972072243690491,1.9414434432983398,0.6153846153846154,0.9423076923076923,0.5,0.5714285714285714,0.0004
946,1.0247086584568024,1.8433327674865723,0.6730769230769231,0.8846153846153846,0.5,0.7142857142857143,0.0004
947,0.9762116968631744,2.385709762573242,0.6923076923076923,0.8461538461538461,0.42857142857142855,0.5714285714285714,0.0004
948,0.9151143729686737,2.5751760005950928,0.6923076923076923,0.8846153846153846,0.42857142857142855,0.42857142857142855,0.0004
949,0.8995473086833954,2.3762314319610596,0.6346153846153846,0.9423076923076923,0.5,0.5,0.0004
950,1.2564290761947632,2.879394769668579,0.6153846153846154,0.8269230769230769,0.42857142857142855,0.5,0.0004
951,0.9357900619506836,1.8658971786499023,0.6923076923076923,0.9230769230769231,0.5714285714285714,0.6428571428571429,0.0004
952,0.9605406522750854,2.262800931930542,0.7307692307692307,0.8846153846153846,0.5,0.5714285714285714,0.0004
953,1.1509276628494263,2.53729248046875,0.6346153846153846,0.8461538461538461,0.5714285714285714,0.42857142857142855,0.0004
954,1.0635946393013,2.606417655944824,0.7115384615384616,0.8653846153846154,0.42857142857142855,0.5714285714285714,0.0004
955,1.0245162844657898,2.407289981842041,0.6923076923076923,0.8461538461538461,0.35714285714285715,0.42857142857142855,0.0004
956,0.7660922110080719,1.8789483308792114,0.8076923076923077,0.9230769230769231,0.5,0.7142857142857143,0.0004
957,1.2216967940330505,2.145042657852173,0.5961538461538461,0.8846153846153846,0.5,0.6428571428571429,0.0004
958,1.112598717212677,1.9193915128707886,0.6730769230769231,0.8846153846153846,0.42857142857142855,0.6428571428571429,0.0004
959,0.9926519393920898,2.089128017425537,0.7115384615384616,0.8653846153846154,0.5714285714285714,0.5714285714285714,0.0004
960,0.9211392104625702,1.960449457168579,0.7692307692307693,0.8653846153846154,0.5714285714285714,0.6428571428571429,0.0004
961,0.9257616698741913,2.127012014389038,0.6923076923076923,0.9038461538461539,0.35714285714285715,0.6428571428571429,0.0004
962,0.820289134979248,2.2874274253845215,0.7692307692307693,0.9230769230769231,0.42857142857142855,0.5,0.0004
963,0.9631844162940979,2.11128306388855,0.7307692307692307,0.8653846153846154,0.5,0.5714285714285714,0.0004
964,0.9527795016765594,2.2188191413879395,0.7307692307692307,0.8461538461538461,0.5714285714285714,0.5,0.0004
965,0.9937281608581543,2.3980348110198975,0.6730769230769231,0.8653846153846154,0.42857142857142855,0.42857142857142855,0.0004
966,1.1280447840690613,1.907862901687622,0.6730769230769231,0.8076923076923077,0.5,0.5,0.0004
967,1.2149277925491333,2.401913642883301,0.6346153846153846,0.8269230769230769,0.42857142857142855,0.5714285714285714,0.0004
968,1.0895868241786957,2.5182323455810547,0.7307692307692307,0.8461538461538461,0.5,0.5714285714285714,0.0004
969,1.1398598551750183,1.9894652366638184,0.5384615384615384,0.9423076923076923,0.35714285714285715,0.7142857142857143,0.0004
970,0.8534737527370453,2.0494041442871094,0.6923076923076923,0.9423076923076923,0.42857142857142855,0.42857142857142855,0.0004
971,1.2263471484184265,2.150303840637207,0.6923076923076923,0.7307692307692307,0.42857142857142855,0.5714285714285714,0.0004
972,1.2091432809829712,2.2276113033294678,0.6153846153846154,0.8076923076923077,0.5,0.7142857142857143,0.0004
973,1.401481568813324,1.46388578414917,0.5,0.8076923076923077,0.5714285714285714,0.8571428571428571,0.0004
974,1.1280927062034607,1.9795186519622803,0.5769230769230769,0.8461538461538461,0.35714285714285715,0.7857142857142857,0.0004
975,1.1329429149627686,1.781299352645874,0.5384615384615384,0.8461538461538461,0.5,0.5714285714285714,0.0004
976,1.167601078748703,2.3154637813568115,0.6346153846153846,0.8076923076923077,0.42857142857142855,0.5,0.0004
977,1.2424562573432922,2.0303444862365723,0.5769230769230769,0.7884615384615384,0.6428571428571429,0.42857142857142855,0.0004
978,1.4466255903244019,2.7617273330688477,0.5384615384615384,0.8269230769230769,0.42857142857142855,0.21428571428571427,0.0004
979,1.2349542379379272,2.2636563777923584,0.5,0.8653846153846154,0.42857142857142855,0.42857142857142855,0.0004
980,1.0176931321620941,2.2252438068389893,0.6538461538461539,0.8846153846153846,0.42857142857142855,0.5,0.0004
981,1.0702987015247345,2.1429686546325684,0.5961538461538461,0.8269230769230769,0.5714285714285714,0.42857142857142855,0.0004
982,1.0694254636764526,1.7277615070343018,0.6538461538461539,0.8653846153846154,0.5714285714285714,0.42857142857142855,0.0004
983,1.1899673342704773,1.970548152923584,0.5961538461538461,0.8846153846153846,0.5714285714285714,0.42857142857142855,0.0004
984,1.094183623790741,2.3512520790100098,0.6346153846153846,0.8461538461538461,0.2857142857142857,0.42857142857142855,0.0004
985,0.9834097325801849,1.56675124168396,0.5961538461538461,0.9038461538461539,0.5,0.7142857142857143,0.0004
986,1.0330944657325745,1.6622065305709839,0.5769230769230769,0.8269230769230769,0.5714285714285714,0.5714285714285714,0.0004
987,0.9290614724159241,1.6304945945739746,0.6923076923076923,0.8653846153846154,0.5714285714285714,0.6428571428571429,0.0004
988,1.288120985031128,2.155341148376465,0.6730769230769231,0.8076923076923077,0.2857142857142857,0.5714285714285714,0.0004
989,0.9990369081497192,2.1712307929992676,0.6538461538461539,0.8653846153846154,0.21428571428571427,0.6428571428571429,0.0004
990,1.1631531119346619,1.8463561534881592,0.6346153846153846,0.8461538461538461,0.42857142857142855,0.6428571428571429,0.0004
991,1.00003182888031,1.742014765739441,0.6538461538461539,0.9038461538461539,0.42857142857142855,0.7857142857142857,0.0004
992,0.938605397939682,2.2626712322235107,0.6923076923076923,0.9230769230769231,0.42857142857142855,0.5714285714285714,0.0004
993,1.1655815243721008,1.6090198755264282,0.6346153846153846,0.8461538461538461,0.5714285714285714,0.7142857142857143,0.0004
994,0.9596405625343323,2.3666279315948486,0.7115384615384616,0.9230769230769231,0.2857142857142857,0.5714285714285714,0.0004
995,1.004395216703415,1.9706183671951294,0.7115384615384616,0.9230769230769231,0.42857142857142855,0.6428571428571429,0.0004
996,0.9845395088195801,1.7635903358459473,0.6538461538461539,0.8846153846153846,0.5,0.7142857142857143,0.0004
997,1.0006411671638489,2.248971462249756,0.7884615384615384,0.8653846153846154,0.5714285714285714,0.5,0.0004
998,1.039456993341446,1.9860670566558838,0.5769230769230769,0.8846153846153846,0.6428571428571429,0.5714285714285714,0.0004
999,1.1780222654342651,2.2930192947387695,0.6730769230769231,0.8461538461538461,0.5,0.5,0.0004
1000,0.9478871822357178,2.215928077697754,0.6923076923076923,0.9230769230769231,0.5,0.42857142857142855,0.0004
