epoch,train_loss,val_loss,train_acc_action,train_acc_status,val_acc_action,val_acc_status,learning_rate
1,1.8151949048042297,1.790575385093689,0.3076923076923077,0.17307692307692307,0.42857142857142855,0.14285714285714285,0.0004
2,1.7895228862762451,1.5327666997909546,0.3076923076923077,0.4423076923076923,0.35714285714285715,0.8571428571428571,0.004995066821070679
3,1.639331340789795,1.5648436546325684,0.23076923076923078,0.8269230769230769,0.21428571428571427,0.8571428571428571,0.004980286753286195
4,1.5980016589164734,1.6351008415222168,0.36538461538461536,0.8269230769230769,0.21428571428571427,0.8571428571428571,0.004955718126821722
5,1.579584538936615,1.5753370523452759,0.36538461538461536,0.8269230769230769,0.21428571428571427,0.8571428571428571,0.004921457902821578
6,1.545000433921814,1.534435749053955,0.36538461538461536,0.8269230769230769,0.21428571428571427,0.8571428571428571,0.0048776412907378846
7,1.5974901914596558,1.506974697113037,0.3076923076923077,0.8269230769230769,0.42857142857142855,0.8571428571428571,0.004824441214720628
8,1.573597013950348,1.5036014318466187,0.3076923076923077,0.8269230769230769,0.42857142857142855,0.8571428571428571,0.004762067631165049
9,1.5458166599273682,1.5365105867385864,0.25,0.8269230769230769,0.21428571428571427,0.8571428571428571,0.0046907667001096585
10,1.547923982143402,1.5607848167419434,0.36538461538461536,0.8269230769230769,0.21428571428571427,0.8571428571428571,0.004610819813755038
11,1.531339943408966,1.5759638547897339,0.36538461538461536,0.8269230769230769,0.21428571428571427,0.8571428571428571,0.0045225424859373685
12,1.5399824976921082,1.5801033973693848,0.36538461538461536,0.8269230769230769,0.21428571428571427,0.8571428571428571,0.004426283106939473
13,1.558869481086731,1.5688973665237427,0.36538461538461536,0.8269230769230769,0.21428571428571427,0.8571428571428571,0.004322421568553529
14,1.5716670751571655,1.548437476158142,0.36538461538461536,0.8269230769230769,0.21428571428571427,0.8571428571428571,0.004211367764821722
15,1.5406895279884338,1.528153657913208,0.36538461538461536,0.8269230769230769,0.21428571428571427,0.8571428571428571,0.004093559974371724
16,1.5689802765846252,1.514797568321228,0.2692307692307692,0.8269230769230769,0.35714285714285715,0.8571428571428571,0.003969463130731183
17,1.5673127174377441,1.5154225826263428,0.28846153846153844,0.8269230769230769,0.42857142857142855,0.8571428571428571,0.0038395669874474914
18,1.5157649517059326,1.5170317888259888,0.3076923076923077,0.8269230769230769,0.42857142857142855,0.8571428571428571,0.0037043841852542883
19,1.5698360204696655,1.5194603204727173,0.25,0.8269230769230769,0.42857142857142855,0.8571428571428571,0.003564448228912682
20,1.5731184482574463,1.520437240600586,0.3269230769230769,0.8269230769230769,0.21428571428571427,0.8571428571428571,0.0034203113817116953
21,1.5231903791427612,1.5205730199813843,0.36538461538461536,0.8269230769230769,0.21428571428571427,0.8571428571428571,0.0032725424859373687
22,1.5653504133224487,1.5237841606140137,0.36538461538461536,0.8269230769230769,0.21428571428571427,0.8571428571428571,0.0031217247179121366
23,1.5970993041992188,1.5314115285873413,0.36538461538461536,0.8269230769230769,0.21428571428571427,0.8571428571428571,0.002968453286464312
24,1.5460050702095032,1.540958285331726,0.36538461538461536,0.8269230769230769,0.21428571428571427,0.8571428571428571,0.002813333083910761
25,1.5521200299263,1.5514822006225586,0.36538461538461536,0.8269230769230769,0.21428571428571427,0.8571428571428571,0.0026569762988232835
26,1.5359417796134949,1.558934211730957,0.36538461538461536,0.8269230769230769,0.21428571428571427,0.8571428571428571,0.0025
27,1.5687907934188843,1.5627267360687256,0.36538461538461536,0.8269230769230769,0.21428571428571427,0.8571428571428571,0.0023430237011767166
28,1.5348243117332458,1.5617623329162598,0.36538461538461536,0.8269230769230769,0.21428571428571427,0.8571428571428571,0.0021866669160892395
29,1.555079460144043,1.560486912727356,0.36538461538461536,0.8269230769230769,0.21428571428571427,0.8571428571428571,0.0020315467135356884
30,1.5686329007148743,1.557657241821289,0.36538461538461536,0.8269230769230769,0.21428571428571427,0.8571428571428571,0.0018782752820878628
31,1.5463252663612366,1.5484659671783447,0.36538461538461536,0.8269230769230769,0.21428571428571427,0.8571428571428571,0.0017274575140626323
32,1.5327937006950378,1.5417810678482056,0.36538461538461536,0.8269230769230769,0.21428571428571427,0.8571428571428571,0.0015796886182883059
33,1.5804572105407715,1.5373344421386719,0.36538461538461536,0.8269230769230769,0.21428571428571427,0.8571428571428571,0.0014355517710873183
34,1.5362747311592102,1.5337584018707275,0.36538461538461536,0.8269230769230769,0.21428571428571427,0.8571428571428571,0.0012956158147457114
35,1.5183078050613403,1.5301750898361206,0.36538461538461536,0.8269230769230769,0.21428571428571427,0.8571428571428571,0.0011604330125525079
36,1.5321846008300781,1.5278918743133545,0.36538461538461536,0.8269230769230769,0.21428571428571427,0.8571428571428571,0.0010305368692688174
37,1.519824743270874,1.5274572372436523,0.36538461538461536,0.8269230769230769,0.21428571428571427,0.8571428571428571,0.0009064400256282757
38,1.5966270565986633,1.527338981628418,0.36538461538461536,0.8269230769230769,0.21428571428571427,0.8571428571428571,0.0007886322351782782
39,1.5641046166419983,1.5274661779403687,0.36538461538461536,0.8269230769230769,0.21428571428571427,0.8571428571428571,0.0006775784314464717
40,1.5660929679870605,1.5279011726379395,0.36538461538461536,0.8269230769230769,0.21428571428571427,0.8571428571428571,0.0005737168930605272
41,1.5824384689331055,1.528221845626831,0.36538461538461536,0.8269230769230769,0.21428571428571427,0.8571428571428571,0.00047745751406263163
42,1.5501372814178467,1.5284950733184814,0.36538461538461536,0.8269230769230769,0.21428571428571427,0.8571428571428571,0.00038918018624496285
43,1.5849061012268066,1.528857707977295,0.36538461538461536,0.8269230769230769,0.21428571428571427,0.8571428571428571,0.00030923329989034103
44,1.5384793281555176,1.5288875102996826,0.36538461538461536,0.8269230769230769,0.21428571428571427,0.8571428571428571,0.00023793236883495162
45,1.5335439443588257,1.5286471843719482,0.36538461538461536,0.8269230769230769,0.21428571428571427,0.8571428571428571,0.00017555878527937164
46,1.5535969734191895,1.5286238193511963,0.36538461538461536,0.8269230769230769,0.21428571428571427,0.8571428571428571,0.00012235870926211617
47,1.566643476486206,1.528536081314087,0.36538461538461536,0.8269230769230769,0.21428571428571427,0.8571428571428571,7.854209717842258e-05
48,1.5462033152580261,1.5284708738327026,0.36538461538461536,0.8269230769230769,0.21428571428571427,0.8571428571428571,4.4281873178278196e-05
49,1.5836632251739502,1.5284749269485474,0.36538461538461536,0.8269230769230769,0.21428571428571427,0.8571428571428571,1.9713246713805587e-05
50,1.5800069570541382,1.5284557342529297,0.36538461538461536,0.8269230769230769,0.21428571428571427,0.8571428571428571,4.933178929321102e-06
51,1.5239715576171875,1.5301481485366821,0.36538461538461536,0.8269230769230769,0.21428571428571427,0.8571428571428571,0.005
52,1.5511395335197449,1.5397738218307495,0.36538461538461536,0.8269230769230769,0.35714285714285715,0.8571428571428571,0.0049987664009143295
53,1.5723146200180054,1.5497288703918457,0.3269230769230769,0.8269230769230769,0.35714285714285715,0.8571428571428571,0.004995066821070679
54,1.5697181224822998,1.5462651252746582,0.3269230769230769,0.8269230769230769,0.35714285714285715,0.8571428571428571,0.0049889049115077
55,1.5574297904968262,1.5391345024108887,0.2692307692307692,0.8269230769230769,0.21428571428571427,0.8571428571428571,0.004980286753286195
56,1.569255769252777,1.5285109281539917,0.36538461538461536,0.8269230769230769,0.21428571428571427,0.8571428571428571,0.0049692208514878445
57,1.5369598865509033,1.517758846282959,0.36538461538461536,0.8269230769230769,0.21428571428571427,0.8571428571428571,0.004955718126821722
58,1.5730983018875122,1.5127427577972412,0.34615384615384615,0.8269230769230769,0.42857142857142855,0.8571428571428571,0.004939791904846869
59,1.573710858821869,1.5136022567749023,0.3076923076923077,0.8269230769230769,0.42857142857142855,0.8571428571428571,0.004921457902821578
60,1.5397034287452698,1.5187512636184692,0.38461538461538464,0.8269230769230769,0.21428571428571427,0.8571428571428571,0.004900734214192358
61,1.548449993133545,1.5336698293685913,0.36538461538461536,0.8269230769230769,0.21428571428571427,0.8571428571428571,0.0048776412907378846
62,1.5627043843269348,1.5552372932434082,0.36538461538461536,0.8269230769230769,0.21428571428571427,0.8571428571428571,0.004852201922385564
63,1.59250807762146,1.5609115362167358,0.36538461538461536,0.8269230769230769,0.21428571428571427,0.8571428571428571,0.004824441214720628
64,1.5741134881973267,1.554373025894165,0.36538461538461536,0.8269230769230769,0.21428571428571427,0.8571428571428571,0.0047943865642099525
65,1.572855293750763,1.541799545288086,0.36538461538461536,0.8269230769230769,0.21428571428571427,0.8571428571428571,0.004762067631165049
66,1.550519585609436,1.5245230197906494,0.36538461538461536,0.8269230769230769,0.21428571428571427,0.8571428571428571,0.00472751631047092
67,1.5974011421203613,1.5144405364990234,0.36538461538461536,0.8269230769230769,0.21428571428571427,0.8571428571428571,0.0046907667001096585
68,1.5665984749794006,1.5111433267593384,0.40384615384615385,0.8269230769230769,0.42857142857142855,0.8571428571428571,0.0046518550675098596
69,1.5547951459884644,1.5105448961257935,0.3076923076923077,0.8269230769230769,0.42857142857142855,0.8571428571428571,0.004610819813755038
70,1.5688433647155762,1.512389063835144,0.34615384615384615,0.8269230769230769,0.35714285714285715,0.8571428571428571,0.004567701435686404
71,1.5432441234588623,1.517619013786316,0.3269230769230769,0.8269230769230769,0.35714285714285715,0.8571428571428571,0.0045225424859373685
72,1.5815401673316956,1.521715760231018,0.3269230769230769,0.8269230769230769,0.35714285714285715,0.8571428571428571,0.0044753875309392266
73,1.5640085935592651,1.5345741510391235,0.28846153846153844,0.8269230769230769,0.21428571428571427,0.8571428571428571,0.004426283106939473
74,1.5958572626113892,1.5488319396972656,0.36538461538461536,0.8269230769230769,0.21428571428571427,0.8571428571428571,0.004375277674076149
75,1.5398756861686707,1.5619730949401855,0.36538461538461536,0.8269230769230769,0.21428571428571427,0.8571428571428571,0.004322421568553529
76,1.5424697399139404,1.5685560703277588,0.36538461538461536,0.8269230769230769,0.21428571428571427,0.8571428571428571,0.004267766952966369
77,1.587251365184784,1.5659090280532837,0.36538461538461536,0.8269230769230769,0.21428571428571427,0.8571428571428571,0.004211367764821722
78,1.5481205582618713,1.555964708328247,0.36538461538461536,0.8269230769230769,0.21428571428571427,0.8571428571428571,0.00415327966330913
79,1.5503584742546082,1.5467114448547363,0.36538461538461536,0.8269230769230769,0.21428571428571427,0.8571428571428571,0.004093559974371724
80,1.5331414937973022,1.5371781587600708,0.36538461538461536,0.8269230769230769,0.21428571428571427,0.8571428571428571,0.004032267634132442
81,1.5665323734283447,1.5304505825042725,0.36538461538461536,0.8269230769230769,0.21428571428571427,0.8571428571428571,0.003969463130731183
82,1.5672147870063782,1.5263471603393555,0.36538461538461536,0.8269230769230769,0.21428571428571427,0.8571428571428571,0.003905208444630327
83,1.5205591917037964,1.5226125717163086,0.36538461538461536,0.8269230769230769,0.21428571428571427,0.8571428571428571,0.0038395669874474914
84,1.536814033985138,1.5224453210830688,0.36538461538461536,0.8269230769230769,0.21428571428571427,0.8571428571428571,0.0037726035393759283
85,1.5832016468048096,1.5220285654067993,0.36538461538461536,0.8269230769230769,0.21428571428571427,0.8571428571428571,0.0037043841852542883
86,1.536276400089264,1.521665334701538,0.36538461538461536,0.8269230769230769,0.21428571428571427,0.8571428571428571,0.003634976249348867
87,1.549605131149292,1.5224684476852417,0.36538461538461536,0.8269230769230769,0.21428571428571427,0.8571428571428571,0.003564448228912682
88,1.5959643125534058,1.5275527238845825,0.36538461538461536,0.8269230769230769,0.21428571428571427,0.8571428571428571,0.003492869726586951
89,1.5648671388626099,1.5344003438949585,0.36538461538461536,0.8269230769230769,0.21428571428571427,0.8571428571428571,0.0034203113817116953
90,1.5650782585144043,1.5404179096221924,0.36538461538461536,0.8269230769230769,0.21428571428571427,0.8571428571428571,0.0033468448006132292
91,1.5701113939285278,1.5456125736236572,0.36538461538461536,0.8269230769230769,0.21428571428571427,0.8571428571428571,0.0032725424859373687
92,1.58767968416214,1.5440833568572998,0.36538461538461536,0.8269230769230769,0.21428571428571427,0.8571428571428571,0.0031974777650980737
93,1.581675946712494,1.5474073886871338,0.36538461538461536,0.8269230769230769,0.21428571428571427,0.8571428571428571,0.0031217247179121366
94,1.5502370595932007,1.5467212200164795,0.36538461538461536,0.8269230769230769,0.21428571428571427,0.8571428571428571,0.0030453581034913567
95,1.5648301839828491,1.5463383197784424,0.36538461538461536,0.8269230769230769,0.21428571428571427,0.8571428571428571,0.002968453286464312
96,1.5537179112434387,1.5459060668945312,0.36538461538461536,0.8269230769230769,0.21428571428571427,0.8571428571428571,0.0028910861626005773
97,1.5770105719566345,1.5434536933898926,0.36538461538461536,0.8269230769230769,0.21428571428571427,0.8571428571428571,0.002813333083910761
98,1.5416138768196106,1.5416408777236938,0.36538461538461536,0.8269230769230769,0.21428571428571427,0.8571428571428571,0.002735270783296286
99,1.582554578781128,1.5370967388153076,0.36538461538461536,0.8269230769230769,0.21428571428571427,0.8571428571428571,0.0026569762988232835
100,1.592410147190094,1.5318695306777954,0.36538461538461536,0.8269230769230769,0.21428571428571427,0.8571428571428571,0.0025785268976953207
101,1.551536500453949,1.528866171836853,0.36538461538461536,0.8269230769230769,0.21428571428571427,0.8571428571428571,0.0025
102,1.5206515789031982,1.5253007411956787,0.36538461538461536,0.8269230769230769,0.21428571428571427,0.8571428571428571,0.0024214731023046794
103,1.547644853591919,1.5237846374511719,0.36538461538461536,0.8269230769230769,0.21428571428571427,0.8571428571428571,0.0023430237011767166
104,1.578963041305542,1.523956298828125,0.36538461538461536,0.8269230769230769,0.21428571428571427,0.8571428571428571,0.002264729216703714
105,1.5632911920547485,1.523845911026001,0.36538461538461536,0.8269230769230769,0.21428571428571427,0.8571428571428571,0.0021866669160892395
106,1.548337996006012,1.5267672538757324,0.36538461538461536,0.8269230769230769,0.21428571428571427,0.8571428571428571,0.002108913837399423
107,1.5167987942695618,1.5259387493133545,0.36538461538461536,0.8269230769230769,0.21428571428571427,0.8571428571428571,0.0020315467135356884
108,1.5173336267471313,1.5254805088043213,0.36538461538461536,0.8269230769230769,0.21428571428571427,0.8571428571428571,0.0019546418965086442
109,1.5773403644561768,1.5296374559402466,0.36538461538461536,0.8269230769230769,0.21428571428571427,0.8571428571428571,0.0018782752820878628
110,1.593292474746704,1.527337670326233,0.36538461538461536,0.8269230769230769,0.21428571428571427,0.8571428571428571,0.001802522234901927
111,1.5407668948173523,1.5309890508651733,0.36538461538461536,0.8269230769230769,0.21428571428571427,0.8571428571428571,0.0017274575140626323
112,1.552498698234558,1.5256632566452026,0.36538461538461536,0.8269230769230769,0.21428571428571427,0.8571428571428571,0.0016531551993867715
113,1.5541271567344666,1.5232996940612793,0.36538461538461536,0.8269230769230769,0.21428571428571427,0.8571428571428571,0.0015796886182883059
114,1.5163201093673706,1.5241658687591553,0.36538461538461536,0.8269230769230769,0.21428571428571427,0.8571428571428571,0.0015071302734130482
115,1.5222924947738647,1.5202327966690063,0.36538461538461536,0.8269230769230769,0.21428571428571427,0.8571428571428571,0.0014355517710873183
116,1.546814501285553,1.5330841541290283,0.36538461538461536,0.8269230769230769,0.21428571428571427,0.8571428571428571,0.0013650237506511332
117,1.5001488327980042,1.5430715084075928,0.36538461538461536,0.8269230769230769,0.21428571428571427,0.8571428571428571,0.0012956158147457114
118,1.491753339767456,1.5681328773498535,0.36538461538461536,0.8269230769230769,0.21428571428571427,0.8571428571428571,0.0012273964606240718
119,1.5097380876541138,1.51689612865448,0.36538461538461536,0.8269230769230769,0.21428571428571427,0.8571428571428571,0.0011604330125525079
120,1.5159968137741089,1.5415229797363281,0.36538461538461536,0.8269230769230769,0.21428571428571427,0.8571428571428571,0.0010947915553696733
121,1.4855051040649414,1.5226755142211914,0.36538461538461536,0.8269230769230769,0.21428571428571427,0.8571428571428571,0.0010305368692688174
122,1.5175958275794983,1.5087521076202393,0.36538461538461536,0.8269230769230769,0.21428571428571427,0.8571428571428571,0.0009677323658675585
123,1.4621731638908386,1.5036951303482056,0.36538461538461536,0.8269230769230769,0.21428571428571427,0.8571428571428571,0.0009064400256282757
124,1.4455721974372864,1.5206373929977417,0.36538461538461536,0.8269230769230769,0.21428571428571427,0.8571428571428571,0.0008467203366908707
125,1.5154642462730408,1.5370945930480957,0.36538461538461536,0.8269230769230769,0.21428571428571427,0.8571428571428571,0.0007886322351782782
126,1.5271523594856262,1.5607727766036987,0.36538461538461536,0.8269230769230769,0.21428571428571427,0.8571428571428571,0.0007322330470336313
127,1.4748408794403076,1.5044399499893188,0.36538461538461536,0.8269230769230769,0.21428571428571427,0.8571428571428571,0.0006775784314464717
128,1.434246301651001,1.5524623394012451,0.36538461538461536,0.8269230769230769,0.21428571428571427,0.8571428571428571,0.0006247223259238514
129,1.4443276524543762,1.568811297416687,0.36538461538461536,0.8269230769230769,0.21428571428571427,0.8571428571428571,0.0005737168930605272
130,1.4557398557662964,1.542419195175171,0.36538461538461536,0.8269230769230769,0.21428571428571427,0.8571428571428571,0.000524612469060774
131,1.4644414186477661,1.5977394580841064,0.36538461538461536,0.8269230769230769,0.21428571428571427,0.8571428571428571,0.00047745751406263163
132,1.4631038308143616,1.612619400024414,0.36538461538461536,0.8269230769230769,0.21428571428571427,0.8571428571428571,0.000432298564313596
133,1.4629184007644653,1.5420300960540771,0.36538461538461536,0.8269230769230769,0.21428571428571427,0.8571428571428571,0.00038918018624496285
134,1.4409278631210327,1.6360392570495605,0.36538461538461536,0.8269230769230769,0.21428571428571427,0.8571428571428571,0.0003481449324901406
135,1.4526931047439575,1.525678038597107,0.36538461538461536,0.8269230769230769,0.21428571428571427,0.8571428571428571,0.00030923329989034103
136,1.4521756172180176,1.569136619567871,0.36538461538461536,0.8269230769230769,0.21428571428571427,0.8571428571428571,0.00027248368952908055
137,1.4325028657913208,1.5362954139709473,0.36538461538461536,0.8269230769230769,0.21428571428571427,0.8571428571428571,0.00023793236883495162
138,1.3933635354042053,1.50547456741333,0.36538461538461536,0.8269230769230769,0.21428571428571427,0.8571428571428571,0.0002056134357900477
139,1.4662171006202698,1.6566805839538574,0.36538461538461536,0.8269230769230769,0.21428571428571427,0.8571428571428571,0.00017555878527937164
140,1.4061985611915588,1.5292755365371704,0.36538461538461536,0.8269230769230769,0.21428571428571427,0.8571428571428571,0.00014779807761443637
141,1.3970362544059753,1.5894426107406616,0.36538461538461536,0.8269230769230769,0.21428571428571427,0.8571428571428571,0.00012235870926211617
142,1.388063907623291,1.4794553518295288,0.36538461538461536,0.8269230769230769,0.21428571428571427,0.8571428571428571,9.926578580764262e-05
143,1.4726750254631042,1.5286388397216797,0.36538461538461536,0.8269230769230769,0.21428571428571427,0.8571428571428571,7.854209717842258e-05
144,1.4187350869178772,1.5501601696014404,0.36538461538461536,0.8269230769230769,0.21428571428571427,0.8571428571428571,6.0208095153131695e-05
145,1.3805530071258545,1.5306702852249146,0.36538461538461536,0.8269230769230769,0.21428571428571427,0.8571428571428571,4.4281873178278196e-05
146,1.4099884629249573,1.5445621013641357,0.36538461538461536,0.8269230769230769,0.21428571428571427,0.8571428571428571,3.077914851215585e-05
147,1.4062848091125488,1.5576021671295166,0.36538461538461536,0.8269230769230769,0.21428571428571427,0.8571428571428571,1.9713246713805587e-05
148,1.3612356781959534,1.5129878520965576,0.36538461538461536,0.8269230769230769,0.21428571428571427,0.8571428571428571,1.109508849230001e-05
149,1.420417845249176,1.6215400695800781,0.36538461538461536,0.8269230769230769,0.21428571428571427,0.8571428571428571,4.933178929321102e-06
150,1.3822635412216187,1.527984619140625,0.36538461538461536,0.8269230769230769,0.21428571428571427,0.8571428571428571,1.233599085671e-06
151,1.5573359727859497,1.5920164585113525,0.36538461538461536,0.8269230769230769,0.21428571428571427,0.8571428571428571,0.005
152,1.6056734919548035,1.5566086769104004,0.36538461538461536,0.8269230769230769,0.21428571428571427,0.8571428571428571,0.004999691581204151
153,1.574743628501892,1.5671907663345337,0.36538461538461536,0.8269230769230769,0.21428571428571427,0.8571428571428571,0.0049987664009143295
154,1.5802611708641052,1.5925142765045166,0.34615384615384615,0.8269230769230769,0.35714285714285715,0.8571428571428571,0.004997224687404925
155,1.5923807621002197,1.531751036643982,0.3269230769230769,0.8269230769230769,0.35714285714285715,0.8571428571428571,0.004995066821070679
156,1.5454076528549194,1.513611078262329,0.40384615384615385,0.8269230769230769,0.21428571428571427,0.8571428571428571,0.00499229333433282
157,1.5352851152420044,1.5285133123397827,0.36538461538461536,0.8269230769230769,0.21428571428571427,0.8571428571428571,0.0049889049115077
158,1.5973857641220093,1.5415923595428467,0.36538461538461536,0.8269230769230769,0.21428571428571427,0.8571428571428571,0.004984902388637949
159,1.5816899538040161,1.5401721000671387,0.36538461538461536,0.8269230769230769,0.21428571428571427,0.8571428571428571,0.004980286753286195
160,1.547113299369812,1.5442676544189453,0.36538461538461536,0.8269230769230769,0.21428571428571427,0.8571428571428571,0.004975059144291394
161,1.5699135065078735,1.552323341369629,0.34615384615384615,0.8269230769230769,0.35714285714285715,0.8571428571428571,0.0049692208514878445
162,1.5905035734176636,1.5434510707855225,0.3269230769230769,0.8269230769230769,0.35714285714285715,0.8571428571428571,0.004962773315386935
163,1.5694329142570496,1.5165337324142456,0.3269230769230769,0.8269230769230769,0.42857142857142855,0.8571428571428571,0.004955718126821722
164,1.5808460116386414,1.5069583654403687,0.3076923076923077,0.8269230769230769,0.42857142857142855,0.8571428571428571,0.0049480570265544145
165,1.5708799362182617,1.5227893590927124,0.3076923076923077,0.8269230769230769,0.21428571428571427,0.8571428571428571,0.004939791904846869
166,1.5805619955062866,1.5467476844787598,0.36538461538461536,0.8269230769230769,0.21428571428571427,0.8571428571428571,0.004930924800994192
167,1.53339684009552,1.5796325206756592,0.36538461538461536,0.8269230769230769,0.21428571428571427,0.8571428571428571,0.004921457902821578
168,1.5491218566894531,1.59295654296875,0.36538461538461536,0.8269230769230769,0.21428571428571427,0.8571428571428571,0.004911393546144495
169,1.5453014969825745,1.5768046379089355,0.36538461538461536,0.8269230769230769,0.21428571428571427,0.8571428571428571,0.004900734214192358
170,1.549195945262909,1.5556422472000122,0.36538461538461536,0.8269230769230769,0.21428571428571427,0.8571428571428571,0.004889482536995825
171,1.564342975616455,1.552385926246643,0.36538461538461536,0.8269230769230769,0.21428571428571427,0.8571428571428571,0.0048776412907378846
172,1.5465098023414612,1.528066635131836,0.36538461538461536,0.8269230769230769,0.21428571428571427,0.8571428571428571,0.004865213397068863
173,1.5554314851760864,1.526087999343872,0.3269230769230769,0.8269230769230769,0.21428571428571427,0.8571428571428571,0.004852201922385564
174,1.5764662623405457,1.5211846828460693,0.2692307692307692,0.8269230769230769,0.21428571428571427,0.8571428571428571,0.004838610077074669
175,1.5918017625808716,1.5163724422454834,0.3076923076923077,0.8269230769230769,0.2857142857142857,0.8571428571428571,0.004824441214720628
176,1.5455023050308228,1.5439448356628418,0.4423076923076923,0.8269230769230769,0.21428571428571427,0.8571428571428571,0.004809698831278217
177,1.5521060824394226,1.5464015007019043,0.4230769230769231,0.8269230769230769,0.2857142857142857,0.8571428571428571,0.0047943865642099525
178,1.5078397989273071,1.5313829183578491,0.36538461538461536,0.8269230769230769,0.2857142857142857,0.8571428571428571,0.004778508191588613
179,1.5320165157318115,1.6552860736846924,0.34615384615384615,0.8269230769230769,0.35714285714285715,0.8571428571428571,0.004762067631165049
180,1.490916669368744,1.5668467283248901,0.46153846153846156,0.8269230769230769,0.14285714285714285,0.8571428571428571,0.004745068939401539
181,1.573789656162262,1.5476233959197998,0.3269230769230769,0.8269230769230769,0.42857142857142855,0.8571428571428571,0.00472751631047092
182,1.5301742553710938,1.4582831859588623,0.2692307692307692,0.8269230769230769,0.2857142857142857,0.8571428571428571,0.004709414075221734
183,1.454853594303131,1.5275769233703613,0.34615384615384615,0.8269230769230769,0.2857142857142857,0.8571428571428571,0.0046907667001096585
184,1.5313665866851807,1.6044766902923584,0.36538461538461536,0.8269230769230769,0.21428571428571427,0.8571428571428571,0.004671578786095479
185,1.5847105979919434,1.6209919452667236,0.36538461538461536,0.8269230769230769,0.21428571428571427,0.8571428571428571,0.0046518550675098596
186,1.4882757663726807,1.4764673709869385,0.38461538461538464,0.8269230769230769,0.2857142857142857,0.8571428571428571,0.004631600410885231
187,1.510634183883667,1.7318572998046875,0.3076923076923077,0.8269230769230769,0.14285714285714285,0.8571428571428571,0.004610819813755038
188,1.516273558139801,1.6123509407043457,0.38461538461538464,0.8269230769230769,0.07142857142857142,0.8571428571428571,0.004589518403420676
189,1.5666921734809875,1.5194568634033203,0.2692307692307692,0.8269230769230769,0.2857142857142857,0.8571428571428571,0.004567701435686404
190,1.4404119849205017,1.5204049348831177,0.36538461538461536,0.8269230769230769,0.35714285714285715,0.8571428571428571,0.004545374293562558
191,1.449088215827942,1.681823492050171,0.36538461538461536,0.8269230769230769,0.21428571428571427,0.8571428571428571,0.0045225424859373685
192,1.4653226733207703,1.5860402584075928,0.3076923076923077,0.8269230769230769,0.07142857142857142,0.8571428571428571,0.004499211646217727
193,1.3913629055023193,1.459164023399353,0.38461538461538464,0.8269230769230769,0.35714285714285715,0.8571428571428571,0.0044753875309392266
194,1.4816954135894775,1.7892447710037231,0.2692307692307692,0.8269230769230769,0.14285714285714285,0.8571428571428571,0.004451076018345824
195,1.4504453539848328,1.6368687152862549,0.36538461538461536,0.8269230769230769,0.14285714285714285,0.8571428571428571,0.004426283106939473
196,1.422110140323639,1.5919301509857178,0.40384615384615385,0.8269230769230769,0.2857142857142857,0.8571428571428571,0.004401014914000078
197,1.3654574155807495,1.5137996673583984,0.4230769230769231,0.8269230769230769,0.35714285714285715,0.8571428571428571,0.004375277674076149
198,1.3933511972427368,1.6198413372039795,0.4230769230769231,0.8269230769230769,0.2857142857142857,0.8571428571428571,0.004349077737446524
199,1.4321582317352295,1.5458331108093262,0.40384615384615385,0.8269230769230769,0.35714285714285715,0.8571428571428571,0.004322421568553529
200,1.3615880012512207,1.746470332145691,0.4423076923076923,0.8269230769230769,0.2857142857142857,0.8571428571428571,0.004295315744407973
201,1.4404326677322388,1.945643424987793,0.38461538461538464,0.8269230769230769,0.21428571428571427,0.8571428571428571,0.004267766952966369
202,1.38827645778656,1.7283971309661865,0.4230769230769231,0.8269230769230769,0.2857142857142857,0.8571428571428571,0.004239781991480785
203,1.498228907585144,2.265317440032959,0.4230769230769231,0.8269230769230769,0.14285714285714285,0.8571428571428571,0.004211367764821722
204,1.4102219343185425,1.808785319328308,0.34615384615384615,0.8269230769230769,0.21428571428571427,0.8571428571428571,0.004182531283774433
205,1.4892579913139343,1.6245677471160889,0.38461538461538464,0.8269230769230769,0.2857142857142857,0.8571428571428571,0.00415327966330913
206,1.553578495979309,1.5168206691741943,0.3269230769230769,0.8269230769230769,0.35714285714285715,0.8571428571428571,0.00412362012082546
207,1.49263334274292,1.5781803131103516,0.4423076923076923,0.8269230769230769,0.2857142857142857,0.8571428571428571,0.004093559974371724
208,1.4462287425994873,1.9213827848434448,0.4423076923076923,0.8269230769230769,0.2857142857142857,0.8571428571428571,0.004063106640839263
209,1.4237332344055176,1.8549730777740479,0.4230769230769231,0.8269230769230769,0.21428571428571427,0.8571428571428571,0.004032267634132442
210,1.3940984606742859,1.8286961317062378,0.46153846153846156,0.8269230769230769,0.2857142857142857,0.8571428571428571,0.004001050563314711
211,1.4978147149085999,1.7891173362731934,0.38461538461538464,0.8269230769230769,0.21428571428571427,0.8571428571428571,0.003969463130731183
212,1.4242076873779297,1.8005752563476562,0.36538461538461536,0.8269230769230769,0.21428571428571427,0.8571428571428571,0.003937513130108197
213,1.426545798778534,1.8152300119400024,0.38461538461538464,0.8269230769230769,0.21428571428571427,0.8571428571428571,0.003905208444630327
214,1.4080185890197754,1.73396635055542,0.40384615384615385,0.8269230769230769,0.2857142857142857,0.8571428571428571,0.0038725570449953295
215,1.4836601614952087,1.7476552724838257,0.28846153846153844,0.8269230769230769,0.2857142857142857,0.8571428571428571,0.0038395669874474914
216,1.4425505995750427,1.6998119354248047,0.34615384615384615,0.8269230769230769,0.21428571428571427,0.8571428571428571,0.0038062464117898723
217,1.4557169079780579,1.6907200813293457,0.34615384615384615,0.8269230769230769,0.35714285714285715,0.8571428571428571,0.0037726035393759283
218,1.4843676090240479,1.552018404006958,0.3269230769230769,0.8269230769230769,0.2857142857142857,0.8571428571428571,0.003738646671081019
219,1.4516648650169373,1.647162675857544,0.38461538461538464,0.8269230769230769,0.2857142857142857,0.8571428571428571,0.0037043841852542883
220,1.5267025828361511,1.7611675262451172,0.36538461538461536,0.8269230769230769,0.2857142857142857,0.8571428571428571,0.0036698245356514337
221,1.4206107258796692,1.6871659755706787,0.4230769230769231,0.8269230769230769,0.21428571428571427,0.8571428571428571,0.003634976249348867
222,1.4119619131088257,1.6992623805999756,0.38461538461538464,0.8269230769230769,0.21428571428571427,0.8571428571428571,0.0035998479246397877
223,1.5225310921669006,1.7153656482696533,0.4230769230769231,0.8269230769230769,0.21428571428571427,0.8571428571428571,0.003564448228912682
224,1.4936773777008057,1.7348527908325195,0.38461538461538464,0.8269230769230769,0.21428571428571427,0.8571428571428571,0.0035287858965127724
225,1.3752250671386719,1.6974270343780518,0.40384615384615385,0.8269230769230769,0.2857142857142857,0.8571428571428571,0.003492869726586951
226,1.4166094064712524,1.637223720550537,0.46153846153846156,0.8269230769230769,0.2857142857142857,0.8571428571428571,0.003456708580912725
227,1.4566221237182617,1.760990023612976,0.4230769230769231,0.8269230769230769,0.21428571428571427,0.8571428571428571,0.0034203113817116953
228,1.558388113975525,1.5655914545059204,0.4230769230769231,0.8269230769230769,0.21428571428571427,0.8571428571428571,0.003383687109448143
229,1.5580703616142273,1.436653971672058,0.36538461538461536,0.8269230769230769,0.2857142857142857,0.8571428571428571,0.0033468448006132292
230,1.374848186969757,1.4760472774505615,0.46153846153846156,0.8269230769230769,0.21428571428571427,0.8571428571428571,0.003309793545495374
231,1.4567392468452454,1.6152257919311523,0.4230769230769231,0.8269230769230769,0.21428571428571427,0.8571428571428571,0.0032725424859373687
232,1.4676549434661865,1.5010793209075928,0.4807692307692308,0.8269230769230769,0.2857142857142857,0.8571428571428571,0.00323510081308076
233,1.4851672053337097,1.6035436391830444,0.40384615384615385,0.8269230769230769,0.21428571428571427,0.8571428571428571,0.0031974777650980737
234,1.4198936223983765,1.4857401847839355,0.4230769230769231,0.8269230769230769,0.21428571428571427,0.8571428571428571,0.003159682624913432
235,1.3732496500015259,1.5194728374481201,0.38461538461538464,0.8269230769230769,0.35714285714285715,0.8571428571428571,0.0031217247179121366
236,1.3592796921730042,1.5409581661224365,0.4423076923076923,0.8269230769230769,0.42857142857142855,0.8571428571428571,0.0030836134096397638
237,1.4300044775009155,1.5993497371673584,0.4230769230769231,0.8269230769230769,0.42857142857142855,0.8571428571428571,0.0030453581034913567
238,1.6302394270896912,1.6143015623092651,0.3269230769230769,0.8269230769230769,0.42857142857142855,0.8571428571428571,0.0030069682383912816
239,1.592949390411377,1.5991544723510742,0.3269230769230769,0.8269230769230769,0.21428571428571427,0.8571428571428571,0.002968453286464312
240,1.4835410118103027,1.602219581604004,0.40384615384615385,0.8269230769230769,0.21428571428571427,0.8571428571428571,0.0029298227506985236
241,1.6173224449157715,1.5836752653121948,0.36538461538461536,0.8269230769230769,0.21428571428571427,0.8571428571428571,0.0028910861626005773
242,1.5466856956481934,1.5645805597305298,0.36538461538461536,0.8269230769230769,0.21428571428571427,0.8571428571428571,0.0028522530798439573
243,1.3664743304252625,1.6090998649597168,0.4807692307692308,0.8269230769230769,0.21428571428571427,0.8571428571428571,0.002813333083910761
244,1.5071626901626587,1.606453537940979,0.38461538461538464,0.8269230769230769,0.21428571428571427,0.8571428571428571,0.0027743357777276134
245,1.479741632938385,1.6071348190307617,0.4230769230769231,0.8461538461538461,0.21428571428571427,0.7857142857142857,0.002735270783296286
246,1.4844077229499817,1.5926519632339478,0.38461538461538464,0.8461538461538461,0.2857142857142857,0.7142857142857143,0.0026961477393196128
247,1.4542719721794128,1.6975599527359009,0.38461538461538464,0.8461538461538461,0.21428571428571427,0.6428571428571429,0.0026569762988232835
248,1.5007070302963257,1.6852445602416992,0.4230769230769231,0.8076923076923077,0.2857142857142857,0.6428571428571429,0.0026177661267741065
249,1.5330471992492676,1.6228466033935547,0.4230769230769231,0.7884615384615384,0.2857142857142857,0.6428571428571429,0.0025785268976953207
250,1.5477547645568848,1.6364169120788574,0.34615384615384615,0.7115384615384616,0.2857142857142857,0.6428571428571429,0.002539268293279552
251,1.6557080745697021,1.738854169845581,0.34615384615384615,0.5576923076923077,0.14285714285714285,0.5,0.0025
252,1.6325611472129822,1.6565451622009277,0.46153846153846156,0.7115384615384616,0.2857142857142857,0.8571428571428571,0.002460731706720449
253,1.5554167032241821,1.5820866823196411,0.4230769230769231,0.8269230769230769,0.5,0.8571428571428571,0.0024214731023046794
254,1.5874986052513123,1.5438835620880127,0.3076923076923077,0.8269230769230769,0.5,0.8571428571428571,0.0023822338732258936
255,1.561166763305664,1.7190567255020142,0.38461538461538464,0.8269230769230769,0.35714285714285715,0.8571428571428571,0.0023430237011767166
256,1.5272640585899353,1.5812225341796875,0.46153846153846156,0.8269230769230769,0.42857142857142855,0.8571428571428571,0.002303852260680388
257,1.527806580066681,1.756024718284607,0.40384615384615385,0.8269230769230769,0.21428571428571427,0.8571428571428571,0.002264729216703714
258,1.5694081783294678,1.8199002742767334,0.36538461538461536,0.8269230769230769,0.14285714285714285,0.8571428571428571,0.0022256642222723867
259,1.5229469537734985,1.4696321487426758,0.3269230769230769,0.8269230769230769,0.42857142857142855,0.8571428571428571,0.0021866669160892395
260,1.462551236152649,1.7500810623168945,0.36538461538461536,0.8269230769230769,0.14285714285714285,0.8571428571428571,0.002147746920156044
261,1.4245569109916687,1.728271722793579,0.4807692307692308,0.8269230769230769,0.2857142857142857,0.8571428571428571,0.002108913837399423
262,1.4941726326942444,1.7784478664398193,0.36538461538461536,0.8269230769230769,0.14285714285714285,0.8571428571428571,0.002070177249301476
263,1.4912757873535156,1.6561956405639648,0.36538461538461536,0.8269230769230769,0.21428571428571427,0.8571428571428571,0.0020315467135356884
264,1.5011866092681885,1.7108979225158691,0.36538461538461536,0.8269230769230769,0.21428571428571427,0.8571428571428571,0.001993031761608719
265,1.4150806665420532,1.4655396938323975,0.36538461538461536,0.8269230769230769,0.21428571428571427,0.8571428571428571,0.0019546418965086442
266,1.5541927814483643,1.6969513893127441,0.36538461538461536,0.8269230769230769,0.21428571428571427,0.8571428571428571,0.0019163865903602361
267,1.5191736817359924,1.7461775541305542,0.36538461538461536,0.8269230769230769,0.21428571428571427,0.8571428571428571,0.0018782752820878628
268,1.4602442383766174,1.5938794612884521,0.36538461538461536,0.8269230769230769,0.21428571428571427,0.8571428571428571,0.0018403173750865679
269,1.4225987792015076,1.771517038345337,0.3076923076923077,0.8269230769230769,0.2857142857142857,0.8571428571428571,0.001802522234901927
270,1.4635528326034546,1.5444859266281128,0.46153846153846156,0.8269230769230769,0.21428571428571427,0.8571428571428571,0.0017648991869192404
271,1.4543499946594238,1.7866510152816772,0.4423076923076923,0.8269230769230769,0.2857142857142857,0.8571428571428571,0.0017274575140626323
272,1.3841321468353271,1.8028579950332642,0.4423076923076923,0.8269230769230769,0.14285714285714285,0.8571428571428571,0.0016902064545046263
273,1.4309966564178467,1.8958265781402588,0.4230769230769231,0.8269230769230769,0.14285714285714285,0.8571428571428571,0.0016531551993867715
274,1.4672423005104065,1.715910792350769,0.40384615384615385,0.8269230769230769,0.14285714285714285,0.8571428571428571,0.0016163128905518577
275,1.3600218296051025,1.7062739133834839,0.4423076923076923,0.8269230769230769,0.35714285714285715,0.8571428571428571,0.0015796886182883059
276,1.3917190432548523,1.7223719358444214,0.4807692307692308,0.8269230769230769,0.14285714285714285,0.8571428571428571,0.0015432914190872762
277,1.4390724301338196,1.5160536766052246,0.4230769230769231,0.8269230769230769,0.21428571428571427,0.8571428571428571,0.0015071302734130482
278,1.4468493461608887,1.7023355960845947,0.34615384615384615,0.8269230769230769,0.2857142857142857,0.8571428571428571,0.001471214103487228
279,1.4370530247688293,1.7572537660598755,0.4230769230769231,0.8269230769230769,0.35714285714285715,0.8571428571428571,0.0014355517710873183
280,1.388857126235962,1.640695333480835,0.38461538461538464,0.8269230769230769,0.35714285714285715,0.8571428571428571,0.001400152075360212
281,1.3876680135726929,2.0173888206481934,0.40384615384615385,0.8269230769230769,0.21428571428571427,0.8571428571428571,0.0013650237506511332
282,1.3191089630126953,1.7497248649597168,0.4807692307692308,0.8269230769230769,0.14285714285714285,0.8571428571428571,0.001330175464348567
283,1.359218418598175,1.435774564743042,0.4423076923076923,0.8269230769230769,0.42857142857142855,0.8571428571428571,0.0012956158147457114
284,1.4209946990013123,1.5900113582611084,0.38461538461538464,0.8269230769230769,0.2857142857142857,0.8571428571428571,0.001261353328918981
285,1.37832510471344,1.6290967464447021,0.28846153846153844,0.8269230769230769,0.2857142857142857,0.8571428571428571,0.0012273964606240718
286,1.3840712904930115,1.4989299774169922,0.36538461538461536,0.8269230769230769,0.2857142857142857,0.8571428571428571,0.001193753588210128
287,1.4322395324707031,1.784730076789856,0.3269230769230769,0.8269230769230769,0.2857142857142857,0.8571428571428571,0.0011604330125525079
288,1.381587564945221,1.652808666229248,0.46153846153846156,0.8269230769230769,0.21428571428571427,0.8571428571428571,0.0011274429550046702
289,1.4802961945533752,1.6336098909378052,0.40384615384615385,0.8269230769230769,0.35714285714285715,0.8571428571428571,0.0010947915553696733
290,1.3308607339859009,1.6723895072937012,0.46153846153846156,0.8269230769230769,0.21428571428571427,0.8571428571428571,0.0010624868698918036
291,1.3412628769874573,1.7329353094100952,0.46153846153846156,0.8269230769230769,0.2857142857142857,0.8571428571428571,0.0010305368692688174
292,1.345801055431366,1.611966848373413,0.46153846153846156,0.8269230769230769,0.21428571428571427,0.8571428571428571,0.0009989494366852902
293,1.3241976499557495,1.6833229064941406,0.4423076923076923,0.8269230769230769,0.21428571428571427,0.8571428571428571,0.0009677323658675585
294,1.3847222328186035,1.9342968463897705,0.40384615384615385,0.8269230769230769,0.21428571428571427,0.8571428571428571,0.000936893359160737
295,1.3312333822250366,1.6722344160079956,0.4807692307692308,0.8269230769230769,0.2857142857142857,0.8571428571428571,0.0009064400256282757
296,1.3426012992858887,1.7622895240783691,0.4423076923076923,0.8269230769230769,0.2857142857142857,0.8571428571428571,0.0008763798791745412
297,1.4224112629890442,1.7227096557617188,0.40384615384615385,0.8269230769230769,0.2857142857142857,0.8571428571428571,0.0008467203366908707
298,1.3766952753067017,1.7085853815078735,0.40384615384615385,0.8269230769230769,0.2857142857142857,0.8571428571428571,0.0008174687162255665
299,1.416380524635315,1.565302848815918,0.4230769230769231,0.8269230769230769,0.21428571428571427,0.8571428571428571,0.0007886322351782782
300,1.352529525756836,1.5768001079559326,0.4423076923076923,0.8269230769230769,0.2857142857142857,0.8571428571428571,0.0007602180085192142
301,1.3978952765464783,1.9405508041381836,0.4230769230769231,0.8269230769230769,0.14285714285714285,0.8571428571428571,0.0007322330470336313
302,1.3572404384613037,1.6887266635894775,0.46153846153846156,0.8269230769230769,0.21428571428571427,0.8571428571428571,0.0007046842555920282
303,1.3427560925483704,1.6340417861938477,0.4230769230769231,0.8269230769230769,0.21428571428571427,0.8571428571428571,0.0006775784314464717
304,1.3195977210998535,1.9972937107086182,0.4423076923076923,0.8269230769230769,0.14285714285714285,0.8571428571428571,0.0006509222625534758
305,1.5055922865867615,1.8089622259140015,0.40384615384615385,0.8269230769230769,0.21428571428571427,0.8571428571428571,0.0006247223259238514
306,1.4105327129364014,1.6079959869384766,0.4423076923076923,0.8269230769230769,0.2857142857142857,0.8571428571428571,0.0005989850859999227
307,1.3224384188652039,1.6688711643218994,0.46153846153846156,0.8269230769230769,0.2857142857142857,0.8571428571428571,0.0005737168930605272
308,1.3793898224830627,1.6210724115371704,0.46153846153846156,0.8269230769230769,0.21428571428571427,0.8571428571428571,0.000548923981654176
309,1.370181679725647,1.6480153799057007,0.4423076923076923,0.8269230769230769,0.21428571428571427,0.8571428571428571,0.000524612469060774
310,1.3410625457763672,1.847266435623169,0.46153846153846156,0.8269230769230769,0.14285714285714285,0.8571428571428571,0.0005007883537822738
311,1.329712986946106,1.5804297924041748,0.4423076923076923,0.8269230769230769,0.2857142857142857,0.8571428571428571,0.00047745751406263163
312,1.309767484664917,1.6418524980545044,0.46153846153846156,0.8269230769230769,0.21428571428571427,0.8571428571428571,0.00045462570643744175
313,1.321717083454132,1.5716612339019775,0.46153846153846156,0.8269230769230769,0.21428571428571427,0.8571428571428571,0.000432298564313596
314,1.3550804257392883,1.5952785015106201,0.4230769230769231,0.8269230769230769,0.21428571428571427,0.8571428571428571,0.00041048159657932487
315,1.3832149505615234,1.562662959098816,0.4423076923076923,0.8269230769230769,0.2857142857142857,0.8571428571428571,0.00038918018624496285
316,1.3335410356521606,1.545872449874878,0.40384615384615385,0.8269230769230769,0.2857142857142857,0.8571428571428571,0.00036839958911477014
317,1.4013193845748901,1.502835988998413,0.40384615384615385,0.8269230769230769,0.2857142857142857,0.8571428571428571,0.0003481449324901406
318,1.3341318368911743,1.8399616479873657,0.40384615384615385,0.8269230769230769,0.14285714285714285,0.8571428571428571,0.0003284212139045217
319,1.279135286808014,1.6933155059814453,0.46153846153846156,0.8269230769230769,0.21428571428571427,0.8571428571428571,0.00030923329989034103
320,1.3586724400520325,1.858911156654358,0.46153846153846156,0.8269230769230769,0.21428571428571427,0.8571428571428571,0.00029058592477826633
321,1.3320567607879639,1.6268563270568848,0.4423076923076923,0.8269230769230769,0.21428571428571427,0.8571428571428571,0.00027248368952908055
322,1.3068415522575378,1.798983097076416,0.4423076923076923,0.8269230769230769,0.2857142857142857,0.8571428571428571,0.00025493106059846116
323,1.2707191109657288,1.9062044620513916,0.46153846153846156,0.8269230769230769,0.14285714285714285,0.8571428571428571,0.00023793236883495162
324,1.3796591758728027,1.698775291442871,0.46153846153846156,0.8269230769230769,0.2857142857142857,0.8571428571428571,0.00022149180841138732
325,1.3016647100448608,1.898643970489502,0.46153846153846156,0.8269230769230769,0.14285714285714285,0.8571428571428571,0.0002056134357900477
326,1.3583049178123474,1.7659248113632202,0.46153846153846156,0.8269230769230769,0.14285714285714285,0.8571428571428571,0.0001903011687217837
327,1.3552860021591187,1.7868847846984863,0.4423076923076923,0.8269230769230769,0.21428571428571427,0.8571428571428571,0.00017555878527937164
328,1.3242977857589722,1.578635811805725,0.5192307692307693,0.8269230769230769,0.21428571428571427,0.8571428571428571,0.00016138992292533155
329,1.4002827405929565,1.5059901475906372,0.4423076923076923,0.8269230769230769,0.2857142857142857,0.8571428571428571,0.00014779807761443637
330,1.4709963202476501,1.5526031255722046,0.38461538461538464,0.8269230769230769,0.2857142857142857,0.8571428571428571,0.00013478660293113676
331,1.319934368133545,1.7334535121917725,0.4230769230769231,0.8269230769230769,0.14285714285714285,0.8571428571428571,0.00012235870926211617
332,1.410792887210846,1.5976150035858154,0.40384615384615385,0.8269230769230769,0.21428571428571427,0.8571428571428571,0.0001105174630041747
333,1.3873440623283386,1.6369683742523193,0.4423076923076923,0.8269230769230769,0.2857142857142857,0.8571428571428571,9.926578580764262e-05
334,1.2913988828659058,1.6214871406555176,0.4423076923076923,0.8269230769230769,0.21428571428571427,0.8571428571428571,8.860645385550508e-05
335,1.265281856060028,1.6759262084960938,0.5,0.8269230769230769,0.21428571428571427,0.8571428571428571,7.854209717842258e-05
336,1.3305561542510986,1.557143211364746,0.40384615384615385,0.8269230769230769,0.2857142857142857,0.8571428571428571,6.90751990058086e-05
337,1.268850028514862,1.5910024642944336,0.46153846153846156,0.8269230769230769,0.2857142857142857,0.8571428571428571,6.0208095153131695e-05
338,1.3624242544174194,1.5342285633087158,0.4230769230769231,0.8269230769230769,0.21428571428571427,0.8571428571428571,5.194297344558535e-05
339,1.354591965675354,1.8814351558685303,0.46153846153846156,0.8269230769230769,0.14285714285714285,0.8571428571428571,4.4281873178278196e-05
340,1.3502112030982971,1.7476892471313477,0.40384615384615385,0.8269230769230769,0.21428571428571427,0.8571428571428571,3.7226684613065334e-05
341,1.3981382250785828,1.7036948204040527,0.46153846153846156,0.8269230769230769,0.21428571428571427,0.8571428571428571,3.077914851215585e-05
342,1.4570395946502686,1.5033921003341675,0.38461538461538464,0.8269230769230769,0.2857142857142857,0.8571428571428571,2.4940855708606158e-05
343,1.4147128462791443,1.6760247945785522,0.4423076923076923,0.8269230769230769,0.21428571428571427,0.8571428571428571,1.9713246713805587e-05
344,1.4124312996864319,1.6435317993164062,0.46153846153846156,0.8269230769230769,0.2857142857142857,0.8571428571428571,1.5097611362051012e-05
345,1.317945420742035,1.4446172714233398,0.4423076923076923,0.8269230769230769,0.2857142857142857,0.8571428571428571,1.109508849230001e-05
346,1.3388769626617432,1.6647766828536987,0.4230769230769231,0.8269230769230769,0.2857142857142857,0.8571428571428571,7.70666566718009e-06
347,1.2451897263526917,1.537062406539917,0.4807692307692308,0.8269230769230769,0.21428571428571427,0.8571428571428571,4.933178929321102e-06
348,1.346811830997467,1.740586280822754,0.4230769230769231,0.8269230769230769,0.21428571428571427,0.8571428571428571,2.775312595075241e-06
349,1.3377236127853394,1.6770858764648438,0.46153846153846156,0.8269230769230769,0.2857142857142857,0.8571428571428571,1.233599085671e-06
350,1.3194724321365356,1.839609146118164,0.4423076923076923,0.8269230769230769,0.21428571428571427,0.8571428571428571,3.0841879584853074e-07
