epoch,train_loss,val_loss,train_acc_action,train_acc_status,val_acc_action,val_acc_status,learning_rate
1,1.8377397060394287,1.8527987003326416,0.36538461538461536,0.21153846153846154,0.21428571428571427,0.14285714285714285,0.0004
2,1.809147834777832,1.846698522567749,0.36538461538461536,0.28846153846153844,0.21428571428571427,0.21428571428571427,0.0004
3,1.8124961256980896,1.8106517791748047,0.34615384615384615,0.34615384615384615,0.21428571428571427,0.5,0.0004
4,1.7994937896728516,1.800209403038025,0.40384615384615385,0.46153846153846156,0.2857142857142857,0.5,0.0004
5,1.779702365398407,1.798432469367981,0.38461538461538464,0.4230769230769231,0.2857142857142857,0.42857142857142855,0.0004
6,1.7592583894729614,1.7886080741882324,0.40384615384615385,0.6730769230769231,0.21428571428571427,0.5,0.0004
7,1.7309017777442932,1.7365431785583496,0.4423076923076923,0.6730769230769231,0.2857142857142857,0.7857142857142857,0.0004
8,1.7463315725326538,1.7377407550811768,0.4230769230769231,0.5769230769230769,0.5,0.6428571428571429,0.0004
9,1.7232499718666077,1.7343155145645142,0.40384615384615385,0.6538461538461539,0.5,0.5714285714285714,0.0004
10,1.7283004522323608,1.7146533727645874,0.4807692307692308,0.5769230769230769,0.42857142857142855,0.7142857142857143,0.0004
11,1.7448350191116333,1.7335383892059326,0.46153846153846156,0.6153846153846154,0.42857142857142855,0.7142857142857143,0.0004
12,1.7202820777893066,1.675962209701538,0.38461538461538464,0.6538461538461539,0.42857142857142855,0.7857142857142857,0.0004
13,1.6636677980422974,1.697629690170288,0.46153846153846156,0.7115384615384616,0.14285714285714285,0.7857142857142857,0.0004
14,1.7295188307762146,1.692244529724121,0.40384615384615385,0.7115384615384616,0.35714285714285715,0.7142857142857143,0.0004
15,1.6608940362930298,1.6572132110595703,0.5576923076923077,0.6730769230769231,0.5,0.7142857142857143,0.0004
16,1.6440929770469666,1.7161688804626465,0.5576923076923077,0.6923076923076923,0.35714285714285715,0.7857142857142857,0.0004
17,1.660175383090973,1.6580135822296143,0.4423076923076923,0.6730769230769231,0.5714285714285714,0.7857142857142857,0.0004
18,1.71230149269104,1.6288127899169922,0.4423076923076923,0.6730769230769231,0.42857142857142855,0.7142857142857143,0.0004
19,1.6427575945854187,1.6620893478393555,0.38461538461538464,0.7115384615384616,0.5,0.7857142857142857,0.0004
20,1.6120671033859253,1.6104426383972168,0.5192307692307693,0.7884615384615384,0.5714285714285714,0.8571428571428571,0.0004
21,1.5594784617424011,1.6514828205108643,0.4807692307692308,0.7115384615384616,0.35714285714285715,0.7857142857142857,0.0004
22,1.6406701803207397,1.6756243705749512,0.4230769230769231,0.7115384615384616,0.42857142857142855,0.7857142857142857,0.0004
23,1.6478095650672913,1.6045527458190918,0.40384615384615385,0.8269230769230769,0.5,0.7857142857142857,0.0004
24,1.5301361680030823,1.6440221071243286,0.5,0.75,0.5714285714285714,0.7857142857142857,0.0004
25,1.5733729600906372,1.650346040725708,0.46153846153846156,0.7115384615384616,0.5,0.8571428571428571,0.0004
26,1.5396217107772827,1.5539096593856812,0.4230769230769231,0.75,0.42857142857142855,0.8571428571428571,0.0004
27,1.6243255138397217,1.5229575634002686,0.3076923076923077,0.7692307692307693,0.5714285714285714,0.8571428571428571,0.0004
28,1.528390347957611,1.6715443134307861,0.4807692307692308,0.8076923076923077,0.35714285714285715,0.7857142857142857,0.0004
29,1.592612862586975,1.736911416053772,0.4423076923076923,0.7884615384615384,0.5,0.8571428571428571,0.0004
30,1.621113896369934,1.5676709413528442,0.4423076923076923,0.7692307692307693,0.5,0.8571428571428571,0.0004
31,1.5854190587997437,1.5483249425888062,0.34615384615384615,0.8076923076923077,0.42857142857142855,0.8571428571428571,0.0004
32,1.449851393699646,1.7190046310424805,0.4807692307692308,0.8461538461538461,0.2857142857142857,0.8571428571428571,0.0004
33,1.545439600944519,1.7422354221343994,0.40384615384615385,0.8076923076923077,0.5,0.8571428571428571,0.0004
34,1.5165590047836304,1.5574936866760254,0.4807692307692308,0.7884615384615384,0.6428571428571429,0.8571428571428571,0.0004
35,1.628124177455902,1.6163474321365356,0.4423076923076923,0.8269230769230769,0.5714285714285714,0.8571428571428571,0.0004
36,1.5343069434165955,1.687788963317871,0.38461538461538464,0.8076923076923077,0.42857142857142855,0.8571428571428571,0.0004
37,1.477654755115509,1.5455105304718018,0.4807692307692308,0.8269230769230769,0.5714285714285714,0.8571428571428571,0.0004
38,1.512605905532837,1.5209907293319702,0.4423076923076923,0.8461538461538461,0.6428571428571429,0.7857142857142857,0.0004
39,1.418440818786621,1.667616844177246,0.5769230769230769,0.8269230769230769,0.5,0.8571428571428571,0.0004
40,1.405720293521881,1.6511709690093994,0.5384615384615384,0.8461538461538461,0.35714285714285715,0.8571428571428571,0.0004
41,1.4203088879585266,1.4040477275848389,0.4807692307692308,0.8269230769230769,0.8571428571428571,0.8571428571428571,0.0004
42,1.376741111278534,1.529762625694275,0.5,0.8076923076923077,0.5,0.8571428571428571,0.0004
43,1.534317135810852,1.4716696739196777,0.46153846153846156,0.8076923076923077,0.5714285714285714,0.8571428571428571,0.0004
44,1.5388579368591309,1.5668308734893799,0.4423076923076923,0.8269230769230769,0.42857142857142855,0.8571428571428571,0.0004
45,1.5276994705200195,1.8237628936767578,0.40384615384615385,0.8076923076923077,0.14285714285714285,0.8571428571428571,0.0004
46,1.4906195402145386,1.575251579284668,0.5,0.8076923076923077,0.5,0.8571428571428571,0.0004
47,1.4838892817497253,1.6511008739471436,0.46153846153846156,0.7884615384615384,0.42857142857142855,0.8571428571428571,0.0004
48,1.5113853812217712,1.4674021005630493,0.5,0.8653846153846154,0.5714285714285714,0.8571428571428571,0.0004
49,1.396151602268219,1.5098979473114014,0.5192307692307693,0.7692307692307693,0.5714285714285714,0.8571428571428571,0.0004
50,1.528522253036499,1.577423095703125,0.5,0.8076923076923077,0.6428571428571429,0.8571428571428571,0.0004
51,1.3986713290214539,1.398618459701538,0.5384615384615384,0.8269230769230769,0.6428571428571429,0.8571428571428571,0.0004
52,1.454662263393402,1.679960012435913,0.5192307692307693,0.8076923076923077,0.35714285714285715,0.8571428571428571,0.0004
53,1.3977577686309814,1.56622314453125,0.5,0.8269230769230769,0.5,0.8571428571428571,0.0004
54,1.6137226819992065,1.5225194692611694,0.4230769230769231,0.8269230769230769,0.5714285714285714,0.8571428571428571,0.0004
55,1.4781449437141418,1.6909223794937134,0.40384615384615385,0.8269230769230769,0.42857142857142855,0.8571428571428571,0.0004
56,1.4520263671875,1.602893352508545,0.40384615384615385,0.8076923076923077,0.35714285714285715,0.8571428571428571,0.0004
57,1.5626442432403564,1.5698882341384888,0.5,0.8076923076923077,0.5,0.8571428571428571,0.0004
58,1.462486743927002,1.5940150022506714,0.4230769230769231,0.8269230769230769,0.42857142857142855,0.8571428571428571,0.0004
59,1.4880124926567078,1.470214605331421,0.5576923076923077,0.8076923076923077,0.5,0.8571428571428571,0.0004
60,1.4702798128128052,1.6170005798339844,0.5576923076923077,0.8269230769230769,0.5714285714285714,0.8571428571428571,0.0004
61,1.6520411372184753,1.4452238082885742,0.40384615384615385,0.7884615384615384,0.6428571428571429,0.8571428571428571,0.0004
62,1.6121602058410645,1.452366828918457,0.4423076923076923,0.7884615384615384,0.5,0.8571428571428571,0.0004
63,1.4331249594688416,1.3828074932098389,0.5192307692307693,0.8269230769230769,0.6428571428571429,0.8571428571428571,0.0004
64,1.4369503855705261,1.5467512607574463,0.4423076923076923,0.8269230769230769,0.5,0.8571428571428571,0.0004
65,1.4866467714309692,1.4747284650802612,0.4230769230769231,0.8269230769230769,0.6428571428571429,0.8571428571428571,0.0004
66,1.4149908423423767,1.422804355621338,0.5961538461538461,0.8269230769230769,0.6428571428571429,0.8571428571428571,0.0004
67,1.456614375114441,1.4446659088134766,0.5,0.8269230769230769,0.42857142857142855,0.8571428571428571,0.0004
68,1.5004330277442932,1.6272411346435547,0.4230769230769231,0.8269230769230769,0.5,0.8571428571428571,0.0004
69,1.415672242641449,1.4637497663497925,0.46153846153846156,0.8269230769230769,0.42857142857142855,0.8571428571428571,0.0004
70,1.453151822090149,1.551120400428772,0.4423076923076923,0.8269230769230769,0.7142857142857143,0.8571428571428571,0.0004
71,1.4432274103164673,1.3791284561157227,0.5384615384615384,0.8269230769230769,0.5714285714285714,0.8571428571428571,0.0004
72,1.5494892597198486,1.5021836757659912,0.40384615384615385,0.8076923076923077,0.5,0.8571428571428571,0.0004
73,1.3978688716888428,1.5596517324447632,0.4807692307692308,0.8269230769230769,0.5714285714285714,0.8571428571428571,0.0004
74,1.3290733695030212,1.5658648014068604,0.5384615384615384,0.8269230769230769,0.35714285714285715,0.8571428571428571,0.0004
75,1.4001471400260925,1.317842960357666,0.5961538461538461,0.8461538461538461,0.7857142857142857,0.8571428571428571,0.0004
76,1.378009557723999,1.6481715440750122,0.5,0.8269230769230769,0.2857142857142857,0.8571428571428571,0.0004
77,1.5313355922698975,1.45615553855896,0.46153846153846156,0.8269230769230769,0.5,0.8571428571428571,0.0004
78,1.3445827960968018,1.762547254562378,0.5192307692307693,0.8269230769230769,0.35714285714285715,0.8571428571428571,0.0004
79,1.325362503528595,1.417895793914795,0.5961538461538461,0.8269230769230769,0.6428571428571429,0.8571428571428571,0.0004
80,1.5092507004737854,1.4763877391815186,0.4423076923076923,0.8269230769230769,0.5714285714285714,0.8571428571428571,0.0004
81,1.420388400554657,1.4992313385009766,0.4807692307692308,0.8269230769230769,0.2857142857142857,0.8571428571428571,0.0004
82,1.497413158416748,1.4241011142730713,0.46153846153846156,0.8076923076923077,0.5,0.8571428571428571,0.0004
83,1.2856054306030273,1.5868185758590698,0.5769230769230769,0.8269230769230769,0.42857142857142855,0.8571428571428571,0.0004
84,1.3407411575317383,1.7163478136062622,0.5,0.8269230769230769,0.35714285714285715,0.8571428571428571,0.0004
85,1.4807606935501099,1.3537578582763672,0.5192307692307693,0.8269230769230769,0.5714285714285714,0.8571428571428571,0.0004
86,1.4742820858955383,1.3790242671966553,0.4230769230769231,0.8269230769230769,0.5714285714285714,0.8571428571428571,0.0004
87,1.4900072813034058,1.5727641582489014,0.4230769230769231,0.8269230769230769,0.5714285714285714,0.8571428571428571,0.0004
88,1.420164942741394,1.7981781959533691,0.46153846153846156,0.8076923076923077,0.35714285714285715,0.8571428571428571,0.0004
89,1.5659870505332947,1.598137378692627,0.46153846153846156,0.8269230769230769,0.5714285714285714,0.8571428571428571,0.0004
90,1.616114854812622,1.516730785369873,0.4423076923076923,0.8461538461538461,0.5714285714285714,0.8571428571428571,0.0004
91,1.3372474908828735,1.5314950942993164,0.5576923076923077,0.8269230769230769,0.5,0.8571428571428571,0.0004
92,1.307057797908783,1.3881213665008545,0.5384615384615384,0.8269230769230769,0.5,0.8571428571428571,0.0004
93,1.407524287700653,1.4611058235168457,0.4423076923076923,0.8269230769230769,0.5714285714285714,0.8571428571428571,0.0004
94,1.3964173197746277,1.4228209257125854,0.5576923076923077,0.8269230769230769,0.6428571428571429,0.8571428571428571,0.0004
95,1.5145349502563477,1.5231510400772095,0.5384615384615384,0.8076923076923077,0.42857142857142855,0.8571428571428571,0.0004
96,1.455436885356903,1.5028114318847656,0.5576923076923077,0.8269230769230769,0.35714285714285715,0.8571428571428571,0.0004
97,1.5140260457992554,1.3857409954071045,0.4807692307692308,0.8269230769230769,0.7142857142857143,0.8571428571428571,0.0004
98,1.3200322985649109,1.2891242504119873,0.5961538461538461,0.8269230769230769,0.6428571428571429,0.8571428571428571,0.0004
99,1.4744816422462463,1.5119028091430664,0.4423076923076923,0.8269230769230769,0.5714285714285714,0.8571428571428571,0.0004
100,1.5282434821128845,1.4924156665802002,0.46153846153846156,0.8269230769230769,0.5,0.8571428571428571,0.0004
101,1.3151715993881226,1.6306416988372803,0.5192307692307693,0.8269230769230769,0.2857142857142857,0.8571428571428571,0.0004
102,1.424699604511261,1.3444197177886963,0.5,0.8269230769230769,0.6428571428571429,0.8571428571428571,0.0004
103,1.4915069341659546,1.5918591022491455,0.4230769230769231,0.8269230769230769,0.2857142857142857,0.8571428571428571,0.0004
104,1.448063850402832,1.6339313983917236,0.5576923076923077,0.8269230769230769,0.35714285714285715,0.8571428571428571,0.0004
105,1.3733996748924255,1.599291443824768,0.5961538461538461,0.8076923076923077,0.5,0.8571428571428571,0.0004
106,1.4768444299697876,1.5380289554595947,0.4423076923076923,0.8269230769230769,0.5,0.8571428571428571,0.0004
107,1.5831066370010376,1.4642094373703003,0.40384615384615385,0.8269230769230769,0.5714285714285714,0.8571428571428571,0.0004
108,1.47990083694458,1.6193448305130005,0.4807692307692308,0.8269230769230769,0.2857142857142857,0.8571428571428571,0.0004
109,1.2922682166099548,1.4063215255737305,0.5961538461538461,0.8269230769230769,0.5714285714285714,0.8571428571428571,0.0004
110,1.4219346642494202,1.4721636772155762,0.6153846153846154,0.8269230769230769,0.5,0.8571428571428571,0.0004
111,1.3819063901901245,1.6897432804107666,0.5,0.8076923076923077,0.5,0.8571428571428571,0.0004
112,1.3011096715927124,1.391734004020691,0.5192307692307693,0.8269230769230769,0.5,0.8571428571428571,0.0004
113,1.3764592409133911,1.4321811199188232,0.4807692307692308,0.8269230769230769,0.5,0.8571428571428571,0.0004
114,1.4747397899627686,1.5180773735046387,0.5192307692307693,0.8076923076923077,0.35714285714285715,0.8571428571428571,0.0004
115,1.4341456890106201,1.5349705219268799,0.5192307692307693,0.8076923076923077,0.5,0.8571428571428571,0.0004
116,1.419293463230133,1.5866963863372803,0.5192307692307693,0.8269230769230769,0.35714285714285715,0.8571428571428571,0.0004
117,1.5077118873596191,1.5803799629211426,0.5,0.8269230769230769,0.35714285714285715,0.8571428571428571,0.0004
118,1.4479501843452454,1.3731309175491333,0.5192307692307693,0.8269230769230769,0.5,0.8571428571428571,0.0004
119,1.4363433122634888,1.5248379707336426,0.5,0.8269230769230769,0.35714285714285715,0.8571428571428571,0.0004
120,1.4562151432037354,1.4637824296951294,0.38461538461538464,0.8269230769230769,0.42857142857142855,0.8571428571428571,0.0004
121,1.3214268684387207,1.3399872779846191,0.6153846153846154,0.8269230769230769,0.5714285714285714,0.8571428571428571,0.0004
122,1.3268053531646729,1.5098062753677368,0.5961538461538461,0.8461538461538461,0.2857142857142857,0.8571428571428571,0.0004
123,1.2891489267349243,1.3723926544189453,0.6346153846153846,0.8269230769230769,0.5714285714285714,0.8571428571428571,0.0004
124,1.3779778480529785,1.7795789241790771,0.4807692307692308,0.8269230769230769,0.2857142857142857,0.8571428571428571,0.0004
125,1.5663529634475708,1.3635077476501465,0.4807692307692308,0.8269230769230769,0.6428571428571429,0.8571428571428571,0.0004
126,1.3625249862670898,1.5014487504959106,0.5961538461538461,0.8269230769230769,0.5714285714285714,0.8571428571428571,0.0004
127,1.5758050680160522,1.4259438514709473,0.5576923076923077,0.8269230769230769,0.5,0.8571428571428571,0.0004
128,1.4120339155197144,1.6768407821655273,0.5384615384615384,0.8269230769230769,0.35714285714285715,0.8571428571428571,0.0004
129,1.454177439212799,1.404633641242981,0.5384615384615384,0.8269230769230769,0.6428571428571429,0.8571428571428571,0.0004
130,1.2960061430931091,1.7604550123214722,0.6538461538461539,0.8269230769230769,0.2857142857142857,0.8571428571428571,0.0004
131,1.3780310153961182,1.516946792602539,0.5384615384615384,0.8076923076923077,0.5,0.8571428571428571,0.0004
132,1.412779152393341,1.4792503118515015,0.46153846153846156,0.8269230769230769,0.42857142857142855,0.8571428571428571,0.0004
133,1.4973010420799255,1.4373278617858887,0.4807692307692308,0.8269230769230769,0.5,0.8571428571428571,0.0004
134,1.4056293368339539,1.4651975631713867,0.6346153846153846,0.8076923076923077,0.5,0.8571428571428571,0.0004
135,1.3066977262496948,1.3448429107666016,0.6346153846153846,0.8461538461538461,0.6428571428571429,0.8571428571428571,0.0004
136,1.4758309721946716,1.3982131481170654,0.4423076923076923,0.8269230769230769,0.5,0.8571428571428571,0.0004
137,1.445921540260315,1.2712684869766235,0.46153846153846156,0.8461538461538461,0.7857142857142857,0.8571428571428571,0.0004
138,1.4074398279190063,1.428168535232544,0.4807692307692308,0.8269230769230769,0.6428571428571429,0.8571428571428571,0.0004
139,1.2464563250541687,1.480529546737671,0.6730769230769231,0.8269230769230769,0.5714285714285714,0.8571428571428571,0.0004
140,1.324228584766388,1.356037974357605,0.5384615384615384,0.8269230769230769,0.5714285714285714,0.8571428571428571,0.0004
141,1.3104692101478577,1.3884801864624023,0.5192307692307693,0.8269230769230769,0.6428571428571429,0.8571428571428571,0.0004
142,1.4232836365699768,1.588759422302246,0.5769230769230769,0.8269230769230769,0.5714285714285714,0.8571428571428571,0.0004
143,1.341658115386963,1.5085196495056152,0.5769230769230769,0.8269230769230769,0.42857142857142855,0.8571428571428571,0.0004
144,1.4680495262145996,1.2664296627044678,0.5769230769230769,0.8269230769230769,0.7857142857142857,0.8571428571428571,0.0004
145,1.285855233669281,1.3809843063354492,0.6923076923076923,0.8076923076923077,0.5714285714285714,0.8571428571428571,0.0004
146,1.48492032289505,1.3665359020233154,0.5576923076923077,0.8269230769230769,0.7142857142857143,0.8571428571428571,0.0004
147,1.38918936252594,1.6218609809875488,0.5576923076923077,0.8269230769230769,0.5,0.8571428571428571,0.0004
148,1.421417474746704,1.4198768138885498,0.5769230769230769,0.8269230769230769,0.5714285714285714,0.8571428571428571,0.0004
149,1.4141979217529297,1.6152443885803223,0.5384615384615384,0.8269230769230769,0.5,0.8571428571428571,0.0004
150,1.2165225744247437,1.4771618843078613,0.6730769230769231,0.8269230769230769,0.5714285714285714,0.8571428571428571,0.0004
151,1.4877979159355164,1.270613193511963,0.5384615384615384,0.8269230769230769,0.7142857142857143,0.8571428571428571,0.0004
152,1.373182475566864,1.485496163368225,0.5769230769230769,0.8269230769230769,0.5,0.8571428571428571,0.0004
153,1.428620457649231,1.4274803400039673,0.4807692307692308,0.8269230769230769,0.5,0.8571428571428571,0.0004
154,1.4823653101921082,1.2950351238250732,0.46153846153846156,0.8461538461538461,0.7142857142857143,0.8571428571428571,0.0004
155,1.4251129031181335,1.3683054447174072,0.5192307692307693,0.8269230769230769,0.5,0.8571428571428571,0.0004
156,1.4740747213363647,1.3238942623138428,0.5576923076923077,0.8269230769230769,0.6428571428571429,0.8571428571428571,0.0004
157,1.3771204352378845,1.4925917387008667,0.5576923076923077,0.8076923076923077,0.42857142857142855,0.8571428571428571,0.0004
158,1.29875910282135,1.5260252952575684,0.5961538461538461,0.8269230769230769,0.42857142857142855,0.8571428571428571,0.0004
159,1.3867172598838806,1.523853063583374,0.5192307692307693,0.8269230769230769,0.42857142857142855,0.8571428571428571,0.0004
160,1.4158868193626404,1.3284673690795898,0.5192307692307693,0.8269230769230769,0.6428571428571429,0.8571428571428571,0.0004
161,1.2579146027565002,1.3504650592803955,0.5961538461538461,0.8269230769230769,0.6428571428571429,0.8571428571428571,0.0004
162,1.2160895466804504,1.4839168787002563,0.5769230769230769,0.8076923076923077,0.42857142857142855,0.8571428571428571,0.0004
163,1.2886542677879333,1.2671903371810913,0.6923076923076923,0.8269230769230769,0.5714285714285714,0.8571428571428571,0.0004
164,1.2975041270256042,1.4080986976623535,0.6538461538461539,0.8269230769230769,0.5,0.8571428571428571,0.0004
165,1.283794105052948,1.3541420698165894,0.6538461538461539,0.8461538461538461,0.7142857142857143,0.8571428571428571,0.0004
166,1.394710659980774,1.0735259056091309,0.6153846153846154,0.8269230769230769,0.8571428571428571,0.8571428571428571,0.0004
167,1.2848473191261292,1.2523506879806519,0.5769230769230769,0.8269230769230769,0.7142857142857143,0.8571428571428571,0.0004
168,1.3813241720199585,1.790992259979248,0.5384615384615384,0.8269230769230769,0.42857142857142855,0.8571428571428571,0.0004
169,1.40756493806839,1.2340338230133057,0.46153846153846156,0.8269230769230769,0.6428571428571429,0.8571428571428571,0.0004
170,1.2732149958610535,1.4430882930755615,0.6153846153846154,0.8269230769230769,0.5714285714285714,0.8571428571428571,0.0004
171,1.4816087484359741,1.2582354545593262,0.4807692307692308,0.8269230769230769,0.7142857142857143,0.8571428571428571,0.0004
172,1.363131046295166,1.5279242992401123,0.5769230769230769,0.8461538461538461,0.5714285714285714,0.8571428571428571,0.0004
173,1.435108244419098,1.4656188488006592,0.5769230769230769,0.8269230769230769,0.5,0.8571428571428571,0.0004
174,1.4936827421188354,1.4277913570404053,0.5384615384615384,0.8269230769230769,0.5,0.8571428571428571,0.0004
175,1.5593157410621643,1.399253010749817,0.5384615384615384,0.8269230769230769,0.5714285714285714,0.8571428571428571,0.0004
176,1.2341772317886353,1.3156720399856567,0.5769230769230769,0.8269230769230769,0.7857142857142857,0.8571428571428571,0.0004
177,1.3648169040679932,1.431603193283081,0.5576923076923077,0.8461538461538461,0.5,0.8571428571428571,0.0004
178,1.3643311858177185,1.4336938858032227,0.5769230769230769,0.8269230769230769,0.6428571428571429,0.8571428571428571,0.0004
179,1.3871561884880066,1.4880036115646362,0.5576923076923077,0.8269230769230769,0.42857142857142855,0.8571428571428571,0.0004
180,1.48689204454422,1.3726640939712524,0.5384615384615384,0.8461538461538461,0.5714285714285714,0.8571428571428571,0.0004
181,1.4428444504737854,1.440259575843811,0.5384615384615384,0.8269230769230769,0.6428571428571429,0.8571428571428571,0.0004
182,1.4249662160873413,1.5099740028381348,0.6153846153846154,0.8269230769230769,0.5714285714285714,0.8571428571428571,0.0004
183,1.3559747338294983,1.2565867900848389,0.6153846153846154,0.8269230769230769,0.6428571428571429,0.8571428571428571,0.0004
184,1.311259150505066,1.5000723600387573,0.5192307692307693,0.8269230769230769,0.42857142857142855,0.8571428571428571,0.0004
185,1.3502506017684937,1.3761563301086426,0.6153846153846154,0.8269230769230769,0.6428571428571429,0.8571428571428571,0.0004
186,1.314742922782898,1.4233779907226562,0.5192307692307693,0.8076923076923077,0.5,0.8571428571428571,0.0004
187,1.3394663333892822,1.4267216920852661,0.5961538461538461,0.8269230769230769,0.5714285714285714,0.8571428571428571,0.0004
188,1.390334129333496,1.449770450592041,0.4807692307692308,0.8269230769230769,0.5714285714285714,0.8571428571428571,0.0004
189,1.4616853594779968,1.4754663705825806,0.5,0.8269230769230769,0.6428571428571429,0.8571428571428571,0.0004
190,1.2815030813217163,1.5677649974822998,0.6923076923076923,0.8269230769230769,0.42857142857142855,0.8571428571428571,0.0004
191,1.3150206804275513,1.4373753070831299,0.5384615384615384,0.8461538461538461,0.5714285714285714,0.8571428571428571,0.0004
192,1.2918517589569092,1.6538338661193848,0.5961538461538461,0.8269230769230769,0.35714285714285715,0.8571428571428571,0.0004
193,1.2981685400009155,1.6067478656768799,0.5769230769230769,0.8461538461538461,0.42857142857142855,0.8571428571428571,0.0004
194,1.4396311044692993,1.2041029930114746,0.5769230769230769,0.8461538461538461,0.6428571428571429,0.8571428571428571,0.0004
195,1.4908608198165894,1.3254990577697754,0.4807692307692308,0.8269230769230769,0.6428571428571429,0.8571428571428571,0.0004
196,1.3618769645690918,1.5791015625,0.4807692307692308,0.8269230769230769,0.5,0.8571428571428571,0.0004
197,1.452167272567749,1.7201728820800781,0.5576923076923077,0.8269230769230769,0.42857142857142855,0.8571428571428571,0.0004
198,1.47124445438385,1.2782832384109497,0.5,0.8076923076923077,0.5714285714285714,0.8571428571428571,0.0004
199,1.4891241788864136,1.552990198135376,0.4230769230769231,0.8269230769230769,0.5,0.8571428571428571,0.0004
200,1.408069372177124,1.5591909885406494,0.46153846153846156,0.8269230769230769,0.35714285714285715,0.8571428571428571,0.0004
201,1.4309985041618347,1.2662380933761597,0.46153846153846156,0.8076923076923077,0.7142857142857143,0.8571428571428571,0.0004
202,1.3165538311004639,1.5251176357269287,0.5769230769230769,0.8269230769230769,0.42857142857142855,0.8571428571428571,0.0004
203,1.4208531379699707,1.4223283529281616,0.5384615384615384,0.8076923076923077,0.5714285714285714,0.8571428571428571,0.0004
204,1.386418879032135,1.44610595703125,0.6153846153846154,0.8076923076923077,0.5714285714285714,0.8571428571428571,0.0004
205,1.3848541975021362,1.4730970859527588,0.6346153846153846,0.8269230769230769,0.42857142857142855,0.8571428571428571,0.0004
206,1.394806981086731,1.180896282196045,0.6153846153846154,0.8269230769230769,0.7857142857142857,0.8571428571428571,0.0004
207,1.372032105922699,1.4297226667404175,0.5,0.8269230769230769,0.5714285714285714,0.8571428571428571,0.0004
208,1.3235097527503967,1.6058919429779053,0.5769230769230769,0.8269230769230769,0.5,0.8571428571428571,0.0004
209,1.3708471059799194,1.3564224243164062,0.5961538461538461,0.8269230769230769,0.5714285714285714,0.8571428571428571,0.0004
210,1.3558238744735718,1.3437228202819824,0.5576923076923077,0.8269230769230769,0.6428571428571429,0.8571428571428571,0.0004
211,1.3053434491157532,1.1834903955459595,0.5576923076923077,0.8269230769230769,0.7142857142857143,0.8571428571428571,0.0004
212,1.2503576874732971,1.4320825338363647,0.6538461538461539,0.8461538461538461,0.42857142857142855,0.8571428571428571,0.0004
213,1.4278057217597961,1.338240146636963,0.4807692307692308,0.8269230769230769,0.5714285714285714,0.8571428571428571,0.0004
214,1.2780265808105469,1.2047127485275269,0.6153846153846154,0.8269230769230769,0.7142857142857143,0.8571428571428571,0.0004
215,1.4093781113624573,1.5923866033554077,0.6153846153846154,0.8076923076923077,0.42857142857142855,0.8571428571428571,0.0004
216,1.1805071830749512,1.429591417312622,0.6346153846153846,0.8269230769230769,0.42857142857142855,0.8571428571428571,0.0004
217,1.4730010628700256,1.562654972076416,0.4807692307692308,0.8076923076923077,0.42857142857142855,0.8571428571428571,0.0004
218,1.4181134700775146,1.4336678981781006,0.5576923076923077,0.8269230769230769,0.42857142857142855,0.8571428571428571,0.0004
219,1.6837064027786255,1.275634765625,0.38461538461538464,0.8269230769230769,0.6428571428571429,0.8571428571428571,0.0004
220,1.2707107067108154,1.6184892654418945,0.6346153846153846,0.8269230769230769,0.42857142857142855,0.8571428571428571,0.0004
221,1.4458655714988708,1.4621872901916504,0.5384615384615384,0.8269230769230769,0.42857142857142855,0.8571428571428571,0.0004
222,1.1529837250709534,1.4481953382492065,0.6538461538461539,0.8076923076923077,0.42857142857142855,0.8571428571428571,0.0004
223,1.3049736618995667,1.1759895086288452,0.6153846153846154,0.8269230769230769,0.7142857142857143,0.8571428571428571,0.0004
224,1.3621208667755127,1.4506878852844238,0.5769230769230769,0.8269230769230769,0.5,0.8571428571428571,0.0004
225,1.364543855190277,1.3876421451568604,0.5384615384615384,0.8269230769230769,0.5,0.8571428571428571,0.0004
226,1.4108694791793823,1.2906267642974854,0.5961538461538461,0.8269230769230769,0.5714285714285714,0.8571428571428571,0.0004
227,1.3196150660514832,1.246139407157898,0.5769230769230769,0.8269230769230769,0.7142857142857143,0.8571428571428571,0.0004
228,1.4561046957969666,1.414233684539795,0.5384615384615384,0.8269230769230769,0.5714285714285714,0.8571428571428571,0.0004
229,1.2859041094779968,1.247032880783081,0.5384615384615384,0.8269230769230769,0.7142857142857143,0.8571428571428571,0.0004
230,1.395071268081665,1.5028362274169922,0.5384615384615384,0.8269230769230769,0.5,0.8571428571428571,0.0004
231,1.4018042087554932,1.4042426347732544,0.5576923076923077,0.8269230769230769,0.5,0.8571428571428571,0.0004
232,1.342776358127594,1.3204472064971924,0.6346153846153846,0.8269230769230769,0.5714285714285714,0.8571428571428571,0.0004
233,1.4259717464447021,1.2664180994033813,0.4807692307692308,0.8461538461538461,0.6428571428571429,0.8571428571428571,0.0004
234,1.3479249477386475,1.5571237802505493,0.5,0.8461538461538461,0.42857142857142855,0.8571428571428571,0.0004
235,1.4415919780731201,1.2946360111236572,0.5769230769230769,0.8269230769230769,0.5714285714285714,0.8571428571428571,0.0004
236,1.2605680227279663,1.1830099821090698,0.6346153846153846,0.8269230769230769,0.6428571428571429,0.8571428571428571,0.0004
237,1.4608784914016724,1.45976722240448,0.5961538461538461,0.8461538461538461,0.5,0.8571428571428571,0.0004
238,1.3143457174301147,1.3599355220794678,0.5961538461538461,0.8076923076923077,0.42857142857142855,0.8571428571428571,0.0004
239,1.3639367818832397,1.2511786222457886,0.5576923076923077,0.8269230769230769,0.5,0.8571428571428571,0.0004
240,1.3662185668945312,1.509874701499939,0.5384615384615384,0.8269230769230769,0.42857142857142855,0.8571428571428571,0.0004
241,1.3414104580879211,1.378720998764038,0.6153846153846154,0.8269230769230769,0.5,0.8571428571428571,0.0004
242,1.3389724493026733,1.507240653038025,0.5,0.8269230769230769,0.35714285714285715,0.8571428571428571,0.0004
243,1.3362272381782532,1.261207938194275,0.5961538461538461,0.8461538461538461,0.5714285714285714,0.8571428571428571,0.0004
244,1.3604693412780762,1.4731431007385254,0.5769230769230769,0.8269230769230769,0.5,0.8571428571428571,0.0004
245,1.4492281675338745,1.451972246170044,0.6153846153846154,0.8269230769230769,0.5714285714285714,0.8571428571428571,0.0004
246,1.3274577260017395,1.2884740829467773,0.5961538461538461,0.8269230769230769,0.6428571428571429,0.8571428571428571,0.0004
247,1.3492491245269775,1.7199323177337646,0.5576923076923077,0.8269230769230769,0.35714285714285715,0.8571428571428571,0.0004
248,1.2994555830955505,1.3699218034744263,0.5961538461538461,0.8269230769230769,0.42857142857142855,0.8571428571428571,0.0004
249,1.2894412875175476,1.3802964687347412,0.5769230769230769,0.8269230769230769,0.5714285714285714,0.8571428571428571,0.0004
250,1.3736658096313477,1.2384082078933716,0.6153846153846154,0.8269230769230769,0.42857142857142855,0.8571428571428571,0.0004
251,1.3612505197525024,1.3386335372924805,0.5384615384615384,0.8269230769230769,0.5,0.8571428571428571,0.0004
252,1.258098065853119,1.452738881111145,0.5192307692307693,0.8269230769230769,0.42857142857142855,0.8571428571428571,0.0004
253,1.3680312633514404,1.3062748908996582,0.5576923076923077,0.8269230769230769,0.5714285714285714,0.8571428571428571,0.0004
254,1.4225651621818542,1.5449965000152588,0.5384615384615384,0.8269230769230769,0.42857142857142855,0.8571428571428571,0.0004
255,1.2558846473693848,1.4468507766723633,0.5576923076923077,0.8269230769230769,0.42857142857142855,0.8571428571428571,0.0004
256,1.4662010669708252,1.413095474243164,0.5,0.8269230769230769,0.35714285714285715,0.8571428571428571,0.0004
257,1.335756242275238,1.4480648040771484,0.5769230769230769,0.8269230769230769,0.5,0.8571428571428571,0.0004
258,1.2774720191955566,1.3722789287567139,0.5769230769230769,0.8269230769230769,0.5714285714285714,0.8571428571428571,0.0004
259,1.2482087016105652,1.1294548511505127,0.6153846153846154,0.8269230769230769,0.7142857142857143,0.8571428571428571,0.0004
260,1.4760456681251526,1.615350604057312,0.5,0.8269230769230769,0.42857142857142855,0.8571428571428571,0.0004
261,1.4089335203170776,1.3753079175949097,0.6346153846153846,0.8269230769230769,0.42857142857142855,0.8571428571428571,0.0004
262,1.3480300903320312,1.198723554611206,0.5384615384615384,0.8269230769230769,0.7142857142857143,0.8571428571428571,0.0004
263,1.2817767262458801,1.529921293258667,0.6538461538461539,0.8269230769230769,0.42857142857142855,0.8571428571428571,0.0004
264,1.1510112881660461,1.2365074157714844,0.6153846153846154,0.8461538461538461,0.6428571428571429,0.8571428571428571,0.0004
265,1.4205482006072998,1.3549396991729736,0.6153846153846154,0.8269230769230769,0.6428571428571429,0.8571428571428571,0.0004
266,1.1753103733062744,1.3496555089950562,0.6730769230769231,0.8269230769230769,0.5714285714285714,0.8571428571428571,0.0004
267,1.3550394773483276,1.1829607486724854,0.6153846153846154,0.8269230769230769,0.6428571428571429,0.8571428571428571,0.0004
268,1.2866013050079346,1.28330659866333,0.6346153846153846,0.8269230769230769,0.5714285714285714,0.8571428571428571,0.0004
269,1.2821943163871765,1.329492449760437,0.6153846153846154,0.8269230769230769,0.6428571428571429,0.8571428571428571,0.0004
270,1.2634546160697937,1.4634966850280762,0.5576923076923077,0.8269230769230769,0.5,0.8571428571428571,0.0004
271,1.4078927636146545,1.3234612941741943,0.5769230769230769,0.8269230769230769,0.35714285714285715,0.8571428571428571,0.0004
272,1.3987174034118652,1.5549061298370361,0.5769230769230769,0.8461538461538461,0.42857142857142855,0.8571428571428571,0.0004
273,1.437533974647522,1.3319189548492432,0.4807692307692308,0.8269230769230769,0.5714285714285714,0.8571428571428571,0.0004
274,1.1773598790168762,1.2456296682357788,0.6730769230769231,0.8269230769230769,0.5714285714285714,0.8571428571428571,0.0004
275,1.2823442816734314,1.3718135356903076,0.6153846153846154,0.8461538461538461,0.5,0.8571428571428571,0.0004
276,1.2579917907714844,1.4601914882659912,0.6153846153846154,0.8076923076923077,0.5,0.8571428571428571,0.0004
277,1.3410539031028748,1.464074730873108,0.5769230769230769,0.8269230769230769,0.5,0.8571428571428571,0.0004
278,1.2597145438194275,1.3546500205993652,0.5769230769230769,0.8269230769230769,0.5714285714285714,0.8571428571428571,0.0004
279,1.1949841380119324,1.1305432319641113,0.5961538461538461,0.8076923076923077,0.7857142857142857,0.8571428571428571,0.0004
280,1.3662558794021606,1.4555087089538574,0.5384615384615384,0.8269230769230769,0.42857142857142855,0.8571428571428571,0.0004
281,1.422658383846283,1.619466781616211,0.5384615384615384,0.8269230769230769,0.35714285714285715,0.8571428571428571,0.0004
282,1.26160329580307,1.4307411909103394,0.7307692307692307,0.8269230769230769,0.42857142857142855,0.8571428571428571,0.0004
283,1.2325637340545654,1.4281672239303589,0.6538461538461539,0.8269230769230769,0.7142857142857143,0.8571428571428571,0.0004
284,1.4469367861747742,1.2564321756362915,0.5961538461538461,0.8269230769230769,0.7142857142857143,0.8571428571428571,0.0004
285,1.442286193370819,1.2286442518234253,0.5192307692307693,0.8269230769230769,0.6428571428571429,0.8571428571428571,0.0004
286,1.260461449623108,1.476074457168579,0.5769230769230769,0.8269230769230769,0.42857142857142855,0.8571428571428571,0.0004
287,1.3261204957962036,1.2110531330108643,0.5384615384615384,0.8269230769230769,0.6428571428571429,0.8571428571428571,0.0004
288,1.1928961277008057,1.2142900228500366,0.6923076923076923,0.8269230769230769,0.7142857142857143,0.8571428571428571,0.0004
289,1.1429802179336548,1.146817922592163,0.6923076923076923,0.8269230769230769,0.7142857142857143,0.8571428571428571,0.0004
290,1.342533528804779,1.233559489250183,0.5384615384615384,0.8269230769230769,0.7142857142857143,0.8571428571428571,0.0004
291,1.2859987616539001,1.4820811748504639,0.5769230769230769,0.8269230769230769,0.5,0.8571428571428571,0.0004
292,1.3013153672218323,1.5423915386199951,0.6346153846153846,0.8269230769230769,0.5,0.8571428571428571,0.0004
293,1.271411657333374,1.147295355796814,0.5961538461538461,0.8269230769230769,0.7142857142857143,0.8571428571428571,0.0004
294,1.352177619934082,1.2842497825622559,0.5384615384615384,0.8269230769230769,0.6428571428571429,0.8571428571428571,0.0004
295,1.1423261761665344,1.7011940479278564,0.7115384615384616,0.8269230769230769,0.35714285714285715,0.8571428571428571,0.0004
296,1.3173298239707947,1.663070559501648,0.5384615384615384,0.8269230769230769,0.35714285714285715,0.8571428571428571,0.0004
297,1.2162256240844727,1.3538553714752197,0.6346153846153846,0.8076923076923077,0.5,0.8571428571428571,0.0004
298,1.320135235786438,1.5294089317321777,0.5961538461538461,0.8269230769230769,0.35714285714285715,0.8571428571428571,0.0004
299,1.3581672310829163,1.2185163497924805,0.5576923076923077,0.8269230769230769,0.6428571428571429,0.8571428571428571,0.0004
300,1.1764289736747742,1.360933780670166,0.6923076923076923,0.8269230769230769,0.5714285714285714,0.8571428571428571,0.0004
301,1.1511651277542114,1.3798129558563232,0.75,0.8269230769230769,0.5,0.8571428571428571,0.0004
302,1.1840451955795288,1.520876169204712,0.7115384615384616,0.8269230769230769,0.5,0.8571428571428571,0.0004
303,1.5414941310882568,1.3447539806365967,0.46153846153846156,0.8269230769230769,0.6428571428571429,0.8571428571428571,0.0004
304,1.1568812131881714,1.4021735191345215,0.6730769230769231,0.8269230769230769,0.5714285714285714,0.8571428571428571,0.0004
305,1.2816178798675537,1.4735853672027588,0.6153846153846154,0.8269230769230769,0.5714285714285714,0.8571428571428571,0.0004
306,1.3017139434814453,1.336417317390442,0.5961538461538461,0.8461538461538461,0.5714285714285714,0.8571428571428571,0.0004
307,1.1416875720024109,1.1675024032592773,0.6923076923076923,0.8269230769230769,0.6428571428571429,0.8571428571428571,0.0004
308,1.2506484389305115,1.072283387184143,0.5576923076923077,0.8269230769230769,0.7142857142857143,0.8571428571428571,0.0004
309,1.243602693080902,1.4073448181152344,0.5961538461538461,0.8269230769230769,0.6428571428571429,0.8571428571428571,0.0004
310,1.5023695230484009,1.2326685190200806,0.5769230769230769,0.8076923076923077,0.7142857142857143,0.8571428571428571,0.0004
311,1.2818366289138794,1.0370841026306152,0.5769230769230769,0.8269230769230769,0.7142857142857143,0.8571428571428571,0.0004
312,1.2830510139465332,1.178900122642517,0.6346153846153846,0.8269230769230769,0.6428571428571429,0.8571428571428571,0.0004
313,1.3437352776527405,1.2553703784942627,0.5384615384615384,0.8269230769230769,0.7142857142857143,0.8571428571428571,0.0004
314,1.1511030793190002,1.5466960668563843,0.6730769230769231,0.8461538461538461,0.5714285714285714,0.8571428571428571,0.0004
315,1.4403162598609924,1.4290915727615356,0.5769230769230769,0.8269230769230769,0.5,0.8571428571428571,0.0004
316,1.2187607288360596,1.3617873191833496,0.6538461538461539,0.8269230769230769,0.6428571428571429,0.8571428571428571,0.0004
317,1.2699449062347412,1.0122251510620117,0.6346153846153846,0.8076923076923077,0.6428571428571429,0.8571428571428571,0.0004
318,1.2259737253189087,1.5432977676391602,0.5961538461538461,0.8269230769230769,0.5714285714285714,0.8571428571428571,0.0004
319,1.479874074459076,1.7080928087234497,0.5769230769230769,0.8269230769230769,0.5714285714285714,0.8571428571428571,0.0004
320,1.6027539372444153,1.6008374691009521,0.5384615384615384,0.8269230769230769,0.5714285714285714,0.8571428571428571,0.0004
321,1.4127431511878967,1.5432796478271484,0.5384615384615384,0.8269230769230769,0.5,0.8571428571428571,0.0004
322,1.4913135170936584,1.4104382991790771,0.5,0.8269230769230769,0.5714285714285714,0.8571428571428571,0.0004
323,1.4103002548217773,1.6315902471542358,0.6153846153846154,0.8269230769230769,0.5714285714285714,0.8571428571428571,0.0004
324,1.447996973991394,1.5189871788024902,0.5,0.8461538461538461,0.5714285714285714,0.8571428571428571,0.0004
325,1.3751385807991028,1.3836853504180908,0.5384615384615384,0.8269230769230769,0.5714285714285714,0.8571428571428571,0.0004
326,1.3740861415863037,1.3117482662200928,0.5192307692307693,0.8269230769230769,0.6428571428571429,0.8571428571428571,0.0004
327,1.3690364956855774,1.3489327430725098,0.4807692307692308,0.8269230769230769,0.5714285714285714,0.8571428571428571,0.0004
328,1.3197001218795776,1.570874571800232,0.5192307692307693,0.8269230769230769,0.35714285714285715,0.8571428571428571,0.0004
329,1.2600704431533813,1.4471778869628906,0.5961538461538461,0.8269230769230769,0.42857142857142855,0.8571428571428571,0.0004
330,1.4541156888008118,1.1992437839508057,0.5192307692307693,0.8269230769230769,0.7142857142857143,0.8571428571428571,0.0004
331,1.3604154586791992,1.4251474142074585,0.6153846153846154,0.8269230769230769,0.5714285714285714,0.8571428571428571,0.0004
332,1.3308035135269165,1.2884645462036133,0.5769230769230769,0.8269230769230769,0.5,0.8571428571428571,0.0004
333,1.3109872937202454,1.5524821281433105,0.5769230769230769,0.8269230769230769,0.35714285714285715,0.8571428571428571,0.0004
334,1.44221830368042,1.2198327779769897,0.6153846153846154,0.8269230769230769,0.7857142857142857,0.8571428571428571,0.0004
335,1.2292972803115845,1.1187512874603271,0.5384615384615384,0.8269230769230769,0.6428571428571429,0.8571428571428571,0.0004
336,1.299096703529358,1.3138607740402222,0.5769230769230769,0.8269230769230769,0.5714285714285714,0.8571428571428571,0.0004
337,1.3929824829101562,1.4910767078399658,0.5384615384615384,0.8269230769230769,0.5,0.8571428571428571,0.0004
338,1.315965473651886,1.466227650642395,0.5769230769230769,0.8269230769230769,0.5,0.8571428571428571,0.0004
339,1.334899663925171,1.3166050910949707,0.5961538461538461,0.8269230769230769,0.7857142857142857,0.8571428571428571,0.0004
340,1.3168338537216187,1.4732275009155273,0.5961538461538461,0.8269230769230769,0.5,0.8571428571428571,0.0004
341,1.2413150668144226,1.3082530498504639,0.5576923076923077,0.8269230769230769,0.6428571428571429,0.8571428571428571,0.0004
342,1.2925506830215454,1.3993244171142578,0.6538461538461539,0.8076923076923077,0.5,0.8571428571428571,0.0004
343,1.3435596227645874,1.421282410621643,0.5576923076923077,0.8269230769230769,0.5,0.8571428571428571,0.0004
344,1.3306515216827393,1.6356408596038818,0.5769230769230769,0.8269230769230769,0.35714285714285715,0.8571428571428571,0.0004
345,1.379269778728485,1.4431984424591064,0.5192307692307693,0.8461538461538461,0.42857142857142855,0.8571428571428571,0.0004
346,1.331348717212677,1.2799232006072998,0.5769230769230769,0.8269230769230769,0.5714285714285714,0.8571428571428571,0.0004
347,1.2956717014312744,1.4357166290283203,0.5192307692307693,0.8269230769230769,0.5,0.8571428571428571,0.0004
348,1.2705760598182678,1.4269483089447021,0.6538461538461539,0.8269230769230769,0.5,0.8571428571428571,0.0004
349,1.3393208384513855,1.6919666528701782,0.5192307692307693,0.8269230769230769,0.35714285714285715,0.8571428571428571,0.0004
350,1.3893707990646362,1.410862684249878,0.5769230769230769,0.8269230769230769,0.5714285714285714,0.8571428571428571,0.0004
351,1.3004356622695923,1.6013394594192505,0.5961538461538461,0.8269230769230769,0.42857142857142855,0.8571428571428571,0.0004
352,1.3033153414726257,1.4245998859405518,0.5576923076923077,0.8076923076923077,0.5,0.8571428571428571,0.0004
353,1.360648274421692,1.4187865257263184,0.5576923076923077,0.8269230769230769,0.5,0.8571428571428571,0.0004
354,1.3650299906730652,1.1563935279846191,0.6346153846153846,0.8461538461538461,0.7142857142857143,0.8571428571428571,0.0004
355,1.2186872363090515,1.4935886859893799,0.6346153846153846,0.8269230769230769,0.5714285714285714,0.8571428571428571,0.0004
356,1.3152670860290527,1.266147255897522,0.5576923076923077,0.8269230769230769,0.5714285714285714,0.8571428571428571,0.0004
357,1.3918567895889282,1.5497856140136719,0.5,0.8269230769230769,0.42857142857142855,0.8571428571428571,0.0004
358,1.3215726613998413,1.6357438564300537,0.5961538461538461,0.8461538461538461,0.42857142857142855,0.8571428571428571,0.0004
359,1.245705783367157,1.607558012008667,0.6346153846153846,0.8076923076923077,0.5,0.8571428571428571,0.0004
360,1.3816238641738892,1.1367310285568237,0.6153846153846154,0.8461538461538461,0.7857142857142857,0.8571428571428571,0.0004
361,1.2652711868286133,1.186147689819336,0.6153846153846154,0.8269230769230769,0.6428571428571429,0.8571428571428571,0.0004
362,1.2908203601837158,1.5246713161468506,0.6153846153846154,0.8269230769230769,0.5,0.8571428571428571,0.0004
363,1.2638245820999146,1.4490936994552612,0.5961538461538461,0.8269230769230769,0.5,0.8571428571428571,0.0004
364,1.2085522413253784,1.4876172542572021,0.6538461538461539,0.8269230769230769,0.5714285714285714,0.8571428571428571,0.0004
365,1.305619239807129,1.3660982847213745,0.5384615384615384,0.8269230769230769,0.5714285714285714,0.8571428571428571,0.0004
366,1.1492563486099243,1.7295472621917725,0.6538461538461539,0.8269230769230769,0.35714285714285715,0.8571428571428571,0.0004
367,1.2114179730415344,1.4228644371032715,0.6153846153846154,0.8269230769230769,0.5714285714285714,0.8571428571428571,0.0004
368,1.3824008107185364,1.3397409915924072,0.5192307692307693,0.8076923076923077,0.5714285714285714,0.8571428571428571,0.0004
369,1.2301456928253174,1.3325132131576538,0.6346153846153846,0.8269230769230769,0.5714285714285714,0.8571428571428571,0.0004
370,1.2017245888710022,1.2722655534744263,0.6923076923076923,0.8269230769230769,0.5,0.8571428571428571,0.0004
371,1.2679577469825745,1.2958383560180664,0.5961538461538461,0.8269230769230769,0.5714285714285714,0.8571428571428571,0.0004
372,1.3922936916351318,1.1857854127883911,0.5384615384615384,0.8269230769230769,0.7142857142857143,0.8571428571428571,0.0004
373,1.2113767266273499,1.1640098094940186,0.6153846153846154,0.8269230769230769,0.7142857142857143,0.8571428571428571,0.0004
374,1.252771258354187,1.2541725635528564,0.6153846153846154,0.8076923076923077,0.7142857142857143,0.8571428571428571,0.0004
375,1.3431934714317322,1.1397829055786133,0.5769230769230769,0.8461538461538461,0.7142857142857143,0.8571428571428571,0.0004
376,1.2503336668014526,1.2744545936584473,0.5961538461538461,0.8461538461538461,0.6428571428571429,0.8571428571428571,0.0004
377,1.3093630075454712,1.4896048307418823,0.5769230769230769,0.8269230769230769,0.5,0.8571428571428571,0.0004
378,1.3920873403549194,1.0179662704467773,0.5,0.8269230769230769,0.7857142857142857,0.8571428571428571,0.0004
379,1.2186634540557861,1.0412434339523315,0.6538461538461539,0.8269230769230769,0.7857142857142857,0.8571428571428571,0.0004
380,1.293433129787445,1.354698896408081,0.6153846153846154,0.8076923076923077,0.5,0.8571428571428571,0.0004
381,1.2114805579185486,1.4096735715866089,0.6346153846153846,0.8269230769230769,0.42857142857142855,0.8571428571428571,0.0004
382,1.236733615398407,1.4018199443817139,0.5961538461538461,0.8461538461538461,0.42857142857142855,0.8571428571428571,0.0004
383,1.2463585138320923,1.2497702836990356,0.5576923076923077,0.8653846153846154,0.5,0.8571428571428571,0.0004
384,1.2913730144500732,1.3888828754425049,0.5769230769230769,0.8269230769230769,0.5714285714285714,0.8571428571428571,0.0004
385,1.2189470529556274,1.705185890197754,0.5961538461538461,0.8269230769230769,0.2857142857142857,0.7857142857142857,0.0004
386,1.252816915512085,1.4921958446502686,0.6153846153846154,0.8269230769230769,0.5,0.8571428571428571,0.0004
387,1.1228008270263672,1.4600214958190918,0.6730769230769231,0.8269230769230769,0.35714285714285715,0.8571428571428571,0.0004
388,1.1837272644042969,1.335002064704895,0.6923076923076923,0.8076923076923077,0.5714285714285714,0.8571428571428571,0.0004
389,1.28876394033432,1.343284010887146,0.5576923076923077,0.8076923076923077,0.5714285714285714,0.8571428571428571,0.0004
390,1.391303300857544,1.2978687286376953,0.5576923076923077,0.8461538461538461,0.5714285714285714,0.8571428571428571,0.0004
391,1.2813521027565002,1.2915441989898682,0.5576923076923077,0.8269230769230769,0.5,0.8571428571428571,0.0004
392,1.3551836609840393,1.2881698608398438,0.5576923076923077,0.8461538461538461,0.5714285714285714,0.8571428571428571,0.0004
393,1.1695204973220825,1.2803407907485962,0.6538461538461539,0.8076923076923077,0.5714285714285714,0.8571428571428571,0.0004
394,1.1838005781173706,1.223850965499878,0.6923076923076923,0.8846153846153846,0.5714285714285714,0.8571428571428571,0.0004
395,1.205974042415619,1.3144409656524658,0.6153846153846154,0.8461538461538461,0.5714285714285714,0.8571428571428571,0.0004
396,1.2452837824821472,1.455859661102295,0.5769230769230769,0.8461538461538461,0.5714285714285714,0.8571428571428571,0.0004
397,1.3128819465637207,1.7469565868377686,0.6153846153846154,0.8461538461538461,0.35714285714285715,0.8571428571428571,0.0004
398,1.3024544715881348,1.4203240871429443,0.6346153846153846,0.8269230769230769,0.5714285714285714,0.8571428571428571,0.0004
399,1.2827655673027039,1.4114691019058228,0.6153846153846154,0.8076923076923077,0.6428571428571429,0.7857142857142857,0.0004
400,1.2829331755638123,1.3334033489227295,0.5961538461538461,0.8461538461538461,0.7142857142857143,0.7857142857142857,0.0004
401,1.2680588960647583,1.269433856010437,0.5769230769230769,0.8076923076923077,0.5714285714285714,0.8571428571428571,0.0004
402,1.142920434474945,1.433866024017334,0.6346153846153846,0.8653846153846154,0.5,0.8571428571428571,0.0004
403,1.2597922086715698,1.4171795845031738,0.5769230769230769,0.8653846153846154,0.5,0.8571428571428571,0.0004
404,1.1133180260658264,1.0477772951126099,0.6923076923076923,0.8461538461538461,0.7857142857142857,0.8571428571428571,0.0004
405,1.2830370664596558,1.5332672595977783,0.6538461538461539,0.8076923076923077,0.5,0.8571428571428571,0.0004
406,1.1221908926963806,1.5157889127731323,0.6153846153846154,0.8653846153846154,0.5,0.8571428571428571,0.0004
407,1.2407845854759216,1.6182876825332642,0.5576923076923077,0.8653846153846154,0.5,0.8571428571428571,0.0004
408,1.26322603225708,1.2718231678009033,0.5961538461538461,0.8653846153846154,0.6428571428571429,0.8571428571428571,0.0004
409,1.1532405018806458,1.185516595840454,0.6923076923076923,0.8461538461538461,0.6428571428571429,0.8571428571428571,0.0004
410,1.2912102937698364,1.4055417776107788,0.5961538461538461,0.8269230769230769,0.5714285714285714,0.8571428571428571,0.0004
411,1.3036469221115112,1.3384613990783691,0.5384615384615384,0.8269230769230769,0.6428571428571429,0.8571428571428571,0.0004
412,1.2319202423095703,1.2874424457550049,0.6346153846153846,0.8461538461538461,0.7142857142857143,0.8571428571428571,0.0004
413,1.195387363433838,1.311639666557312,0.6923076923076923,0.8461538461538461,0.5714285714285714,0.7857142857142857,0.0004
414,1.2100178599357605,1.232877254486084,0.6346153846153846,0.8461538461538461,0.42857142857142855,0.8571428571428571,0.0004
415,1.2491754293441772,1.2703220844268799,0.5961538461538461,0.8269230769230769,0.7142857142857143,0.8571428571428571,0.0004
416,1.2384953498840332,1.4061607122421265,0.6538461538461539,0.8269230769230769,0.6428571428571429,0.8571428571428571,0.0004
417,1.1419228911399841,1.19591224193573,0.7115384615384616,0.8461538461538461,0.7142857142857143,0.8571428571428571,0.0004
418,1.1829769015312195,1.603076457977295,0.6346153846153846,0.8269230769230769,0.5,0.8571428571428571,0.0004
419,1.1464547514915466,1.0317931175231934,0.6538461538461539,0.8076923076923077,0.7857142857142857,0.8571428571428571,0.0004
420,1.266280472278595,1.2492927312850952,0.6153846153846154,0.8461538461538461,0.6428571428571429,0.7857142857142857,0.0004
421,1.3464978337287903,1.133387804031372,0.6153846153846154,0.8076923076923077,0.7142857142857143,0.8571428571428571,0.0004
422,1.1985026001930237,1.6508349180221558,0.6538461538461539,0.8461538461538461,0.5,0.8571428571428571,0.0004
423,1.1763558983802795,1.3570525646209717,0.5961538461538461,0.8269230769230769,0.5714285714285714,0.7857142857142857,0.0004
424,1.1449534595012665,1.3929481506347656,0.6730769230769231,0.8269230769230769,0.42857142857142855,0.8571428571428571,0.0004
425,1.3457012176513672,1.2029519081115723,0.5769230769230769,0.8653846153846154,0.6428571428571429,0.8571428571428571,0.0004
426,1.081588625907898,1.4721070528030396,0.6923076923076923,0.8269230769230769,0.5714285714285714,0.8571428571428571,0.0004
427,1.2827927470207214,1.0306956768035889,0.6346153846153846,0.8269230769230769,0.7857142857142857,0.8571428571428571,0.0004
428,1.2964751720428467,1.3926453590393066,0.5576923076923077,0.8076923076923077,0.6428571428571429,0.8571428571428571,0.0004
429,1.2348278760910034,1.4359984397888184,0.6153846153846154,0.8076923076923077,0.5714285714285714,0.8571428571428571,0.0004
430,1.2950776815414429,1.179975152015686,0.6538461538461539,0.8269230769230769,0.6428571428571429,0.8571428571428571,0.0004
431,1.2261959314346313,1.4221917390823364,0.6538461538461539,0.8461538461538461,0.5,0.8571428571428571,0.0004
432,1.1973501443862915,1.211795449256897,0.6923076923076923,0.8461538461538461,0.5714285714285714,0.8571428571428571,0.0004
433,1.2567497491836548,1.3994431495666504,0.5961538461538461,0.8269230769230769,0.5714285714285714,0.8571428571428571,0.0004
434,1.477170705795288,1.3879692554473877,0.5961538461538461,0.8269230769230769,0.42857142857142855,0.8571428571428571,0.0004
435,1.3336323499679565,1.0696390867233276,0.5961538461538461,0.8076923076923077,0.7142857142857143,0.8571428571428571,0.0004
436,1.2685071229934692,1.194536805152893,0.5576923076923077,0.8269230769230769,0.6428571428571429,0.8571428571428571,0.0004
437,1.1858458518981934,1.2810240983963013,0.6153846153846154,0.8269230769230769,0.5,0.8571428571428571,0.0004
438,1.4112789630889893,1.4381122589111328,0.5769230769230769,0.7884615384615384,0.42857142857142855,0.8571428571428571,0.0004
439,1.3577073812484741,1.1667299270629883,0.5576923076923077,0.8461538461538461,0.7142857142857143,0.8571428571428571,0.0004
440,1.4324438571929932,1.4296119213104248,0.5576923076923077,0.8269230769230769,0.42857142857142855,0.8571428571428571,0.0004
441,1.1824762225151062,1.1148130893707275,0.6730769230769231,0.8269230769230769,0.7142857142857143,0.8571428571428571,0.0004
442,1.2969275116920471,1.7325949668884277,0.5961538461538461,0.8269230769230769,0.21428571428571427,0.8571428571428571,0.0004
443,1.2639291286468506,1.7548105716705322,0.5769230769230769,0.8461538461538461,0.35714285714285715,0.8571428571428571,0.0004
444,1.2450433373451233,1.4115862846374512,0.5769230769230769,0.8269230769230769,0.5714285714285714,0.8571428571428571,0.0004
445,1.2893704771995544,1.21126127243042,0.5769230769230769,0.8269230769230769,0.5714285714285714,0.8571428571428571,0.0004
446,1.3562107682228088,1.5710105895996094,0.5384615384615384,0.8269230769230769,0.5,0.8571428571428571,0.0004
447,1.3705772757530212,1.413066029548645,0.6538461538461539,0.8076923076923077,0.5714285714285714,0.8571428571428571,0.0004
448,1.1804527640342712,1.5635406970977783,0.5576923076923077,0.8269230769230769,0.5,0.8571428571428571,0.0004
449,1.2858073115348816,1.311367154121399,0.5384615384615384,0.8269230769230769,0.5714285714285714,0.8571428571428571,0.0004
450,1.2978983521461487,1.4131128787994385,0.5576923076923077,0.8461538461538461,0.42857142857142855,0.8571428571428571,0.0004
451,1.3213228583335876,1.5466837882995605,0.5769230769230769,0.8269230769230769,0.5,0.8571428571428571,0.0004
452,1.2601174116134644,1.306105136871338,0.5576923076923077,0.8461538461538461,0.6428571428571429,0.8571428571428571,0.0004
453,1.3628264665603638,1.4019596576690674,0.6153846153846154,0.8269230769230769,0.5714285714285714,0.8571428571428571,0.0004
454,1.1688812971115112,1.4738914966583252,0.6153846153846154,0.8653846153846154,0.5,0.8571428571428571,0.0004
455,1.1453030109405518,1.2383232116699219,0.75,0.8269230769230769,0.5714285714285714,0.8571428571428571,0.0004
456,1.283383071422577,1.2581881284713745,0.6346153846153846,0.8269230769230769,0.6428571428571429,0.8571428571428571,0.0004
457,1.303508460521698,1.2906146049499512,0.5576923076923077,0.7884615384615384,0.5714285714285714,0.8571428571428571,0.0004
458,1.3447657227516174,1.278397798538208,0.6153846153846154,0.8076923076923077,0.7857142857142857,0.8571428571428571,0.0004
459,1.297097623348236,1.3292386531829834,0.6346153846153846,0.8269230769230769,0.5,0.8571428571428571,0.0004
460,1.2236865758895874,1.3589146137237549,0.5576923076923077,0.8269230769230769,0.5,0.8571428571428571,0.0004
461,1.167050838470459,1.4909917116165161,0.6730769230769231,0.8269230769230769,0.5714285714285714,0.8571428571428571,0.0004
462,1.2652405500411987,1.4043376445770264,0.6153846153846154,0.8076923076923077,0.5,0.7857142857142857,0.0004
463,1.3208302855491638,1.2354021072387695,0.5769230769230769,0.7884615384615384,0.5714285714285714,0.8571428571428571,0.0004
464,1.2761899828910828,1.2331480979919434,0.6730769230769231,0.8269230769230769,0.5,0.8571428571428571,0.0004
465,1.324573814868927,1.184122085571289,0.6346153846153846,0.8461538461538461,0.6428571428571429,0.8571428571428571,0.0004
466,1.1296366751194,1.2504757642745972,0.5961538461538461,0.8269230769230769,0.6428571428571429,0.8571428571428571,0.0004
467,1.2473247051239014,1.4126813411712646,0.6923076923076923,0.8269230769230769,0.42857142857142855,0.8571428571428571,0.0004
468,1.148273766040802,1.2071304321289062,0.6730769230769231,0.8269230769230769,0.5714285714285714,0.8571428571428571,0.0004
469,1.1636227369308472,1.6577491760253906,0.6730769230769231,0.8076923076923077,0.42857142857142855,0.8571428571428571,0.0004
470,1.129777431488037,1.244983196258545,0.6923076923076923,0.8269230769230769,0.7142857142857143,0.8571428571428571,0.0004
471,1.23967045545578,1.721015214920044,0.6730769230769231,0.8461538461538461,0.2857142857142857,0.8571428571428571,0.0004
472,1.1061875224113464,1.009549617767334,0.6730769230769231,0.8269230769230769,0.6428571428571429,0.8571428571428571,0.0004
473,1.1548977494239807,1.6562354564666748,0.75,0.8269230769230769,0.5,0.8571428571428571,0.0004
474,1.1320322155952454,1.6880285739898682,0.7307692307692307,0.8269230769230769,0.5,0.8571428571428571,0.0004
475,1.307577669620514,1.201303482055664,0.6346153846153846,0.8269230769230769,0.6428571428571429,0.8571428571428571,0.0004
476,1.3868886828422546,1.2678649425506592,0.5961538461538461,0.8076923076923077,0.6428571428571429,0.8571428571428571,0.0004
477,1.3146586418151855,1.3457517623901367,0.6730769230769231,0.8269230769230769,0.5714285714285714,0.8571428571428571,0.0004
478,1.0805558562278748,1.1739376783370972,0.7692307692307693,0.8269230769230769,0.5714285714285714,0.8571428571428571,0.0004
479,1.2352960109710693,1.3757445812225342,0.6346153846153846,0.8269230769230769,0.42857142857142855,0.8571428571428571,0.0004
480,1.2034918069839478,0.9652150273323059,0.6346153846153846,0.8269230769230769,0.7142857142857143,0.8571428571428571,0.0004
481,1.209736943244934,1.3013017177581787,0.5961538461538461,0.8653846153846154,0.5714285714285714,0.8571428571428571,0.0004
482,1.2930613160133362,1.2283568382263184,0.5384615384615384,0.8461538461538461,0.6428571428571429,0.8571428571428571,0.0004
483,1.2571850419044495,1.349762201309204,0.6153846153846154,0.8269230769230769,0.5,0.8571428571428571,0.0004
484,1.4697652459144592,1.4944884777069092,0.5384615384615384,0.8461538461538461,0.5,0.8571428571428571,0.0004
485,1.2401326894760132,0.9138007164001465,0.6730769230769231,0.8461538461538461,0.7857142857142857,0.8571428571428571,0.0004
486,1.1389548778533936,1.4008140563964844,0.6538461538461539,0.8846153846153846,0.42857142857142855,0.8571428571428571,0.0004
487,1.0713502168655396,1.2572424411773682,0.7115384615384616,0.8269230769230769,0.5714285714285714,0.8571428571428571,0.0004
488,1.1394219398498535,1.5280588865280151,0.6923076923076923,0.8269230769230769,0.5,0.8571428571428571,0.0004
489,1.2267980575561523,1.5263813734054565,0.5961538461538461,0.8269230769230769,0.42857142857142855,0.8571428571428571,0.0004
490,1.1209418177604675,1.434539794921875,0.7307692307692307,0.8269230769230769,0.5714285714285714,0.8571428571428571,0.0004
491,1.310211956501007,1.0264030694961548,0.5769230769230769,0.8269230769230769,0.7142857142857143,0.8571428571428571,0.0004
492,1.1794980764389038,1.6474387645721436,0.6346153846153846,0.8461538461538461,0.42857142857142855,0.7857142857142857,0.0004
493,1.133498728275299,1.258819341659546,0.7307692307692307,0.8269230769230769,0.5714285714285714,0.8571428571428571,0.0004
494,1.2336573600769043,1.5244801044464111,0.5961538461538461,0.8653846153846154,0.35714285714285715,0.8571428571428571,0.0004
495,1.3280794024467468,1.6170592308044434,0.5192307692307693,0.8076923076923077,0.5,0.8571428571428571,0.0004
496,1.251899242401123,1.429199457168579,0.6346153846153846,0.8076923076923077,0.5,0.7857142857142857,0.0004
497,1.140793800354004,1.505357027053833,0.6730769230769231,0.8269230769230769,0.5714285714285714,0.8571428571428571,0.0004
498,1.2558082342147827,1.4275763034820557,0.5769230769230769,0.8269230769230769,0.5714285714285714,0.7857142857142857,0.0004
499,1.2957842350006104,1.080670952796936,0.6923076923076923,0.8461538461538461,0.7142857142857143,0.8571428571428571,0.0004
500,1.1045922636985779,1.1909010410308838,0.7115384615384616,0.8269230769230769,0.6428571428571429,0.8571428571428571,0.0004
501,1.2487454414367676,1.443584680557251,0.6153846153846154,0.8076923076923077,0.5714285714285714,0.8571428571428571,0.0004
502,1.327759325504303,1.4105327129364014,0.5769230769230769,0.8076923076923077,0.42857142857142855,0.8571428571428571,0.0004
503,1.208418369293213,1.5697706937789917,0.6153846153846154,0.8269230769230769,0.5,0.8571428571428571,0.0004
504,1.2578728795051575,1.77159583568573,0.5961538461538461,0.7884615384615384,0.35714285714285715,0.7857142857142857,0.0004
505,1.1385627388954163,1.4285385608673096,0.5961538461538461,0.8461538461538461,0.5,0.7857142857142857,0.0004
506,1.4075762033462524,1.152191400527954,0.5769230769230769,0.8269230769230769,0.7142857142857143,0.7857142857142857,0.0004
507,1.057239294052124,0.9801568388938904,0.6923076923076923,0.8653846153846154,0.7142857142857143,0.7857142857142857,0.0004
508,1.2037435173988342,1.2375754117965698,0.6730769230769231,0.8076923076923077,0.5714285714285714,0.8571428571428571,0.0004
509,1.2881539463996887,1.1747852563858032,0.5769230769230769,0.8461538461538461,0.6428571428571429,0.8571428571428571,0.0004
510,1.2740190625190735,1.2532038688659668,0.5961538461538461,0.8653846153846154,0.6428571428571429,0.8571428571428571,0.0004
511,1.232326626777649,1.2665214538574219,0.6153846153846154,0.8461538461538461,0.5714285714285714,0.8571428571428571,0.0004
512,1.2226880192756653,1.2078354358673096,0.5961538461538461,0.8653846153846154,0.6428571428571429,0.8571428571428571,0.0004
513,1.1851520538330078,1.416290044784546,0.6346153846153846,0.7884615384615384,0.5,0.7857142857142857,0.0004
514,1.0456559658050537,0.9203242063522339,0.6538461538461539,0.8653846153846154,0.7857142857142857,0.7857142857142857,0.0004
515,1.098472535610199,1.18871009349823,0.6153846153846154,0.8461538461538461,0.6428571428571429,0.8571428571428571,0.0004
516,1.0804798007011414,1.156372308731079,0.6923076923076923,0.8653846153846154,0.7142857142857143,0.7857142857142857,0.0004
517,1.1433586478233337,1.0983026027679443,0.6538461538461539,0.8269230769230769,0.6428571428571429,0.8571428571428571,0.0004
518,1.1030522584915161,1.4310967922210693,0.6923076923076923,0.8461538461538461,0.5714285714285714,0.7857142857142857,0.0004
519,1.3300597667694092,1.594357967376709,0.6153846153846154,0.8269230769230769,0.42857142857142855,0.7857142857142857,0.0004
520,1.263973593711853,1.533468246459961,0.6538461538461539,0.7884615384615384,0.5,0.8571428571428571,0.0004
521,1.3362411558628082,1.1762828826904297,0.5961538461538461,0.7884615384615384,0.6428571428571429,0.7857142857142857,0.0004
522,1.1441221833229065,1.5325958728790283,0.75,0.8653846153846154,0.35714285714285715,0.7857142857142857,0.0004
523,1.2083439826965332,1.2119626998901367,0.5961538461538461,0.8653846153846154,0.7142857142857143,0.8571428571428571,0.0004
524,1.3588669896125793,0.9672307372093201,0.5769230769230769,0.8076923076923077,0.7142857142857143,0.8571428571428571,0.0004
525,1.4705445766448975,1.0022331476211548,0.5,0.8461538461538461,0.7857142857142857,0.8571428571428571,0.0004
526,1.0726759433746338,1.0628852844238281,0.7115384615384616,0.8076923076923077,0.7857142857142857,0.8571428571428571,0.0004
527,1.232169270515442,1.156006097793579,0.5769230769230769,0.8461538461538461,0.6428571428571429,0.8571428571428571,0.0004
528,1.1562227010726929,1.2691164016723633,0.6346153846153846,0.7884615384615384,0.5714285714285714,0.8571428571428571,0.0004
529,1.0328506827354431,1.3653666973114014,0.7692307692307693,0.8269230769230769,0.5714285714285714,0.8571428571428571,0.0004
530,1.2690551280975342,1.4450186491012573,0.6153846153846154,0.7884615384615384,0.42857142857142855,0.8571428571428571,0.0004
531,1.3494962453842163,1.1075732707977295,0.5769230769230769,0.8461538461538461,0.7142857142857143,0.8571428571428571,0.0004
532,1.3181209564208984,1.472109317779541,0.5192307692307693,0.8461538461538461,0.6428571428571429,0.8571428571428571,0.0004
533,1.377847671508789,1.1681947708129883,0.5576923076923077,0.8269230769230769,0.7857142857142857,0.7857142857142857,0.0004
534,1.2250346541404724,1.1644306182861328,0.5961538461538461,0.7884615384615384,0.5714285714285714,0.8571428571428571,0.0004
535,1.3327050805091858,1.158991813659668,0.5769230769230769,0.75,0.7142857142857143,0.8571428571428571,0.0004
536,1.0829113125801086,0.9382660388946533,0.7115384615384616,0.8076923076923077,0.7142857142857143,0.8571428571428571,0.0004
537,1.164899468421936,1.096626877784729,0.6153846153846154,0.8461538461538461,0.6428571428571429,0.8571428571428571,0.0004
538,1.1599517464637756,1.1227507591247559,0.6730769230769231,0.8269230769230769,0.5714285714285714,0.7857142857142857,0.0004
539,1.0936958193778992,1.4693108797073364,0.6730769230769231,0.8269230769230769,0.42857142857142855,0.8571428571428571,0.0004
540,1.2249308228492737,1.2660534381866455,0.6538461538461539,0.8269230769230769,0.5714285714285714,0.8571428571428571,0.0004
541,1.2488124370574951,1.1817514896392822,0.6346153846153846,0.7692307692307693,0.6428571428571429,0.8571428571428571,0.0004
542,1.1327317357063293,1.3216933012008667,0.5769230769230769,0.8076923076923077,0.5,0.8571428571428571,0.0004
543,1.0714529752731323,1.2297172546386719,0.6730769230769231,0.8461538461538461,0.42857142857142855,0.8571428571428571,0.0004
544,1.1286138892173767,1.5759410858154297,0.6346153846153846,0.8076923076923077,0.42857142857142855,0.8571428571428571,0.0004
545,1.1095908284187317,1.0963183641433716,0.75,0.8461538461538461,0.5714285714285714,0.8571428571428571,0.0004
546,1.401934564113617,1.0485848188400269,0.5384615384615384,0.7884615384615384,0.6428571428571429,0.8571428571428571,0.0004
547,1.2212877869606018,1.1741883754730225,0.6346153846153846,0.7884615384615384,0.5,0.8571428571428571,0.0004
548,1.3287004232406616,1.0189074277877808,0.5961538461538461,0.7692307692307693,0.6428571428571429,0.8571428571428571,0.0004
549,1.3713141083717346,1.149640679359436,0.5961538461538461,0.8461538461538461,0.5714285714285714,0.8571428571428571,0.0004
550,1.3789600729942322,1.387228012084961,0.5576923076923077,0.8269230769230769,0.7142857142857143,0.8571428571428571,0.0004
551,1.2649858593940735,0.8575843572616577,0.6538461538461539,0.8269230769230769,0.7857142857142857,0.8571428571428571,0.0004
552,1.3659716844558716,1.3137297630310059,0.5192307692307693,0.8461538461538461,0.5,0.8571428571428571,0.0004
553,1.3248994946479797,1.7309973239898682,0.6538461538461539,0.8269230769230769,0.35714285714285715,0.8571428571428571,0.0004
554,1.2971023917198181,1.167673945426941,0.6346153846153846,0.8269230769230769,0.7142857142857143,0.8571428571428571,0.0004
555,1.0764750838279724,1.206925868988037,0.7115384615384616,0.8269230769230769,0.6428571428571429,0.8571428571428571,0.0004
556,1.3165923953056335,1.4038838148117065,0.6153846153846154,0.8269230769230769,0.7142857142857143,0.8571428571428571,0.0004
557,1.0774102807044983,1.4934513568878174,0.7307692307692307,0.8653846153846154,0.42857142857142855,0.8571428571428571,0.0004
558,1.0717061460018158,1.7503879070281982,0.7307692307692307,0.8461538461538461,0.42857142857142855,0.8571428571428571,0.0004
559,1.199918270111084,1.273516058921814,0.6730769230769231,0.8076923076923077,0.6428571428571429,0.8571428571428571,0.0004
560,1.1140787601470947,1.808222770690918,0.6153846153846154,0.8076923076923077,0.2857142857142857,0.8571428571428571,0.0004
561,1.1655609011650085,1.4701555967330933,0.6538461538461539,0.8461538461538461,0.5,0.8571428571428571,0.0004
562,1.3745577335357666,1.0051203966140747,0.5192307692307693,0.8076923076923077,0.7857142857142857,0.8571428571428571,0.0004
563,1.2663558721542358,1.2126272916793823,0.5769230769230769,0.8461538461538461,0.42857142857142855,0.8571428571428571,0.0004
564,1.3478676676750183,1.4914138317108154,0.5769230769230769,0.7884615384615384,0.42857142857142855,0.8571428571428571,0.0004
565,1.1188207864761353,1.329010009765625,0.6538461538461539,0.8269230769230769,0.5714285714285714,0.8571428571428571,0.0004
566,1.401580572128296,1.089277982711792,0.5576923076923077,0.8461538461538461,0.6428571428571429,0.8571428571428571,0.0004
567,1.3584958910942078,1.2108502388000488,0.5961538461538461,0.8461538461538461,0.6428571428571429,0.8571428571428571,0.0004
568,1.2651503682136536,1.0482466220855713,0.6346153846153846,0.8269230769230769,0.6428571428571429,0.8571428571428571,0.0004
569,1.2541539072990417,1.7237961292266846,0.6923076923076923,0.8076923076923077,0.2857142857142857,0.8571428571428571,0.0004
570,1.1671165227890015,1.405916690826416,0.6538461538461539,0.8269230769230769,0.42857142857142855,0.8571428571428571,0.0004
571,1.4349371790885925,1.0829646587371826,0.46153846153846156,0.8269230769230769,0.6428571428571429,0.8571428571428571,0.0004
572,1.2729567885398865,1.2680894136428833,0.6153846153846154,0.8461538461538461,0.5,0.8571428571428571,0.0004
573,1.2049044966697693,1.3865416049957275,0.5961538461538461,0.8461538461538461,0.5714285714285714,0.8571428571428571,0.0004
574,1.1220834851264954,1.4634770154953003,0.6923076923076923,0.8653846153846154,0.42857142857142855,0.8571428571428571,0.0004
575,1.2441710829734802,1.2736965417861938,0.6153846153846154,0.8269230769230769,0.5714285714285714,0.8571428571428571,0.0004
576,1.3339515328407288,1.5470088720321655,0.5961538461538461,0.8076923076923077,0.35714285714285715,0.8571428571428571,0.0004
577,1.324458658695221,1.0179474353790283,0.6346153846153846,0.8269230769230769,0.7142857142857143,0.8571428571428571,0.0004
578,1.0740483403205872,1.2759344577789307,0.6538461538461539,0.8653846153846154,0.5,0.8571428571428571,0.0004
579,1.2587385773658752,1.1023123264312744,0.5961538461538461,0.8269230769230769,0.5714285714285714,0.8571428571428571,0.0004
580,1.2322651743888855,1.3290390968322754,0.5769230769230769,0.8269230769230769,0.5,0.8571428571428571,0.0004
581,1.0766993761062622,1.3544065952301025,0.7307692307692307,0.8269230769230769,0.5,0.8571428571428571,0.0004
582,1.133442997932434,1.159663200378418,0.6730769230769231,0.8461538461538461,0.7142857142857143,0.8571428571428571,0.0004
583,1.2445509433746338,1.4843686819076538,0.5769230769230769,0.8269230769230769,0.5714285714285714,0.8571428571428571,0.0004
584,1.249121606349945,1.15627920627594,0.5576923076923077,0.8461538461538461,0.5714285714285714,0.8571428571428571,0.0004
585,1.2803104519844055,1.3684921264648438,0.6538461538461539,0.8076923076923077,0.5,0.7857142857142857,0.0004
586,1.124800443649292,1.0231424570083618,0.5961538461538461,0.8461538461538461,0.7142857142857143,0.8571428571428571,0.0004
587,1.3137024641036987,1.047907829284668,0.6153846153846154,0.8269230769230769,0.7142857142857143,0.8571428571428571,0.0004
588,1.1835638284683228,1.3166656494140625,0.6538461538461539,0.8269230769230769,0.6428571428571429,0.7142857142857143,0.0004
589,1.305109441280365,1.569880485534668,0.6923076923076923,0.8461538461538461,0.42857142857142855,0.7857142857142857,0.0004
590,1.2523906230926514,1.4535760879516602,0.5576923076923077,0.8269230769230769,0.5,0.7142857142857143,0.0004
591,1.1592316031455994,1.2949916124343872,0.5961538461538461,0.8076923076923077,0.7142857142857143,0.8571428571428571,0.0004
592,1.2970750331878662,1.5662060976028442,0.5576923076923077,0.8269230769230769,0.5,0.7857142857142857,0.0004
593,1.178960144519806,1.2349579334259033,0.5576923076923077,0.8461538461538461,0.7142857142857143,0.7857142857142857,0.0004
594,1.2826958298683167,1.2581851482391357,0.5384615384615384,0.8269230769230769,0.7857142857142857,0.7857142857142857,0.0004
595,1.198617696762085,1.233827829360962,0.5961538461538461,0.8653846153846154,0.7142857142857143,0.8571428571428571,0.0004
596,1.2344104647636414,1.3291224241256714,0.6923076923076923,0.8269230769230769,0.6428571428571429,0.8571428571428571,0.0004
597,1.23087078332901,1.1108814477920532,0.5961538461538461,0.8269230769230769,0.7857142857142857,0.8571428571428571,0.0004
598,0.8944387137889862,1.461348533630371,0.6923076923076923,0.8461538461538461,0.5,0.8571428571428571,0.0004
599,1.4111173152923584,1.6190001964569092,0.5192307692307693,0.8269230769230769,0.42857142857142855,0.7857142857142857,0.0004
600,1.2002215385437012,1.3300360441207886,0.6153846153846154,0.8653846153846154,0.6428571428571429,0.7142857142857143,0.0004
601,1.0386263132095337,1.4949461221694946,0.7692307692307693,0.8461538461538461,0.5,0.7142857142857143,0.0004
602,1.1877217292785645,1.546833872795105,0.6538461538461539,0.7884615384615384,0.42857142857142855,0.7857142857142857,0.0004
603,1.1363453269004822,1.1402266025543213,0.6153846153846154,0.8846153846153846,0.7142857142857143,0.6428571428571429,0.0004
604,1.2603132724761963,1.1838458776474,0.6153846153846154,0.7692307692307693,0.5714285714285714,0.7857142857142857,0.0004
605,1.2597704529762268,1.0116450786590576,0.5769230769230769,0.8269230769230769,0.7857142857142857,0.7857142857142857,0.0004
606,1.3194302320480347,0.9837186932563782,0.6153846153846154,0.7884615384615384,0.7857142857142857,0.7142857142857143,0.0004
607,1.2304216027259827,1.3998266458511353,0.6153846153846154,0.8076923076923077,0.6428571428571429,0.7142857142857143,0.0004
608,1.3228090703487396,1.24410879611969,0.6923076923076923,0.8653846153846154,0.6428571428571429,0.8571428571428571,0.0004
609,0.973579078912735,1.2412077188491821,0.7307692307692307,0.9423076923076923,0.7857142857142857,0.8571428571428571,0.0004
610,1.255276083946228,1.3840892314910889,0.6346153846153846,0.8269230769230769,0.5714285714285714,0.8571428571428571,0.0004
611,1.0850800275802612,1.192352533340454,0.6923076923076923,0.7884615384615384,0.7142857142857143,0.8571428571428571,0.0004
612,1.4491350054740906,1.3572248220443726,0.5576923076923077,0.8461538461538461,0.5714285714285714,0.8571428571428571,0.0004
613,1.2680503726005554,1.4366602897644043,0.5384615384615384,0.8269230769230769,0.5,0.8571428571428571,0.0004
614,1.2493045330047607,1.2842459678649902,0.7115384615384616,0.8461538461538461,0.42857142857142855,0.8571428571428571,0.0004
615,1.222633719444275,1.4616258144378662,0.6153846153846154,0.8653846153846154,0.5714285714285714,0.8571428571428571,0.0004
616,1.349009394645691,1.2292238473892212,0.5576923076923077,0.8076923076923077,0.5714285714285714,0.8571428571428571,0.0004
617,1.3352384567260742,1.3495334386825562,0.5769230769230769,0.8269230769230769,0.6428571428571429,0.7857142857142857,0.0004
618,1.1800710558891296,1.2535122632980347,0.6153846153846154,0.8461538461538461,0.7142857142857143,0.8571428571428571,0.0004
619,1.2176289558410645,1.103163719177246,0.6346153846153846,0.7884615384615384,0.7142857142857143,0.8571428571428571,0.0004
620,1.2692667841911316,1.2944362163543701,0.5384615384615384,0.7692307692307693,0.6428571428571429,0.8571428571428571,0.0004
621,1.1511012315750122,1.3626806735992432,0.6730769230769231,0.8076923076923077,0.5714285714285714,0.8571428571428571,0.0004
622,1.1515011191368103,1.540846586227417,0.6730769230769231,0.8461538461538461,0.5,0.8571428571428571,0.0004
623,1.174393653869629,1.4309206008911133,0.6346153846153846,0.8269230769230769,0.5714285714285714,0.8571428571428571,0.0004
624,1.1278074979782104,1.3644981384277344,0.6923076923076923,0.8076923076923077,0.6428571428571429,0.8571428571428571,0.0004
625,1.2275290489196777,1.467226505279541,0.6538461538461539,0.8461538461538461,0.5714285714285714,0.8571428571428571,0.0004
626,1.317130982875824,1.5098358392715454,0.5576923076923077,0.8269230769230769,0.5714285714285714,0.8571428571428571,0.0004
627,1.2684412002563477,1.2248319387435913,0.5384615384615384,0.8076923076923077,0.7142857142857143,0.8571428571428571,0.0004
628,1.2430510520935059,1.5487408638000488,0.5384615384615384,0.8269230769230769,0.35714285714285715,0.8571428571428571,0.0004
629,1.4414973855018616,1.3296425342559814,0.5384615384615384,0.8269230769230769,0.5714285714285714,0.8571428571428571,0.0004
630,1.4686554670333862,1.240365743637085,0.5384615384615384,0.8269230769230769,0.6428571428571429,0.8571428571428571,0.0004
631,1.398017406463623,1.3003039360046387,0.5576923076923077,0.8076923076923077,0.6428571428571429,0.8571428571428571,0.0004
632,1.486256182193756,1.587921380996704,0.5192307692307693,0.8269230769230769,0.5,0.8571428571428571,0.0004
633,1.1198536157608032,1.5077989101409912,0.6153846153846154,0.8269230769230769,0.5714285714285714,0.8571428571428571,0.0004
634,1.2543215155601501,1.2396886348724365,0.6538461538461539,0.8269230769230769,0.6428571428571429,0.8571428571428571,0.0004
635,1.0413963198661804,1.1404225826263428,0.6923076923076923,0.8461538461538461,0.7142857142857143,0.8571428571428571,0.0004
636,1.391873836517334,1.2358808517456055,0.5576923076923077,0.8076923076923077,0.5,0.8571428571428571,0.0004
637,1.3090214133262634,1.359931230545044,0.5769230769230769,0.8461538461538461,0.5714285714285714,0.8571428571428571,0.0004
638,1.188288390636444,1.3216181993484497,0.6538461538461539,0.8269230769230769,0.5,0.8571428571428571,0.0004
639,1.4360087513923645,1.248084306716919,0.5384615384615384,0.8461538461538461,0.5714285714285714,0.8571428571428571,0.0004
640,1.2792603373527527,1.2229104042053223,0.5961538461538461,0.8461538461538461,0.5714285714285714,0.9285714285714286,0.0004
641,1.221911072731018,1.5154045820236206,0.5769230769230769,0.8461538461538461,0.42857142857142855,0.8571428571428571,0.0004
642,1.4740153551101685,1.0909428596496582,0.5384615384615384,0.7692307692307693,0.6428571428571429,0.8571428571428571,0.0004
643,1.2670031189918518,1.3469560146331787,0.5576923076923077,0.8076923076923077,0.5714285714285714,0.8571428571428571,0.0004
644,1.264927625656128,1.0772879123687744,0.5384615384615384,0.8461538461538461,0.7142857142857143,0.8571428571428571,0.0004
645,1.4408822655677795,1.4181162118911743,0.5384615384615384,0.8076923076923077,0.5714285714285714,0.8571428571428571,0.0004
646,1.2897016406059265,1.5534565448760986,0.6346153846153846,0.8269230769230769,0.42857142857142855,0.8571428571428571,0.0004
647,1.1668230891227722,1.4610354900360107,0.6923076923076923,0.8461538461538461,0.42857142857142855,0.8571428571428571,0.0004
648,1.3514894247055054,1.2690595388412476,0.5769230769230769,0.8269230769230769,0.6428571428571429,0.8571428571428571,0.0004
649,1.1446336805820465,1.2418557405471802,0.6153846153846154,0.8269230769230769,0.5,0.8571428571428571,0.0004
650,1.3113306760787964,1.0981525182724,0.5769230769230769,0.8269230769230769,0.7142857142857143,0.8571428571428571,0.0004
651,1.1746296882629395,1.0984693765640259,0.6923076923076923,0.8653846153846154,0.7142857142857143,0.7857142857142857,0.0004
652,1.235625147819519,1.3507436513900757,0.6538461538461539,0.8076923076923077,0.5714285714285714,0.7857142857142857,0.0004
653,1.1865283250808716,1.461341142654419,0.7307692307692307,0.8076923076923077,0.5,0.8571428571428571,0.0004
654,1.2388836741447449,1.431241512298584,0.5961538461538461,0.8269230769230769,0.6428571428571429,0.5714285714285714,0.0004
655,1.2003173232078552,1.226102590560913,0.5384615384615384,0.8269230769230769,0.5714285714285714,0.8571428571428571,0.0004
656,1.4045276641845703,1.4251630306243896,0.5,0.8269230769230769,0.6428571428571429,0.8571428571428571,0.0004
657,1.3461087942123413,1.4060816764831543,0.6153846153846154,0.8076923076923077,0.6428571428571429,0.8571428571428571,0.0004
658,1.1482749581336975,0.956416130065918,0.6346153846153846,0.8076923076923077,0.8571428571428571,0.7857142857142857,0.0004
659,1.2535679340362549,1.2310956716537476,0.6538461538461539,0.8269230769230769,0.6428571428571429,0.7142857142857143,0.0004
660,1.3706567883491516,1.3145533800125122,0.5961538461538461,0.7884615384615384,0.6428571428571429,0.8571428571428571,0.0004
661,1.220411777496338,1.4287772178649902,0.6730769230769231,0.8269230769230769,0.5,0.8571428571428571,0.0004
662,1.1516332626342773,1.4066252708435059,0.6538461538461539,0.8076923076923077,0.5714285714285714,0.8571428571428571,0.0004
663,1.2118976712226868,1.4545185565948486,0.6346153846153846,0.8461538461538461,0.5,0.7857142857142857,0.0004
664,1.2833579778671265,1.6737754344940186,0.6538461538461539,0.8076923076923077,0.35714285714285715,0.8571428571428571,0.0004
665,1.300365149974823,1.4950947761535645,0.5769230769230769,0.8653846153846154,0.5,0.8571428571428571,0.0004
666,1.0405544638633728,1.181172490119934,0.75,0.8461538461538461,0.7142857142857143,0.8571428571428571,0.0004
667,1.4190086126327515,1.2995895147323608,0.5384615384615384,0.8269230769230769,0.5,0.8571428571428571,0.0004
668,1.291310966014862,1.5089341402053833,0.5961538461538461,0.8269230769230769,0.35714285714285715,0.7142857142857143,0.0004
669,1.218860685825348,1.5128313302993774,0.5961538461538461,0.8461538461538461,0.5,0.6428571428571429,0.0004
670,1.3833239078521729,1.145892858505249,0.5961538461538461,0.8269230769230769,0.6428571428571429,0.7857142857142857,0.0004
671,1.178995430469513,1.473084807395935,0.6346153846153846,0.8076923076923077,0.5,0.7142857142857143,0.0004
672,1.2301070094108582,1.2009150981903076,0.6538461538461539,0.8269230769230769,0.5714285714285714,0.8571428571428571,0.0004
673,1.217716097831726,1.150791049003601,0.6538461538461539,0.8076923076923077,0.6428571428571429,0.6428571428571429,0.0004
674,1.2198160290718079,1.2078802585601807,0.5769230769230769,0.8461538461538461,0.7857142857142857,0.7857142857142857,0.0004
675,1.3342425227165222,1.2179864645004272,0.5961538461538461,0.7884615384615384,0.5714285714285714,0.7857142857142857,0.0004
676,1.364221453666687,1.2264578342437744,0.5769230769230769,0.8653846153846154,0.6428571428571429,0.8571428571428571,0.0004
677,1.201535403728485,0.9671024680137634,0.6923076923076923,0.8269230769230769,0.7857142857142857,0.8571428571428571,0.0004
678,1.2329232096672058,1.4787187576293945,0.5769230769230769,0.8076923076923077,0.5,0.8571428571428571,0.0004
679,1.3390932083129883,1.3419464826583862,0.5769230769230769,0.8269230769230769,0.5714285714285714,0.8571428571428571,0.0004
680,1.368244469165802,1.1217001676559448,0.5769230769230769,0.8269230769230769,0.5714285714285714,0.8571428571428571,0.0004
681,1.2671699523925781,1.021281361579895,0.6346153846153846,0.8269230769230769,0.8571428571428571,0.8571428571428571,0.0004
682,1.0891876220703125,1.3929363489151,0.6730769230769231,0.8461538461538461,0.5,0.8571428571428571,0.0004
683,1.1669395565986633,1.5521278381347656,0.6923076923076923,0.8269230769230769,0.42857142857142855,0.8571428571428571,0.0004
684,1.281298577785492,1.4726256132125854,0.6730769230769231,0.8269230769230769,0.5,0.7857142857142857,0.0004
685,1.3488969802856445,0.9375423192977905,0.6153846153846154,0.8461538461538461,0.7142857142857143,0.8571428571428571,0.0004
686,1.195314347743988,1.3590397834777832,0.5769230769230769,0.8461538461538461,0.5,0.8571428571428571,0.0004
687,1.1570770144462585,1.4005402326583862,0.6730769230769231,0.8653846153846154,0.5714285714285714,0.7857142857142857,0.0004
688,1.1360601782798767,1.4834563732147217,0.75,0.8269230769230769,0.5,0.8571428571428571,0.0004
689,1.3398571014404297,1.2171006202697754,0.5384615384615384,0.8461538461538461,0.5714285714285714,0.8571428571428571,0.0004
690,1.2160521745681763,1.3573684692382812,0.5576923076923077,0.8269230769230769,0.5714285714285714,0.8571428571428571,0.0004
691,1.1380014419555664,1.2834347486495972,0.6923076923076923,0.8269230769230769,0.5,0.8571428571428571,0.0004
692,1.328436553478241,1.483394742012024,0.6538461538461539,0.8076923076923077,0.5,0.8571428571428571,0.0004
693,1.143288403749466,1.439072847366333,0.6538461538461539,0.8269230769230769,0.5714285714285714,0.8571428571428571,0.0004
694,1.2606055736541748,1.4718091487884521,0.6153846153846154,0.8269230769230769,0.5,0.8571428571428571,0.0004
695,1.356245219707489,1.0437238216400146,0.5384615384615384,0.8076923076923077,0.6428571428571429,0.7857142857142857,0.0004
696,1.1931159496307373,1.2996387481689453,0.6346153846153846,0.8076923076923077,0.7142857142857143,0.7857142857142857,0.0004
697,1.180082380771637,1.5408167839050293,0.6730769230769231,0.8076923076923077,0.5,0.8571428571428571,0.0004
698,1.2441730499267578,0.9600724577903748,0.6346153846153846,0.8653846153846154,0.7857142857142857,0.7857142857142857,0.0004
699,1.192069947719574,1.1166096925735474,0.6346153846153846,0.8846153846153846,0.7142857142857143,0.7857142857142857,0.0004
700,1.1073050498962402,1.0024840831756592,0.6923076923076923,0.8461538461538461,0.7142857142857143,0.7142857142857143,0.0004
701,1.1510411500930786,1.3768010139465332,0.6538461538461539,0.8076923076923077,0.6428571428571429,0.7142857142857143,0.0004
702,1.1864970326423645,1.0186750888824463,0.6346153846153846,0.8076923076923077,0.7857142857142857,0.7857142857142857,0.0004
703,0.9347740411758423,1.4528745412826538,0.7884615384615384,0.8653846153846154,0.5,0.7142857142857143,0.0004
704,1.280242383480072,1.5370979309082031,0.5769230769230769,0.8653846153846154,0.42857142857142855,0.7857142857142857,0.0004
705,1.0261630415916443,1.2792967557907104,0.6538461538461539,0.9230769230769231,0.5714285714285714,0.8571428571428571,0.0004
706,1.1265249848365784,1.269345760345459,0.6153846153846154,0.8269230769230769,0.6428571428571429,0.7857142857142857,0.0004
707,1.1148372292518616,1.4127119779586792,0.6730769230769231,0.8846153846153846,0.5,0.6428571428571429,0.0004
708,1.3127952814102173,1.2951550483703613,0.5384615384615384,0.8076923076923077,0.5,0.8571428571428571,0.0004
709,1.2538285851478577,1.4012236595153809,0.5769230769230769,0.8269230769230769,0.5714285714285714,0.7857142857142857,0.0004
710,1.1894451975822449,1.324994683265686,0.6346153846153846,0.8269230769230769,0.5714285714285714,0.7857142857142857,0.0004
711,1.200271189212799,1.2322032451629639,0.6538461538461539,0.8653846153846154,0.6428571428571429,0.8571428571428571,0.0004
712,1.3319140374660492,1.0632946491241455,0.6346153846153846,0.8461538461538461,0.6428571428571429,0.7857142857142857,0.0004
713,1.265393853187561,1.1829251050949097,0.5769230769230769,0.8076923076923077,0.5,0.7857142857142857,0.0004
714,1.2786210775375366,1.4262306690216064,0.6153846153846154,0.8461538461538461,0.7142857142857143,0.7857142857142857,0.0004
715,1.2852901220321655,1.1496753692626953,0.5192307692307693,0.7884615384615384,0.5714285714285714,0.8571428571428571,0.0004
716,1.296008825302124,1.2325751781463623,0.5961538461538461,0.75,0.6428571428571429,0.7857142857142857,0.0004
717,1.3470789790153503,0.9765655994415283,0.5,0.8076923076923077,0.7142857142857143,0.6428571428571429,0.0004
718,1.3144264221191406,1.1188608407974243,0.6153846153846154,0.8846153846153846,0.6428571428571429,0.7857142857142857,0.0004
719,1.4338641166687012,1.0802057981491089,0.4807692307692308,0.7884615384615384,0.7857142857142857,0.7857142857142857,0.0004
720,1.355975091457367,1.3996129035949707,0.5384615384615384,0.8076923076923077,0.5,0.7857142857142857,0.0004
721,1.3704743385314941,1.4051554203033447,0.5576923076923077,0.8653846153846154,0.5714285714285714,0.8571428571428571,0.0004
722,1.2154476046562195,1.1707470417022705,0.6346153846153846,0.8461538461538461,0.6428571428571429,0.7857142857142857,0.0004
723,1.1911484003067017,1.1866776943206787,0.5961538461538461,0.7884615384615384,0.7142857142857143,0.7857142857142857,0.0004
724,1.3600780963897705,1.3947067260742188,0.5384615384615384,0.8269230769230769,0.5,0.8571428571428571,0.0004
725,1.3483750820159912,1.194711685180664,0.5961538461538461,0.8076923076923077,0.6428571428571429,0.7857142857142857,0.0004
726,1.2812318205833435,1.505793809890747,0.6153846153846154,0.8076923076923077,0.35714285714285715,0.7857142857142857,0.0004
727,1.2630496621131897,1.170233964920044,0.6538461538461539,0.8269230769230769,0.6428571428571429,0.7857142857142857,0.0004
728,1.25454443693161,1.0160090923309326,0.5961538461538461,0.8653846153846154,0.7857142857142857,0.8571428571428571,0.0004
729,1.1898691654205322,1.2074296474456787,0.6346153846153846,0.8269230769230769,0.7142857142857143,0.8571428571428571,0.0004
730,1.1932474970817566,1.1528416872024536,0.6538461538461539,0.8076923076923077,0.6428571428571429,0.8571428571428571,0.0004
731,1.2812565565109253,1.2363314628601074,0.5961538461538461,0.8269230769230769,0.5714285714285714,0.8571428571428571,0.0004
732,1.3618673086166382,1.1033010482788086,0.6923076923076923,0.8076923076923077,0.6428571428571429,0.8571428571428571,0.0004
733,1.1652991771697998,1.1523102521896362,0.6538461538461539,0.8846153846153846,0.6428571428571429,0.8571428571428571,0.0004
734,1.1982641816139221,1.2423110008239746,0.6153846153846154,0.8461538461538461,0.6428571428571429,0.8571428571428571,0.0004
735,1.3094220757484436,1.2522108554840088,0.5961538461538461,0.8076923076923077,0.5714285714285714,0.8571428571428571,0.0004
736,1.1999618411064148,1.5152511596679688,0.6923076923076923,0.8269230769230769,0.5,0.8571428571428571,0.0004
737,1.3093838691711426,1.53322434425354,0.6346153846153846,0.8269230769230769,0.42857142857142855,0.8571428571428571,0.0004
738,1.1326969861984253,1.2018193006515503,0.6346153846153846,0.8269230769230769,0.6428571428571429,0.8571428571428571,0.0004
739,1.171884834766388,1.1670928001403809,0.6346153846153846,0.8461538461538461,0.5714285714285714,0.8571428571428571,0.0004
740,1.029567539691925,1.1795589923858643,0.6923076923076923,0.8461538461538461,0.6428571428571429,0.8571428571428571,0.0004
741,1.3243136405944824,1.3851439952850342,0.6346153846153846,0.8269230769230769,0.6428571428571429,0.8571428571428571,0.0004
742,1.1494041681289673,0.9589120149612427,0.6730769230769231,0.8461538461538461,0.7857142857142857,0.8571428571428571,0.0004
743,1.1260455250740051,1.4668985605239868,0.5961538461538461,0.8269230769230769,0.42857142857142855,0.8571428571428571,0.0004
744,1.260867416858673,1.2142932415008545,0.5769230769230769,0.8461538461538461,0.6428571428571429,0.8571428571428571,0.0004
745,1.2281241416931152,1.0524890422821045,0.6538461538461539,0.8461538461538461,0.6428571428571429,0.8571428571428571,0.0004
746,1.1229225993156433,1.0799890756607056,0.6923076923076923,0.8076923076923077,0.6428571428571429,0.8571428571428571,0.0004
747,1.2201042771339417,1.0461405515670776,0.6153846153846154,0.8076923076923077,0.5714285714285714,0.8571428571428571,0.0004
748,1.3115649819374084,1.125754475593567,0.5576923076923077,0.8269230769230769,0.7142857142857143,0.8571428571428571,0.0004
749,1.2658417224884033,1.0201278924942017,0.6153846153846154,0.8269230769230769,0.6428571428571429,0.8571428571428571,0.0004
750,1.2492164969444275,1.4597959518432617,0.6538461538461539,0.8461538461538461,0.5,0.8571428571428571,0.0004
751,1.3194236755371094,1.5830113887786865,0.5961538461538461,0.7884615384615384,0.5,0.8571428571428571,0.0004
752,1.0930959284305573,1.4244589805603027,0.6923076923076923,0.8269230769230769,0.42857142857142855,0.8571428571428571,0.0004
753,1.1735209226608276,1.3934532403945923,0.6346153846153846,0.8269230769230769,0.42857142857142855,0.8571428571428571,0.0004
754,1.1567344069480896,1.164687156677246,0.5961538461538461,0.8269230769230769,0.5714285714285714,0.8571428571428571,0.0004
755,1.235497534275055,1.143510341644287,0.5769230769230769,0.8461538461538461,0.5714285714285714,0.8571428571428571,0.0004
756,1.3691307306289673,1.3161418437957764,0.5,0.8461538461538461,0.5714285714285714,0.8571428571428571,0.0004
757,1.2261545658111572,1.0950026512145996,0.5769230769230769,0.8269230769230769,0.5714285714285714,0.8571428571428571,0.0004
758,1.1851022243499756,1.068010687828064,0.6730769230769231,0.8269230769230769,0.6428571428571429,0.8571428571428571,0.0004
759,1.3387045860290527,1.4322377443313599,0.5769230769230769,0.8076923076923077,0.42857142857142855,0.8571428571428571,0.0004
760,1.1588814854621887,1.114001750946045,0.5769230769230769,0.8269230769230769,0.6428571428571429,0.8571428571428571,0.0004
761,1.2197471261024475,1.1494104862213135,0.6538461538461539,0.8076923076923077,0.5,0.8571428571428571,0.0004
762,1.0865464806556702,1.5390774011611938,0.6730769230769231,0.8461538461538461,0.42857142857142855,0.8571428571428571,0.0004
763,1.1093517541885376,1.4641883373260498,0.6153846153846154,0.8076923076923077,0.5,0.8571428571428571,0.0004
764,1.3826770782470703,1.3550622463226318,0.5192307692307693,0.7884615384615384,0.5,0.8571428571428571,0.0004
765,1.1507565379142761,0.8564325571060181,0.6346153846153846,0.7884615384615384,0.7857142857142857,0.8571428571428571,0.0004
766,1.231589913368225,1.4161465167999268,0.5961538461538461,0.7884615384615384,0.5714285714285714,0.8571428571428571,0.0004
767,1.144932121038437,1.1796841621398926,0.5961538461538461,0.8269230769230769,0.5714285714285714,0.8571428571428571,0.0004
768,1.069963961839676,0.9721144437789917,0.6923076923076923,0.8076923076923077,0.8571428571428571,0.7142857142857143,0.0004
769,1.0759567022323608,1.2378501892089844,0.7115384615384616,0.8269230769230769,0.5714285714285714,0.8571428571428571,0.0004
770,1.1798604130744934,1.3607770204544067,0.6538461538461539,0.8461538461538461,0.5,0.7857142857142857,0.0004
771,1.2362938523292542,0.8471302390098572,0.6538461538461539,0.8269230769230769,0.7142857142857143,0.8571428571428571,0.0004
772,1.1109325885772705,1.3895479440689087,0.5961538461538461,0.8269230769230769,0.5714285714285714,0.7142857142857143,0.0004
773,1.3303460478782654,1.0258057117462158,0.5,0.8269230769230769,0.7142857142857143,0.6428571428571429,0.0004
774,0.9585854113101959,1.4501762390136719,0.6923076923076923,0.8846153846153846,0.42857142857142855,0.8571428571428571,0.0004
775,1.3117699027061462,1.0571680068969727,0.5961538461538461,0.8653846153846154,0.5714285714285714,0.8571428571428571,0.0004
776,1.4345843195915222,1.2906438112258911,0.5769230769230769,0.7692307692307693,0.5714285714285714,0.8571428571428571,0.0004
777,1.0410766899585724,1.4043402671813965,0.7115384615384616,0.75,0.5714285714285714,0.7857142857142857,0.0004
778,1.0842400193214417,1.676137924194336,0.5769230769230769,0.8846153846153846,0.5714285714285714,0.7857142857142857,0.0004
779,1.2350483536720276,1.3772876262664795,0.6346153846153846,0.8461538461538461,0.5714285714285714,0.7857142857142857,0.0004
780,1.3376901745796204,0.9984090328216553,0.6153846153846154,0.8076923076923077,0.7142857142857143,0.7857142857142857,0.0004
781,1.5072463750839233,1.6473388671875,0.5192307692307693,0.7692307692307693,0.5,0.8571428571428571,0.0004
782,1.0314223170280457,1.0535999536514282,0.7115384615384616,0.8269230769230769,0.7142857142857143,0.8571428571428571,0.0004
783,1.3050251603126526,1.1797428131103516,0.6153846153846154,0.8076923076923077,0.7142857142857143,0.8571428571428571,0.0004
784,1.2863263487815857,1.0594905614852905,0.6153846153846154,0.8269230769230769,0.6428571428571429,0.8571428571428571,0.0004
785,1.1766827702522278,1.5570874214172363,0.6153846153846154,0.8653846153846154,0.42857142857142855,0.8571428571428571,0.0004
786,1.0232588052749634,0.931027889251709,0.6538461538461539,0.8076923076923077,0.7142857142857143,0.8571428571428571,0.0004
787,1.1891249418258667,1.3778364658355713,0.5961538461538461,0.8269230769230769,0.6428571428571429,0.8571428571428571,0.0004
788,1.3453515768051147,0.9776090383529663,0.5961538461538461,0.8461538461538461,0.7142857142857143,0.8571428571428571,0.0004
789,1.2389708161354065,1.142624855041504,0.6538461538461539,0.8269230769230769,0.6428571428571429,0.7857142857142857,0.0004
790,1.3189260959625244,1.4239764213562012,0.5769230769230769,0.7692307692307693,0.5,0.8571428571428571,0.0004
791,1.2627815008163452,1.1972769498825073,0.6346153846153846,0.8461538461538461,0.5714285714285714,0.8571428571428571,0.0004
792,1.043809711933136,1.2765820026397705,0.7115384615384616,0.8653846153846154,0.5,0.8571428571428571,0.0004
793,1.2212210297584534,1.3572607040405273,0.6153846153846154,0.8269230769230769,0.5714285714285714,0.8571428571428571,0.0004
794,1.151508092880249,0.9539943933486938,0.6346153846153846,0.8269230769230769,0.7142857142857143,0.8571428571428571,0.0004
795,1.3658012747764587,1.0851467847824097,0.5384615384615384,0.8269230769230769,0.6428571428571429,0.8571428571428571,0.0004
796,1.1081832647323608,1.2844136953353882,0.6538461538461539,0.8269230769230769,0.6428571428571429,0.8571428571428571,0.0004
797,1.0928490161895752,1.1221575736999512,0.6730769230769231,0.8269230769230769,0.7857142857142857,0.8571428571428571,0.0004
798,1.3576502799987793,1.3457337617874146,0.6153846153846154,0.8269230769230769,0.6428571428571429,0.8571428571428571,0.0004
799,1.254385769367218,1.5727378129959106,0.5769230769230769,0.8269230769230769,0.35714285714285715,0.8571428571428571,0.0004
800,1.160226583480835,1.1303342580795288,0.6923076923076923,0.8076923076923077,0.7142857142857143,0.8571428571428571,0.0004
801,1.3237668573856354,1.1345477104187012,0.6346153846153846,0.8653846153846154,0.6428571428571429,0.8571428571428571,0.0004
802,1.3353535532951355,1.3060063123703003,0.6153846153846154,0.8269230769230769,0.42857142857142855,0.8571428571428571,0.0004
803,0.955438494682312,1.252456784248352,0.75,0.8269230769230769,0.5,0.8571428571428571,0.0004
804,1.172916293144226,1.0521903038024902,0.6538461538461539,0.8269230769230769,0.6428571428571429,0.8571428571428571,0.0004
805,1.2311847805976868,1.4699621200561523,0.6346153846153846,0.8461538461538461,0.35714285714285715,0.7857142857142857,0.0004
806,1.2286894917488098,0.8462401628494263,0.5769230769230769,0.8269230769230769,0.7142857142857143,0.8571428571428571,0.0004
807,1.0494145154953003,1.3233373165130615,0.6538461538461539,0.8269230769230769,0.5714285714285714,0.8571428571428571,0.0004
808,1.2386865615844727,1.3506525754928589,0.5961538461538461,0.8269230769230769,0.42857142857142855,0.8571428571428571,0.0004
809,1.2058696746826172,1.4830503463745117,0.6730769230769231,0.8461538461538461,0.42857142857142855,0.8571428571428571,0.0004
810,1.1925610303878784,1.0789916515350342,0.7115384615384616,0.8269230769230769,0.6428571428571429,0.7857142857142857,0.0004
811,1.2634692788124084,1.0191277265548706,0.6153846153846154,0.8076923076923077,0.7857142857142857,0.8571428571428571,0.0004
812,1.1147761344909668,1.4560625553131104,0.6346153846153846,0.8269230769230769,0.5,0.8571428571428571,0.0004
813,1.131529986858368,1.3803046941757202,0.5961538461538461,0.8269230769230769,0.42857142857142855,0.7857142857142857,0.0004
814,1.3114882111549377,1.502428412437439,0.6153846153846154,0.7884615384615384,0.5,0.8571428571428571,0.0004
815,1.2334781289100647,1.0910992622375488,0.6153846153846154,0.8076923076923077,0.6428571428571429,0.8571428571428571,0.0004
816,1.2020378708839417,1.2763020992279053,0.6730769230769231,0.8653846153846154,0.42857142857142855,0.8571428571428571,0.0004
817,1.1623483300209045,0.9678154587745667,0.6538461538461539,0.8269230769230769,0.6428571428571429,0.8571428571428571,0.0004
818,1.2733013033866882,1.3228390216827393,0.5769230769230769,0.8076923076923077,0.5714285714285714,0.8571428571428571,0.0004
819,1.0945150554180145,1.0993635654449463,0.6346153846153846,0.8653846153846154,0.7857142857142857,0.7857142857142857,0.0004
820,1.287522315979004,1.569657802581787,0.6346153846153846,0.7884615384615384,0.5,0.8571428571428571,0.0004
821,1.104701042175293,1.0892159938812256,0.6923076923076923,0.8653846153846154,0.5714285714285714,0.8571428571428571,0.0004
822,1.2900347709655762,1.4399014711380005,0.5961538461538461,0.7307692307692307,0.5714285714285714,0.8571428571428571,0.0004
823,1.1011621952056885,1.5662811994552612,0.6730769230769231,0.8461538461538461,0.42857142857142855,0.8571428571428571,0.0004
824,1.2573457956314087,1.3768823146820068,0.6153846153846154,0.8461538461538461,0.5,0.8571428571428571,0.0004
825,1.1674230098724365,1.123902440071106,0.6346153846153846,0.8269230769230769,0.5714285714285714,0.8571428571428571,0.0004
826,1.1657004952430725,1.4181814193725586,0.6153846153846154,0.8076923076923077,0.5714285714285714,0.8571428571428571,0.0004
827,1.1040174961090088,1.0843254327774048,0.7115384615384616,0.7884615384615384,0.6428571428571429,0.7857142857142857,0.0004
828,1.1325548887252808,1.546952247619629,0.6538461538461539,0.8461538461538461,0.5,0.7857142857142857,0.0004
829,1.1650745272636414,1.2621829509735107,0.6538461538461539,0.8269230769230769,0.5714285714285714,0.8571428571428571,0.0004
830,1.2204280495643616,1.8134866952896118,0.6346153846153846,0.7884615384615384,0.2857142857142857,0.7857142857142857,0.0004
831,1.2237328886985779,1.1642649173736572,0.6153846153846154,0.8269230769230769,0.7142857142857143,0.8571428571428571,0.0004
832,1.1761544942855835,1.1820522546768188,0.6346153846153846,0.8269230769230769,0.5714285714285714,0.7857142857142857,0.0004
833,1.4676340222358704,1.3306655883789062,0.6153846153846154,0.8269230769230769,0.5,0.8571428571428571,0.0004
834,1.3160955905914307,1.282003402709961,0.6153846153846154,0.8269230769230769,0.5714285714285714,0.8571428571428571,0.0004
835,1.314054548740387,1.3570077419281006,0.6153846153846154,0.7884615384615384,0.6428571428571429,0.8571428571428571,0.0004
836,0.9877073764801025,1.085047721862793,0.7307692307692307,0.7884615384615384,0.6428571428571429,0.8571428571428571,0.0004
837,1.1044099032878876,1.1670124530792236,0.6153846153846154,0.8269230769230769,0.6428571428571429,0.8571428571428571,0.0004
838,1.4907524585723877,1.212355613708496,0.4807692307692308,0.8269230769230769,0.5714285714285714,0.8571428571428571,0.0004
839,1.2690415382385254,1.439831256866455,0.6538461538461539,0.8269230769230769,0.5714285714285714,0.8571428571428571,0.0004
840,1.1426838636398315,1.2144016027450562,0.6153846153846154,0.8269230769230769,0.5,0.8571428571428571,0.0004
841,1.3112779259681702,1.0427056550979614,0.5961538461538461,0.8461538461538461,0.6428571428571429,0.8571428571428571,0.0004
842,1.104846477508545,1.1094951629638672,0.6923076923076923,0.8076923076923077,0.5714285714285714,0.8571428571428571,0.0004
843,1.3492497205734253,1.1533983945846558,0.5576923076923077,0.8076923076923077,0.6428571428571429,0.8571428571428571,0.0004
844,1.3423994183540344,1.1432970762252808,0.5961538461538461,0.8269230769230769,0.7142857142857143,0.8571428571428571,0.0004
845,1.2568448781967163,1.1505446434020996,0.5769230769230769,0.8461538461538461,0.5714285714285714,0.8571428571428571,0.0004
846,1.2224416136741638,1.1806535720825195,0.5961538461538461,0.8269230769230769,0.5,0.8571428571428571,0.0004
847,1.149377465248108,1.4389479160308838,0.6346153846153846,0.8269230769230769,0.5,0.8571428571428571,0.0004
848,1.2433362007141113,1.3451707363128662,0.5192307692307693,0.8269230769230769,0.5,0.8571428571428571,0.0004
849,1.3257808089256287,1.1104520559310913,0.5192307692307693,0.8076923076923077,0.7142857142857143,0.8571428571428571,0.0004
850,1.1442835330963135,1.0581164360046387,0.8076923076923077,0.75,0.7142857142857143,0.8571428571428571,0.0004
851,1.265258550643921,1.3895454406738281,0.6346153846153846,0.8269230769230769,0.42857142857142855,0.8571428571428571,0.0004
852,1.1889402866363525,1.2054121494293213,0.6153846153846154,0.7884615384615384,0.5714285714285714,0.8571428571428571,0.0004
853,1.2579425573349,1.2893474102020264,0.6153846153846154,0.7884615384615384,0.5,0.8571428571428571,0.0004
854,1.4506035447120667,1.3038599491119385,0.5576923076923077,0.8269230769230769,0.5714285714285714,0.8571428571428571,0.0004
855,1.230211079120636,1.381748080253601,0.6730769230769231,0.8461538461538461,0.5,0.8571428571428571,0.0004
856,1.382279396057129,1.11378014087677,0.5384615384615384,0.7884615384615384,0.7142857142857143,0.8571428571428571,0.0004
857,1.084511399269104,1.2733994722366333,0.7115384615384616,0.9038461538461539,0.42857142857142855,0.8571428571428571,0.0004
858,1.2680196166038513,1.4529743194580078,0.6153846153846154,0.8076923076923077,0.35714285714285715,0.8571428571428571,0.0004
859,1.1992573738098145,1.5877294540405273,0.6730769230769231,0.8653846153846154,0.42857142857142855,0.8571428571428571,0.0004
860,1.3165754675865173,1.257500410079956,0.6538461538461539,0.8269230769230769,0.7142857142857143,0.8571428571428571,0.0004
861,1.168921709060669,1.0637656450271606,0.6153846153846154,0.8846153846153846,0.6428571428571429,0.8571428571428571,0.0004
862,1.3003482818603516,1.3044275045394897,0.5384615384615384,0.8076923076923077,0.35714285714285715,0.8571428571428571,0.0004
863,1.2766749858856201,1.251725673675537,0.5961538461538461,0.8461538461538461,0.5,0.7142857142857143,0.0004
864,1.2094987034797668,1.5312020778656006,0.6153846153846154,0.8269230769230769,0.5,0.8571428571428571,0.0004
865,1.276657521724701,1.5254402160644531,0.5384615384615384,0.7884615384615384,0.5714285714285714,0.7142857142857143,0.0004
866,1.2520381212234497,1.0579050779342651,0.6346153846153846,0.8076923076923077,0.7142857142857143,0.7857142857142857,0.0004
867,1.2701164484024048,1.0815101861953735,0.6346153846153846,0.7884615384615384,0.7142857142857143,0.8571428571428571,0.0004
868,1.2394047379493713,1.4934567213058472,0.5769230769230769,0.8076923076923077,0.6428571428571429,0.7857142857142857,0.0004
869,1.3225941061973572,1.3880972862243652,0.6153846153846154,0.8461538461538461,0.5,0.8571428571428571,0.0004
870,1.2512943148612976,1.2935774326324463,0.6153846153846154,0.8076923076923077,0.5714285714285714,0.8571428571428571,0.0004
871,1.1845685839653015,1.3058936595916748,0.6538461538461539,0.8461538461538461,0.6428571428571429,0.8571428571428571,0.0004
872,1.1445717215538025,0.9889959096908569,0.6538461538461539,0.8461538461538461,0.8571428571428571,0.8571428571428571,0.0004
873,1.2635114789009094,1.3991338014602661,0.6538461538461539,0.8076923076923077,0.5714285714285714,0.7857142857142857,0.0004
874,1.2213265299797058,1.1078989505767822,0.6730769230769231,0.8076923076923077,0.7857142857142857,0.8571428571428571,0.0004
875,1.1152637898921967,1.145209789276123,0.7115384615384616,0.8461538461538461,0.6428571428571429,0.7857142857142857,0.0004
876,1.2249304056167603,1.0630114078521729,0.6538461538461539,0.8269230769230769,0.5714285714285714,0.8571428571428571,0.0004
877,1.2177091836929321,1.1791335344314575,0.5961538461538461,0.8653846153846154,0.5714285714285714,0.8571428571428571,0.0004
878,1.1678295731544495,1.401996374130249,0.6730769230769231,0.8653846153846154,0.5714285714285714,0.8571428571428571,0.0004
879,1.1940776109695435,1.3264272212982178,0.6153846153846154,0.8461538461538461,0.7142857142857143,0.8571428571428571,0.0004
880,1.0931113958358765,1.1482306718826294,0.6730769230769231,0.8269230769230769,0.5714285714285714,0.8571428571428571,0.0004
881,1.0859930515289307,1.3621013164520264,0.6923076923076923,0.8076923076923077,0.5714285714285714,0.8571428571428571,0.0004
882,1.0717381536960602,1.2872451543807983,0.6923076923076923,0.8653846153846154,0.5714285714285714,0.8571428571428571,0.0004
883,1.0569674968719482,1.42889404296875,0.6538461538461539,0.8269230769230769,0.5,0.8571428571428571,0.0004
884,1.3130286931991577,1.3598921298980713,0.5576923076923077,0.8269230769230769,0.42857142857142855,0.8571428571428571,0.0004
885,1.300594449043274,1.6145201921463013,0.5384615384615384,0.7884615384615384,0.42857142857142855,0.7857142857142857,0.0004
886,1.1268385350704193,1.4377027750015259,0.6538461538461539,0.8269230769230769,0.42857142857142855,0.7857142857142857,0.0004
887,1.0720526576042175,1.404717206954956,0.7115384615384616,0.8653846153846154,0.5,0.8571428571428571,0.0004
888,1.4910672903060913,1.071685791015625,0.5,0.8269230769230769,0.7857142857142857,0.7142857142857143,0.0004
889,1.4897031784057617,1.4316658973693848,0.5384615384615384,0.8653846153846154,0.5,0.7857142857142857,0.0004
890,1.1746531128883362,1.130461573600769,0.6730769230769231,0.8461538461538461,0.6428571428571429,0.8571428571428571,0.0004
891,1.3770874440670013,1.1286418437957764,0.5576923076923077,0.8461538461538461,0.5714285714285714,0.7142857142857143,0.0004
892,1.1891219019889832,1.8636176586151123,0.6153846153846154,0.7692307692307693,0.35714285714285715,0.6428571428571429,0.0004
893,1.2016315460205078,1.2027441263198853,0.6346153846153846,0.8653846153846154,0.7857142857142857,0.7142857142857143,0.0004
894,1.160748302936554,0.8571250438690186,0.5769230769230769,0.8846153846153846,0.7857142857142857,0.7857142857142857,0.0004
895,1.1691291332244873,1.3347194194793701,0.6538461538461539,0.8269230769230769,0.5,0.8571428571428571,0.0004
896,1.1197817921638489,1.2621562480926514,0.5961538461538461,0.7884615384615384,0.5,0.7142857142857143,0.0004
897,1.2341253757476807,0.9632043838500977,0.5192307692307693,0.8269230769230769,0.7857142857142857,0.7142857142857143,0.0004
898,1.4178019762039185,1.387213110923767,0.4807692307692308,0.7884615384615384,0.5,0.6428571428571429,0.0004
899,1.2160898447036743,1.4872794151306152,0.6346153846153846,0.8076923076923077,0.5,0.7857142857142857,0.0004
900,1.1387965083122253,1.504414677619934,0.6153846153846154,0.7884615384615384,0.35714285714285715,0.7142857142857143,0.0004
901,1.0580706596374512,1.5898467302322388,0.7115384615384616,0.8653846153846154,0.35714285714285715,0.7857142857142857,0.0004
902,1.5797740817070007,1.7028919458389282,0.5384615384615384,0.7884615384615384,0.35714285714285715,0.7857142857142857,0.0004
903,1.2970863580703735,1.4002106189727783,0.6153846153846154,0.75,0.5714285714285714,0.7857142857142857,0.0004
904,1.0842617750167847,1.1396714448928833,0.6923076923076923,0.8269230769230769,0.42857142857142855,0.8571428571428571,0.0004
905,1.331712245941162,1.4160006046295166,0.6346153846153846,0.8269230769230769,0.5714285714285714,0.7142857142857143,0.0004
906,1.3327526450157166,1.4063788652420044,0.5769230769230769,0.7884615384615384,0.42857142857142855,0.8571428571428571,0.0004
907,1.1948370337486267,1.2851332426071167,0.6153846153846154,0.8653846153846154,0.5,0.7142857142857143,0.0004
908,1.4139485359191895,1.23140549659729,0.5192307692307693,0.7884615384615384,0.7142857142857143,0.7142857142857143,0.0004
909,1.2986214756965637,1.457409143447876,0.6153846153846154,0.8269230769230769,0.42857142857142855,0.7857142857142857,0.0004
910,1.3646833896636963,1.144217610359192,0.5384615384615384,0.8076923076923077,0.7142857142857143,0.8571428571428571,0.0004
911,1.1519336104393005,1.1636991500854492,0.6923076923076923,0.8461538461538461,0.5,0.8571428571428571,0.0004
912,1.0415033400058746,1.3463618755340576,0.7884615384615384,0.7884615384615384,0.5,0.7142857142857143,0.0004
913,1.1675833463668823,1.397153377532959,0.6730769230769231,0.8269230769230769,0.5714285714285714,0.7857142857142857,0.0004
914,1.0068635940551758,1.0155696868896484,0.75,0.8846153846153846,0.7857142857142857,0.8571428571428571,0.0004
915,1.3656851053237915,1.2624435424804688,0.5576923076923077,0.8269230769230769,0.5714285714285714,0.7142857142857143,0.0004
916,1.2366363406181335,0.9619216322898865,0.6153846153846154,0.8269230769230769,0.7857142857142857,0.7857142857142857,0.0004
917,1.2214946746826172,1.3567838668823242,0.6538461538461539,0.8269230769230769,0.5,0.8571428571428571,0.0004
918,1.2032159566879272,0.8970155715942383,0.6730769230769231,0.8269230769230769,0.7142857142857143,0.8571428571428571,0.0004
919,1.399354338645935,1.1941457986831665,0.5769230769230769,0.7884615384615384,0.5714285714285714,0.8571428571428571,0.0004
920,1.2093022465705872,1.6347966194152832,0.6153846153846154,0.8269230769230769,0.5,0.7857142857142857,0.0004
921,1.261222779750824,1.3235849142074585,0.6538461538461539,0.8269230769230769,0.5714285714285714,0.7857142857142857,0.0004
922,1.3100029826164246,1.0145812034606934,0.5961538461538461,0.8461538461538461,0.7142857142857143,0.8571428571428571,0.0004
923,1.1037258505821228,1.1591384410858154,0.6538461538461539,0.8076923076923077,0.6428571428571429,0.8571428571428571,0.0004
924,1.2188584804534912,1.3261592388153076,0.7115384615384616,0.8076923076923077,0.5714285714285714,0.8571428571428571,0.0004
925,1.0879660844802856,1.657222032546997,0.6538461538461539,0.8461538461538461,0.5,0.8571428571428571,0.0004
926,1.2555322647094727,1.0890913009643555,0.6538461538461539,0.8076923076923077,0.6428571428571429,0.8571428571428571,0.0004
927,1.0932905077934265,1.5632286071777344,0.6923076923076923,0.8653846153846154,0.42857142857142855,0.8571428571428571,0.0004
928,1.2434374690055847,1.3581472635269165,0.5769230769230769,0.8076923076923077,0.5714285714285714,0.8571428571428571,0.0004
929,1.1070972084999084,1.1695749759674072,0.6538461538461539,0.7692307692307693,0.5714285714285714,0.8571428571428571,0.0004
930,1.166215181350708,1.2042713165283203,0.7692307692307693,0.8076923076923077,0.5714285714285714,0.8571428571428571,0.0004
931,1.0899003148078918,1.274195671081543,0.6538461538461539,0.8461538461538461,0.6428571428571429,0.8571428571428571,0.0004
932,1.3908819556236267,0.9906152486801147,0.6153846153846154,0.8076923076923077,0.6428571428571429,0.8571428571428571,0.0004
933,1.19841468334198,1.613785982131958,0.5769230769230769,0.8846153846153846,0.35714285714285715,0.8571428571428571,0.0004
934,1.0659836530685425,1.2711069583892822,0.7115384615384616,0.7884615384615384,0.7142857142857143,0.8571428571428571,0.0004
935,1.132790744304657,1.176292896270752,0.6730769230769231,0.8076923076923077,0.5714285714285714,0.8571428571428571,0.0004
936,1.1940984725952148,1.3952726125717163,0.7115384615384616,0.8269230769230769,0.42857142857142855,0.8571428571428571,0.0004
937,1.2889063954353333,1.5069552659988403,0.5961538461538461,0.8269230769230769,0.5714285714285714,0.8571428571428571,0.0004
938,1.1280812919139862,1.2593321800231934,0.6153846153846154,0.8269230769230769,0.5714285714285714,0.8571428571428571,0.0004
939,1.2000297904014587,0.9021705985069275,0.6730769230769231,0.8269230769230769,0.7142857142857143,0.8571428571428571,0.0004
940,1.1170971989631653,1.310057520866394,0.6346153846153846,0.8269230769230769,0.6428571428571429,0.8571428571428571,0.0004
941,1.159987211227417,1.0674736499786377,0.6346153846153846,0.8269230769230769,0.5714285714285714,0.8571428571428571,0.0004
942,1.2219277620315552,1.2212952375411987,0.5961538461538461,0.8076923076923077,0.5714285714285714,0.8571428571428571,0.0004
943,1.0651098489761353,1.242222547531128,0.6923076923076923,0.8461538461538461,0.5714285714285714,0.8571428571428571,0.0004
944,1.2477036118507385,1.226537823677063,0.6538461538461539,0.8269230769230769,0.5,0.8571428571428571,0.0004
945,1.2999703884124756,1.2637566328048706,0.6730769230769231,0.8269230769230769,0.5714285714285714,0.8571428571428571,0.0004
946,1.2488438487052917,0.8350820541381836,0.5961538461538461,0.8653846153846154,0.7857142857142857,0.8571428571428571,0.0004
947,1.2033403515815735,1.3324522972106934,0.5769230769230769,0.8269230769230769,0.5714285714285714,0.8571428571428571,0.0004
948,1.3649742603302002,1.381169080734253,0.5192307692307693,0.8461538461538461,0.5714285714285714,0.8571428571428571,0.0004
949,1.1999247670173645,1.2698040008544922,0.6153846153846154,0.8461538461538461,0.42857142857142855,0.8571428571428571,0.0004
950,1.296678602695465,1.0999910831451416,0.5961538461538461,0.7884615384615384,0.5,0.8571428571428571,0.0004
951,1.0186157524585724,1.029066801071167,0.6923076923076923,0.8653846153846154,0.5714285714285714,0.7142857142857143,0.0004
952,1.4245890974998474,1.010574460029602,0.5,0.7884615384615384,0.5714285714285714,0.8571428571428571,0.0004
953,1.1094980239868164,1.1640352010726929,0.6346153846153846,0.7884615384615384,0.6428571428571429,0.7857142857142857,0.0004
954,1.2651196718215942,0.9536864161491394,0.5576923076923077,0.8653846153846154,0.6428571428571429,0.8571428571428571,0.0004
955,1.1183834671974182,1.5271716117858887,0.6730769230769231,0.8653846153846154,0.5,0.7857142857142857,0.0004
956,1.1309899687767029,1.3017613887786865,0.5961538461538461,0.8653846153846154,0.5,0.7857142857142857,0.0004
957,1.285359263420105,1.0576573610305786,0.5961538461538461,0.75,0.7142857142857143,0.8571428571428571,0.0004
958,1.1598224341869354,1.3636101484298706,0.6346153846153846,0.7692307692307693,0.5,0.7142857142857143,0.0004
959,1.2019922137260437,1.1976314783096313,0.6346153846153846,0.8076923076923077,0.5,0.8571428571428571,0.0004
960,1.1042572855949402,1.4861767292022705,0.6923076923076923,0.8269230769230769,0.5714285714285714,0.7857142857142857,0.0004
961,1.1482033729553223,1.3018667697906494,0.6730769230769231,0.7884615384615384,0.6428571428571429,0.7142857142857143,0.0004
962,1.2645960450172424,1.3269779682159424,0.6346153846153846,0.8076923076923077,0.6428571428571429,0.7142857142857143,0.0004
963,1.3516173958778381,0.77955162525177,0.5961538461538461,0.8653846153846154,0.7142857142857143,0.8571428571428571,0.0004
964,1.2647159099578857,0.9416793584823608,0.6153846153846154,0.8269230769230769,0.7142857142857143,0.7857142857142857,0.0004
965,1.1683784127235413,1.42588210105896,0.6153846153846154,0.8846153846153846,0.5,0.7857142857142857,0.0004
966,1.2878950834274292,1.3743507862091064,0.6153846153846154,0.8653846153846154,0.5,0.7142857142857143,0.0004
967,1.130140244960785,1.266060471534729,0.6923076923076923,0.8461538461538461,0.42857142857142855,0.7142857142857143,0.0004
968,1.1656917333602905,1.1561667919158936,0.7115384615384616,0.8269230769230769,0.6428571428571429,0.7857142857142857,0.0004
969,1.2561834454536438,1.077518343925476,0.6538461538461539,0.8076923076923077,0.5714285714285714,0.7142857142857143,0.0004
970,1.0907529592514038,1.4095295667648315,0.6923076923076923,0.7884615384615384,0.6428571428571429,0.7142857142857143,0.0004
971,1.2866114974021912,0.9744386672973633,0.6346153846153846,0.8269230769230769,0.7142857142857143,0.7857142857142857,0.0004
972,1.0237630605697632,1.4068074226379395,0.6923076923076923,0.8269230769230769,0.5,0.8571428571428571,0.0004
973,1.2303759455680847,1.6021058559417725,0.6153846153846154,0.8076923076923077,0.35714285714285715,0.8571428571428571,0.0004
974,1.1355764269828796,1.095637559890747,0.5961538461538461,0.8269230769230769,0.6428571428571429,0.8571428571428571,0.0004
975,0.9946187138557434,1.1152303218841553,0.6923076923076923,0.8461538461538461,0.5714285714285714,0.8571428571428571,0.0004
976,1.1711800694465637,0.9574201703071594,0.5769230769230769,0.8461538461538461,0.7142857142857143,0.7857142857142857,0.0004
977,1.1723312139511108,1.0713226795196533,0.6730769230769231,0.8461538461538461,0.6428571428571429,0.7857142857142857,0.0004
978,1.1183803975582123,1.3948129415512085,0.6346153846153846,0.7884615384615384,0.5714285714285714,0.7142857142857143,0.0004
979,1.2728670835494995,1.2858123779296875,0.6538461538461539,0.8269230769230769,0.42857142857142855,0.7857142857142857,0.0004
980,1.0902974307537079,1.0466704368591309,0.6346153846153846,0.8461538461538461,0.6428571428571429,0.7857142857142857,0.0004
981,1.2747145891189575,1.0637202262878418,0.5384615384615384,0.8461538461538461,0.5714285714285714,0.8571428571428571,0.0004
982,1.169022262096405,1.4311444759368896,0.6538461538461539,0.8269230769230769,0.42857142857142855,0.7857142857142857,0.0004
983,1.2309165596961975,1.4930317401885986,0.5769230769230769,0.8269230769230769,0.5714285714285714,0.8571428571428571,0.0004
984,1.207998812198639,1.19004225730896,0.6538461538461539,0.8653846153846154,0.5714285714285714,0.8571428571428571,0.0004
985,1.147434651851654,0.9070909023284912,0.6153846153846154,0.8653846153846154,0.7857142857142857,0.7857142857142857,0.0004
986,1.3005180954933167,0.9077163934707642,0.5961538461538461,0.8269230769230769,0.7142857142857143,0.8571428571428571,0.0004
987,1.30743008852005,1.278607964515686,0.5384615384615384,0.8076923076923077,0.5714285714285714,0.7142857142857143,0.0004
988,1.0136138200759888,1.0666697025299072,0.6923076923076923,0.8461538461538461,0.7142857142857143,0.8571428571428571,0.0004
989,1.1097480654716492,1.7692989110946655,0.7115384615384616,0.8269230769230769,0.35714285714285715,0.7142857142857143,0.0004
990,1.215142846107483,0.7735975384712219,0.5576923076923077,0.8076923076923077,0.7142857142857143,0.7857142857142857,0.0004
991,1.2532185316085815,1.3484323024749756,0.6153846153846154,0.8076923076923077,0.5,0.7857142857142857,0.0004
992,1.0939550399780273,1.1483595371246338,0.6153846153846154,0.8846153846153846,0.6428571428571429,0.7142857142857143,0.0004
993,1.237335205078125,1.2247493267059326,0.5961538461538461,0.8076923076923077,0.5714285714285714,0.7857142857142857,0.0004
