epoch,train_loss,val_loss,train_acc_action,train_acc_status,val_acc_action,val_acc_status,learning_rate
1,1.8319399952888489,1.804414987564087,0.3076923076923077,0.17307692307692307,0.42857142857142855,0.14285714285714285,0.0004
2,1.8262395858764648,1.7992355823516846,0.3076923076923077,0.17307692307692307,0.42857142857142855,0.14285714285714285,0.0004
3,1.8190809488296509,1.7943601608276367,0.3076923076923077,0.17307692307692307,0.42857142857142855,0.14285714285714285,0.0004
4,1.8116874694824219,1.7893002033233643,0.3076923076923077,0.19230769230769232,0.42857142857142855,0.14285714285714285,0.0004
5,1.8084636330604553,1.7840402126312256,0.3076923076923077,0.28846153846153844,0.42857142857142855,0.14285714285714285,0.0004
6,1.8043585419654846,1.7786483764648438,0.3076923076923077,0.40384615384615385,0.42857142857142855,0.8571428571428571,0.0004
7,1.8132566809654236,1.7730274200439453,0.3076923076923077,0.36538461538461536,0.42857142857142855,0.8571428571428571,0.0004
8,1.8034087419509888,1.767207384109497,0.3076923076923077,0.5576923076923077,0.42857142857142855,0.8571428571428571,0.0004
9,1.7796332836151123,1.7603154182434082,0.3076923076923077,0.7692307692307693,0.42857142857142855,0.8571428571428571,0.0004
10,1.7837453484535217,1.7520278692245483,0.3076923076923077,0.6923076923076923,0.42857142857142855,0.8571428571428571,0.0004
11,1.768985629081726,1.7409647703170776,0.3076923076923077,0.8461538461538461,0.42857142857142855,0.8571428571428571,0.0004
12,1.7551178932189941,1.7267110347747803,0.3076923076923077,0.8269230769230769,0.42857142857142855,0.8571428571428571,0.0004
13,1.7440508604049683,1.7046982049942017,0.28846153846153844,0.8269230769230769,0.42857142857142855,0.8571428571428571,0.0004
14,1.710529625415802,1.6664628982543945,0.3076923076923077,0.8269230769230769,0.42857142857142855,0.8571428571428571,0.0004
15,1.690796434879303,1.5799570083618164,0.25,0.8269230769230769,0.35714285714285715,0.8571428571428571,0.0004
16,1.614732563495636,1.5397346019744873,0.38461538461538464,0.8269230769230769,0.35714285714285715,0.8571428571428571,0.0004
17,1.565796434879303,1.5349962711334229,0.3076923076923077,0.8269230769230769,0.35714285714285715,0.8571428571428571,0.0004
18,1.5840209126472473,1.5403995513916016,0.46153846153846156,0.8269230769230769,0.21428571428571427,0.8571428571428571,0.0004
19,1.6314287185668945,1.5461328029632568,0.36538461538461536,0.8269230769230769,0.21428571428571427,0.8571428571428571,0.0004
20,1.7105721235275269,1.5491297245025635,0.3076923076923077,0.8269230769230769,0.21428571428571427,0.8571428571428571,0.0004
21,1.5962601900100708,1.549088954925537,0.34615384615384615,0.8269230769230769,0.21428571428571427,0.8571428571428571,0.0004
22,1.5944602489471436,1.5483306646347046,0.40384615384615385,0.8269230769230769,0.21428571428571427,0.8571428571428571,0.0004
23,1.6256577968597412,1.5469977855682373,0.2692307692307692,0.8269230769230769,0.21428571428571427,0.8571428571428571,0.0004
24,1.6969756484031677,1.5455951690673828,0.3269230769230769,0.8269230769230769,0.21428571428571427,0.8571428571428571,0.0004
25,1.6063429713249207,1.5432852506637573,0.2692307692307692,0.8269230769230769,0.21428571428571427,0.8571428571428571,0.0004
26,1.5700845122337341,1.542041540145874,0.25,0.8269230769230769,0.21428571428571427,0.8571428571428571,0.0004
27,1.610720157623291,1.541663408279419,0.2692307692307692,0.8269230769230769,0.21428571428571427,0.8571428571428571,0.0004
28,1.568972110748291,1.541961431503296,0.3269230769230769,0.8269230769230769,0.21428571428571427,0.8571428571428571,0.0004
29,1.5651296973228455,1.543079137802124,0.34615384615384615,0.8269230769230769,0.21428571428571427,0.8571428571428571,0.0004
30,1.6305237412452698,1.544212818145752,0.36538461538461536,0.8269230769230769,0.21428571428571427,0.8571428571428571,0.0004
31,1.5923831462860107,1.5452903509140015,0.34615384615384615,0.8269230769230769,0.21428571428571427,0.8571428571428571,0.0004
32,1.593808352947235,1.5462439060211182,0.36538461538461536,0.8269230769230769,0.21428571428571427,0.8571428571428571,0.0004
33,1.5662519931793213,1.5463083982467651,0.38461538461538464,0.8269230769230769,0.21428571428571427,0.8571428571428571,0.0004
34,1.594255805015564,1.5460548400878906,0.23076923076923078,0.8269230769230769,0.21428571428571427,0.8571428571428571,0.0004
35,1.6120697259902954,1.5459126234054565,0.28846153846153844,0.8269230769230769,0.21428571428571427,0.8571428571428571,0.0004
36,1.5541369915008545,1.5453485250473022,0.4423076923076923,0.8269230769230769,0.21428571428571427,0.8571428571428571,0.0004
37,1.6231516003608704,1.5444262027740479,0.21153846153846154,0.8269230769230769,0.21428571428571427,0.8571428571428571,0.0004
38,1.6247498989105225,1.5435203313827515,0.25,0.8269230769230769,0.21428571428571427,0.8571428571428571,0.0004
39,1.591953456401825,1.5430227518081665,0.2692307692307692,0.8269230769230769,0.21428571428571427,0.8571428571428571,0.0004
40,1.5752400755882263,1.5425493717193604,0.3269230769230769,0.8269230769230769,0.21428571428571427,0.8571428571428571,0.0004
41,1.558288037776947,1.541934609413147,0.36538461538461536,0.8269230769230769,0.21428571428571427,0.8571428571428571,0.0004
42,1.6143571734428406,1.5418508052825928,0.3269230769230769,0.8269230769230769,0.21428571428571427,0.8571428571428571,0.0004
43,1.6312360763549805,1.5418574810028076,0.21153846153846154,0.8269230769230769,0.21428571428571427,0.8571428571428571,0.0004
44,1.6011650562286377,1.5415624380111694,0.3269230769230769,0.8269230769230769,0.21428571428571427,0.8571428571428571,0.0004
45,1.600503146648407,1.5414187908172607,0.25,0.8269230769230769,0.21428571428571427,0.8571428571428571,0.0004
46,1.5883827209472656,1.5410966873168945,0.4230769230769231,0.8269230769230769,0.21428571428571427,0.8571428571428571,0.0004
47,1.5861197710037231,1.541320562362671,0.4230769230769231,0.8269230769230769,0.21428571428571427,0.8571428571428571,0.0004
48,1.6291701197624207,1.5415552854537964,0.28846153846153844,0.8269230769230769,0.21428571428571427,0.8571428571428571,0.0004
49,1.5752116441726685,1.541688323020935,0.3076923076923077,0.8269230769230769,0.21428571428571427,0.8571428571428571,0.0004
50,1.5702247619628906,1.541365146636963,0.36538461538461536,0.8269230769230769,0.21428571428571427,0.8571428571428571,0.0004
51,1.603917121887207,1.5413321256637573,0.2692307692307692,0.8269230769230769,0.21428571428571427,0.8571428571428571,0.0004
52,1.6498465538024902,1.5416139364242554,0.28846153846153844,0.8269230769230769,0.21428571428571427,0.8571428571428571,0.0004
53,1.6063618063926697,1.54108726978302,0.40384615384615385,0.8269230769230769,0.21428571428571427,0.8571428571428571,0.0004
54,1.6486291885375977,1.5404958724975586,0.38461538461538464,0.8269230769230769,0.21428571428571427,0.8571428571428571,0.0004
55,1.5719753503799438,1.5403847694396973,0.4807692307692308,0.8269230769230769,0.21428571428571427,0.8571428571428571,0.0004
56,1.5811159014701843,1.5406172275543213,0.36538461538461536,0.8269230769230769,0.21428571428571427,0.8571428571428571,0.0004
57,1.5464792847633362,1.5413717031478882,0.34615384615384615,0.8269230769230769,0.21428571428571427,0.8571428571428571,0.0004
58,1.5660050511360168,1.5419526100158691,0.36538461538461536,0.8269230769230769,0.21428571428571427,0.8571428571428571,0.0004
59,1.5640844702720642,1.5424654483795166,0.36538461538461536,0.8269230769230769,0.21428571428571427,0.8571428571428571,0.0004
60,1.6129176616668701,1.5434505939483643,0.4423076923076923,0.8269230769230769,0.21428571428571427,0.8571428571428571,0.0004
61,1.5879511833190918,1.5448375940322876,0.40384615384615385,0.8269230769230769,0.21428571428571427,0.8571428571428571,0.0004
62,1.5462559461593628,1.546156883239746,0.4423076923076923,0.8269230769230769,0.21428571428571427,0.8571428571428571,0.0004
63,1.7058571577072144,1.5472182035446167,0.3076923076923077,0.8269230769230769,0.21428571428571427,0.8571428571428571,0.0004
64,1.6116775870323181,1.54864501953125,0.5,0.8269230769230769,0.21428571428571427,0.8571428571428571,0.0004
65,1.5864276885986328,1.5501408576965332,0.3269230769230769,0.8269230769230769,0.21428571428571427,0.8571428571428571,0.0004
66,1.5751681923866272,1.5516794919967651,0.38461538461538464,0.8269230769230769,0.21428571428571427,0.8571428571428571,0.0004
67,1.553517460823059,1.5530567169189453,0.46153846153846156,0.8269230769230769,0.21428571428571427,0.8571428571428571,0.0004
68,1.6152177453041077,1.5540213584899902,0.38461538461538464,0.8269230769230769,0.21428571428571427,0.8571428571428571,0.0004
69,1.567250669002533,1.5544962882995605,0.38461538461538464,0.8269230769230769,0.21428571428571427,0.8571428571428571,0.0004
70,1.6268447637557983,1.5543190240859985,0.3269230769230769,0.8269230769230769,0.21428571428571427,0.8571428571428571,0.0004
71,1.6309793591499329,1.5543628931045532,0.38461538461538464,0.8269230769230769,0.21428571428571427,0.8571428571428571,0.0004
72,1.5936160683631897,1.5546785593032837,0.34615384615384615,0.8269230769230769,0.21428571428571427,0.8571428571428571,0.0004
73,1.5773708820343018,1.5543544292449951,0.36538461538461536,0.8269230769230769,0.21428571428571427,0.8571428571428571,0.0004
74,1.5585342645645142,1.554029941558838,0.3269230769230769,0.8269230769230769,0.21428571428571427,0.8571428571428571,0.0004
75,1.50640070438385,1.5536249876022339,0.4230769230769231,0.8269230769230769,0.21428571428571427,0.8571428571428571,0.0004
76,1.546165108680725,1.552849531173706,0.4807692307692308,0.8269230769230769,0.21428571428571427,0.8571428571428571,0.0004
77,1.5704193711280823,1.5520902872085571,0.36538461538461536,0.8269230769230769,0.21428571428571427,0.8571428571428571,0.0004
78,1.5431148409843445,1.5512351989746094,0.3076923076923077,0.8269230769230769,0.21428571428571427,0.8571428571428571,0.0004
79,1.5795934796333313,1.5497028827667236,0.34615384615384615,0.8269230769230769,0.21428571428571427,0.8571428571428571,0.0004
80,1.6179660558700562,1.5479631423950195,0.2692307692307692,0.8269230769230769,0.21428571428571427,0.8571428571428571,0.0004
81,1.6490902304649353,1.5457546710968018,0.28846153846153844,0.8269230769230769,0.21428571428571427,0.8571428571428571,0.0004
82,1.603250503540039,1.544104814529419,0.2692307692307692,0.8269230769230769,0.21428571428571427,0.8571428571428571,0.0004
83,1.6018632054328918,1.5425711870193481,0.36538461538461536,0.8269230769230769,0.21428571428571427,0.8571428571428571,0.0004
84,1.5662493705749512,1.5407593250274658,0.3269230769230769,0.8269230769230769,0.21428571428571427,0.8571428571428571,0.0004
85,1.5789762139320374,1.5394783020019531,0.34615384615384615,0.8269230769230769,0.21428571428571427,0.8571428571428571,0.0004
86,1.565390169620514,1.5381027460098267,0.40384615384615385,0.8269230769230769,0.21428571428571427,0.8571428571428571,0.0004
87,1.5742326974868774,1.5371325016021729,0.3269230769230769,0.8269230769230769,0.21428571428571427,0.8571428571428571,0.0004
88,1.6009880304336548,1.5360254049301147,0.4230769230769231,0.8269230769230769,0.21428571428571427,0.8571428571428571,0.0004
89,1.5851275324821472,1.5352234840393066,0.34615384615384615,0.8269230769230769,0.21428571428571427,0.8571428571428571,0.0004
90,1.6634937524795532,1.534198522567749,0.40384615384615385,0.8269230769230769,0.21428571428571427,0.8571428571428571,0.0004
91,1.5877224802970886,1.5337506532669067,0.3076923076923077,0.8269230769230769,0.21428571428571427,0.8571428571428571,0.0004
92,1.5726581811904907,1.5336127281188965,0.3076923076923077,0.8269230769230769,0.21428571428571427,0.8571428571428571,0.0004
93,1.6037174463272095,1.5334663391113281,0.38461538461538464,0.8269230769230769,0.21428571428571427,0.8571428571428571,0.0004
94,1.5917555689811707,1.5332509279251099,0.3269230769230769,0.8269230769230769,0.21428571428571427,0.8571428571428571,0.0004
95,1.5132471919059753,1.5332396030426025,0.36538461538461536,0.8269230769230769,0.21428571428571427,0.8571428571428571,0.0004
96,1.590888798236847,1.532783031463623,0.28846153846153844,0.8269230769230769,0.21428571428571427,0.8571428571428571,0.0004
97,1.5674073100090027,1.5326370000839233,0.36538461538461536,0.8269230769230769,0.21428571428571427,0.8571428571428571,0.0004
98,1.5739232301712036,1.531825065612793,0.34615384615384615,0.8269230769230769,0.21428571428571427,0.8571428571428571,0.0004
99,1.6453251242637634,1.5312801599502563,0.36538461538461536,0.8269230769230769,0.21428571428571427,0.8571428571428571,0.0004
100,1.560840368270874,1.5308243036270142,0.34615384615384615,0.8269230769230769,0.21428571428571427,0.8571428571428571,0.0004
101,1.5608588457107544,1.5301975011825562,0.3269230769230769,0.8269230769230769,0.21428571428571427,0.8571428571428571,0.0004
102,1.6150750517845154,1.5295517444610596,0.3269230769230769,0.8269230769230769,0.21428571428571427,0.8571428571428571,0.0004
103,1.6303739547729492,1.5290778875350952,0.3076923076923077,0.8269230769230769,0.21428571428571427,0.8571428571428571,0.0004
104,1.5583969950675964,1.528992772102356,0.28846153846153844,0.8269230769230769,0.21428571428571427,0.8571428571428571,0.0004
105,1.5739766359329224,1.5287715196609497,0.34615384615384615,0.8269230769230769,0.21428571428571427,0.8571428571428571,0.0004
106,1.554736077785492,1.5287888050079346,0.3269230769230769,0.8269230769230769,0.21428571428571427,0.8571428571428571,0.0004
107,1.5432639718055725,1.5285369157791138,0.40384615384615385,0.8269230769230769,0.21428571428571427,0.8571428571428571,0.0004
108,1.5786855816841125,1.5284992456436157,0.3076923076923077,0.8269230769230769,0.21428571428571427,0.8571428571428571,0.0004
109,1.5437044501304626,1.5284554958343506,0.5192307692307693,0.8269230769230769,0.21428571428571427,0.8571428571428571,0.0004
110,1.577760636806488,1.5287787914276123,0.28846153846153844,0.8269230769230769,0.21428571428571427,0.8571428571428571,0.0004
111,1.5813232064247131,1.5291354656219482,0.21153846153846154,0.8269230769230769,0.21428571428571427,0.8571428571428571,0.0004
112,1.6019704341888428,1.5295206308364868,0.25,0.8269230769230769,0.21428571428571427,0.8571428571428571,0.0004
113,1.5596008896827698,1.5302282571792603,0.38461538461538464,0.8269230769230769,0.21428571428571427,0.8571428571428571,0.0004
114,1.5908395648002625,1.5310920476913452,0.3076923076923077,0.8269230769230769,0.21428571428571427,0.8571428571428571,0.0004
115,1.5960115194320679,1.531703233718872,0.28846153846153844,0.8269230769230769,0.21428571428571427,0.8571428571428571,0.0004
116,1.5446011424064636,1.5325586795806885,0.3076923076923077,0.8269230769230769,0.21428571428571427,0.8571428571428571,0.0004
117,1.559175729751587,1.5329666137695312,0.3269230769230769,0.8269230769230769,0.21428571428571427,0.8571428571428571,0.0004
118,1.5667548775672913,1.5334118604660034,0.3076923076923077,0.8269230769230769,0.21428571428571427,0.8571428571428571,0.0004
119,1.5864816904067993,1.5337966680526733,0.28846153846153844,0.8269230769230769,0.21428571428571427,0.8571428571428571,0.0004
120,1.5982059240341187,1.5343655347824097,0.2692307692307692,0.8269230769230769,0.21428571428571427,0.8571428571428571,0.0004
121,1.545168399810791,1.5349457263946533,0.4423076923076923,0.8269230769230769,0.21428571428571427,0.8571428571428571,0.0004
122,1.6323288083076477,1.5356876850128174,0.3269230769230769,0.8269230769230769,0.21428571428571427,0.8571428571428571,0.0004
123,1.6238908171653748,1.5364007949829102,0.3076923076923077,0.8269230769230769,0.21428571428571427,0.8571428571428571,0.0004
124,1.543528974056244,1.5368809700012207,0.3076923076923077,0.8269230769230769,0.21428571428571427,0.8571428571428571,0.0004
125,1.5672763586044312,1.5370863676071167,0.4230769230769231,0.8269230769230769,0.21428571428571427,0.8571428571428571,0.0004
126,1.5843966007232666,1.5368807315826416,0.23076923076923078,0.8269230769230769,0.21428571428571427,0.8571428571428571,0.0004
127,1.5137004852294922,1.5366644859313965,0.40384615384615385,0.8269230769230769,0.21428571428571427,0.8571428571428571,0.0004
128,1.5965813398361206,1.5363925695419312,0.2692307692307692,0.8269230769230769,0.21428571428571427,0.8571428571428571,0.0004
129,1.5301413536071777,1.536069631576538,0.4423076923076923,0.8269230769230769,0.21428571428571427,0.8571428571428571,0.0004
130,1.586317539215088,1.5356526374816895,0.28846153846153844,0.8269230769230769,0.21428571428571427,0.8571428571428571,0.0004
131,1.6502360105514526,1.5349459648132324,0.3076923076923077,0.8269230769230769,0.21428571428571427,0.8571428571428571,0.0004
132,1.518349528312683,1.5344603061676025,0.4423076923076923,0.8269230769230769,0.21428571428571427,0.8571428571428571,0.0004
133,1.6180108785629272,1.534070372581482,0.3269230769230769,0.8269230769230769,0.21428571428571427,0.8571428571428571,0.0004
134,1.6297797560691833,1.5335769653320312,0.38461538461538464,0.8269230769230769,0.21428571428571427,0.8571428571428571,0.0004
135,1.5936108231544495,1.5332131385803223,0.3076923076923077,0.8269230769230769,0.21428571428571427,0.8571428571428571,0.0004
136,1.5589990615844727,1.5328030586242676,0.40384615384615385,0.8269230769230769,0.21428571428571427,0.8571428571428571,0.0004
137,1.5277906656265259,1.5321471691131592,0.34615384615384615,0.8269230769230769,0.21428571428571427,0.8571428571428571,0.0004
138,1.5411847233772278,1.5315172672271729,0.38461538461538464,0.8269230769230769,0.21428571428571427,0.8571428571428571,0.0004
139,1.555346965789795,1.531111717224121,0.34615384615384615,0.8269230769230769,0.21428571428571427,0.8571428571428571,0.0004
140,1.5633045434951782,1.5309069156646729,0.34615384615384615,0.8269230769230769,0.21428571428571427,0.8571428571428571,0.0004
141,1.623818278312683,1.5308908224105835,0.23076923076923078,0.8269230769230769,0.21428571428571427,0.8571428571428571,0.0004
142,1.5542888045310974,1.5308153629302979,0.3269230769230769,0.8269230769230769,0.21428571428571427,0.8571428571428571,0.0004
143,1.5459975600242615,1.5310001373291016,0.36538461538461536,0.8269230769230769,0.21428571428571427,0.8571428571428571,0.0004
144,1.560636579990387,1.5312213897705078,0.36538461538461536,0.8269230769230769,0.21428571428571427,0.8571428571428571,0.0004
145,1.5855889320373535,1.5315167903900146,0.34615384615384615,0.8269230769230769,0.21428571428571427,0.8571428571428571,0.0004
146,1.5602078437805176,1.5317308902740479,0.2692307692307692,0.8269230769230769,0.21428571428571427,0.8571428571428571,0.0004
147,1.6093251705169678,1.5324265956878662,0.34615384615384615,0.8269230769230769,0.21428571428571427,0.8571428571428571,0.0004
148,1.5550106763839722,1.5331735610961914,0.25,0.8269230769230769,0.21428571428571427,0.8571428571428571,0.0004
149,1.6358323097229004,1.5341041088104248,0.2692307692307692,0.8269230769230769,0.21428571428571427,0.8571428571428571,0.0004
150,1.6274234056472778,1.5349040031433105,0.34615384615384615,0.8269230769230769,0.21428571428571427,0.8571428571428571,0.0004
151,1.5886079668998718,1.5355830192565918,0.3269230769230769,0.8269230769230769,0.21428571428571427,0.8571428571428571,0.0004
152,1.5514885187149048,1.536569595336914,0.4423076923076923,0.8269230769230769,0.21428571428571427,0.8571428571428571,0.0004
153,1.608938217163086,1.5374619960784912,0.46153846153846156,0.8269230769230769,0.21428571428571427,0.8571428571428571,0.0004
154,1.6545841693878174,1.5384167432785034,0.23076923076923078,0.8269230769230769,0.21428571428571427,0.8571428571428571,0.0004
155,1.5725933909416199,1.539618730545044,0.40384615384615385,0.8269230769230769,0.21428571428571427,0.8571428571428571,0.0004
156,1.5525173544883728,1.5401233434677124,0.3076923076923077,0.8269230769230769,0.21428571428571427,0.8571428571428571,0.0004
157,1.592734158039093,1.5405056476593018,0.34615384615384615,0.8269230769230769,0.21428571428571427,0.8571428571428571,0.0004
158,1.5692324042320251,1.540543556213379,0.38461538461538464,0.8269230769230769,0.21428571428571427,0.8571428571428571,0.0004
159,1.5830297470092773,1.5403443574905396,0.3269230769230769,0.8269230769230769,0.21428571428571427,0.8571428571428571,0.0004
160,1.5474520921707153,1.5400162935256958,0.28846153846153844,0.8269230769230769,0.21428571428571427,0.8571428571428571,0.0004
161,1.5774236917495728,1.5394923686981201,0.4230769230769231,0.8269230769230769,0.21428571428571427,0.8571428571428571,0.0004
162,1.523428499698639,1.5382640361785889,0.36538461538461536,0.8269230769230769,0.21428571428571427,0.8571428571428571,0.0004
163,1.647716999053955,1.537104845046997,0.28846153846153844,0.8269230769230769,0.21428571428571427,0.8571428571428571,0.0004
164,1.5625711679458618,1.536146879196167,0.3269230769230769,0.8269230769230769,0.21428571428571427,0.8571428571428571,0.0004
165,1.5974984169006348,1.535103678703308,0.36538461538461536,0.8269230769230769,0.21428571428571427,0.8571428571428571,0.0004
166,1.5396822094917297,1.533973217010498,0.34615384615384615,0.8269230769230769,0.21428571428571427,0.8571428571428571,0.0004
167,1.554463505744934,1.53251051902771,0.3076923076923077,0.8269230769230769,0.21428571428571427,0.8571428571428571,0.0004
168,1.5579676628112793,1.5314247608184814,0.23076923076923078,0.8269230769230769,0.21428571428571427,0.8571428571428571,0.0004
169,1.504644513130188,1.530226230621338,0.4423076923076923,0.8269230769230769,0.21428571428571427,0.8571428571428571,0.0004
170,1.6021497249603271,1.5291898250579834,0.36538461538461536,0.8269230769230769,0.21428571428571427,0.8571428571428571,0.0004
171,1.5521643161773682,1.5286509990692139,0.3076923076923077,0.8269230769230769,0.21428571428571427,0.8571428571428571,0.0004
172,1.5592925548553467,1.5284039974212646,0.36538461538461536,0.8269230769230769,0.21428571428571427,0.8571428571428571,0.0004
173,1.5766651630401611,1.528261661529541,0.28846153846153844,0.8269230769230769,0.21428571428571427,0.8571428571428571,0.0004
174,1.6242549419403076,1.5283795595169067,0.3076923076923077,0.8269230769230769,0.21428571428571427,0.8571428571428571,0.0004
175,1.6245158910751343,1.5284264087677002,0.25,0.8269230769230769,0.21428571428571427,0.8571428571428571,0.0004
176,1.6051825881004333,1.528580904006958,0.40384615384615385,0.8269230769230769,0.21428571428571427,0.8571428571428571,0.0004
177,1.5582576990127563,1.5284161567687988,0.3269230769230769,0.8269230769230769,0.21428571428571427,0.8571428571428571,0.0004
178,1.6962475776672363,1.5286723375320435,0.2692307692307692,0.8269230769230769,0.21428571428571427,0.8571428571428571,0.0004
179,1.5893001556396484,1.5288681983947754,0.40384615384615385,0.8269230769230769,0.21428571428571427,0.8571428571428571,0.0004
180,1.5764514803886414,1.5292118787765503,0.4807692307692308,0.8269230769230769,0.21428571428571427,0.8571428571428571,0.0004
181,1.596283197402954,1.5296303033828735,0.21153846153846154,0.8269230769230769,0.21428571428571427,0.8571428571428571,0.0004
182,1.559008777141571,1.5304269790649414,0.34615384615384615,0.8269230769230769,0.21428571428571427,0.8571428571428571,0.0004
183,1.5642641186714172,1.5307018756866455,0.40384615384615385,0.8269230769230769,0.21428571428571427,0.8571428571428571,0.0004
184,1.6219096183776855,1.5307564735412598,0.36538461538461536,0.8269230769230769,0.21428571428571427,0.8571428571428571,0.0004
185,1.5871065855026245,1.5309906005859375,0.28846153846153844,0.8269230769230769,0.21428571428571427,0.8571428571428571,0.0004
186,1.5971075296401978,1.5310696363449097,0.3076923076923077,0.8269230769230769,0.21428571428571427,0.8571428571428571,0.0004
187,1.549557626247406,1.5309324264526367,0.38461538461538464,0.8269230769230769,0.21428571428571427,0.8571428571428571,0.0004
188,1.5517034530639648,1.5308139324188232,0.36538461538461536,0.8269230769230769,0.21428571428571427,0.8571428571428571,0.0004
189,1.5356460809707642,1.5303113460540771,0.34615384615384615,0.8269230769230769,0.21428571428571427,0.8571428571428571,0.0004
190,1.6178544759750366,1.5301494598388672,0.21153846153846154,0.8269230769230769,0.21428571428571427,0.8571428571428571,0.0004
191,1.5958108305931091,1.5303115844726562,0.34615384615384615,0.8269230769230769,0.21428571428571427,0.8571428571428571,0.0004
192,1.5936526656150818,1.5304367542266846,0.38461538461538464,0.8269230769230769,0.21428571428571427,0.8571428571428571,0.0004
193,1.547842025756836,1.530564546585083,0.34615384615384615,0.8269230769230769,0.21428571428571427,0.8571428571428571,0.0004
194,1.5725091099739075,1.53059720993042,0.4230769230769231,0.8269230769230769,0.21428571428571427,0.8571428571428571,0.0004
195,1.5634439587593079,1.5303648710250854,0.3076923076923077,0.8269230769230769,0.21428571428571427,0.8571428571428571,0.0004
196,1.544290542602539,1.5305089950561523,0.4807692307692308,0.8269230769230769,0.21428571428571427,0.8571428571428571,0.0004
197,1.609238624572754,1.5304347276687622,0.23076923076923078,0.8269230769230769,0.21428571428571427,0.8571428571428571,0.0004
198,1.5738767981529236,1.5304367542266846,0.2692307692307692,0.8269230769230769,0.21428571428571427,0.8571428571428571,0.0004
199,1.5834920406341553,1.5306296348571777,0.3269230769230769,0.8269230769230769,0.21428571428571427,0.8571428571428571,0.0004
200,1.5957252383232117,1.5310255289077759,0.28846153846153844,0.8269230769230769,0.21428571428571427,0.8571428571428571,0.0004
201,1.5925583243370056,1.531355381011963,0.40384615384615385,0.8269230769230769,0.21428571428571427,0.8571428571428571,0.0004
202,1.557526707649231,1.5313761234283447,0.3269230769230769,0.8269230769230769,0.21428571428571427,0.8571428571428571,0.0004
203,1.5173914432525635,1.531294345855713,0.40384615384615385,0.8269230769230769,0.21428571428571427,0.8571428571428571,0.0004
204,1.5897636413574219,1.5322291851043701,0.25,0.8269230769230769,0.21428571428571427,0.8571428571428571,0.0004
205,1.5866449475288391,1.5328094959259033,0.2692307692307692,0.8269230769230769,0.21428571428571427,0.8571428571428571,0.0004
206,1.5153802037239075,1.533341407775879,0.5192307692307693,0.8269230769230769,0.21428571428571427,0.8571428571428571,0.0004
207,1.6020057201385498,1.5335984230041504,0.40384615384615385,0.8269230769230769,0.21428571428571427,0.8571428571428571,0.0004
208,1.6036044359207153,1.5340301990509033,0.25,0.8269230769230769,0.21428571428571427,0.8571428571428571,0.0004
209,1.584475815296173,1.534726619720459,0.3269230769230769,0.8269230769230769,0.21428571428571427,0.8571428571428571,0.0004
210,1.5957682132720947,1.5356547832489014,0.3076923076923077,0.8269230769230769,0.21428571428571427,0.8571428571428571,0.0004
211,1.581645905971527,1.536270022392273,0.38461538461538464,0.8269230769230769,0.21428571428571427,0.8571428571428571,0.0004
212,1.5523372292518616,1.537163257598877,0.40384615384615385,0.8269230769230769,0.21428571428571427,0.8571428571428571,0.0004
213,1.5874019861221313,1.5378625392913818,0.40384615384615385,0.8269230769230769,0.21428571428571427,0.8571428571428571,0.0004
214,1.6393080949783325,1.538719654083252,0.28846153846153844,0.8269230769230769,0.21428571428571427,0.8571428571428571,0.0004
215,1.5368878841400146,1.5394513607025146,0.38461538461538464,0.8269230769230769,0.21428571428571427,0.8571428571428571,0.0004
216,1.5118123292922974,1.5401593446731567,0.4230769230769231,0.8269230769230769,0.21428571428571427,0.8571428571428571,0.0004
217,1.5510662198066711,1.541007399559021,0.4807692307692308,0.8269230769230769,0.21428571428571427,0.8571428571428571,0.0004
218,1.5911802053451538,1.5413143634796143,0.2692307692307692,0.8269230769230769,0.21428571428571427,0.8571428571428571,0.0004
219,1.5732202529907227,1.541548252105713,0.34615384615384615,0.8269230769230769,0.21428571428571427,0.8571428571428571,0.0004
220,1.6025564670562744,1.5415682792663574,0.3269230769230769,0.8269230769230769,0.21428571428571427,0.8571428571428571,0.0004
221,1.5514113903045654,1.5415527820587158,0.36538461538461536,0.8269230769230769,0.21428571428571427,0.8571428571428571,0.0004
222,1.60316002368927,1.541196346282959,0.3076923076923077,0.8269230769230769,0.21428571428571427,0.8571428571428571,0.0004
223,1.6227697134017944,1.5412342548370361,0.36538461538461536,0.8269230769230769,0.21428571428571427,0.8571428571428571,0.0004
224,1.5533642768859863,1.5409375429153442,0.4423076923076923,0.8269230769230769,0.21428571428571427,0.8571428571428571,0.0004
225,1.5561988353729248,1.5407822132110596,0.38461538461538464,0.8269230769230769,0.21428571428571427,0.8571428571428571,0.0004
226,1.5692167282104492,1.540355920791626,0.38461538461538464,0.8269230769230769,0.21428571428571427,0.8571428571428571,0.0004
227,1.6210905313491821,1.5398893356323242,0.28846153846153844,0.8269230769230769,0.21428571428571427,0.8571428571428571,0.0004
228,1.5762314796447754,1.5394296646118164,0.38461538461538464,0.8269230769230769,0.21428571428571427,0.8571428571428571,0.0004
229,1.6289674043655396,1.5386245250701904,0.36538461538461536,0.8269230769230769,0.21428571428571427,0.8571428571428571,0.0004
230,1.586914598941803,1.537949800491333,0.40384615384615385,0.8269230769230769,0.21428571428571427,0.8571428571428571,0.0004
231,1.569794476032257,1.537625789642334,0.28846153846153844,0.8269230769230769,0.21428571428571427,0.8571428571428571,0.0004
232,1.5954896807670593,1.537251591682434,0.3269230769230769,0.8269230769230769,0.21428571428571427,0.8571428571428571,0.0004
233,1.5583674311637878,1.536869764328003,0.4423076923076923,0.8269230769230769,0.21428571428571427,0.8571428571428571,0.0004
234,1.568832278251648,1.5362060070037842,0.3269230769230769,0.8269230769230769,0.21428571428571427,0.8571428571428571,0.0004
235,1.5595850348472595,1.5360232591629028,0.3076923076923077,0.8269230769230769,0.21428571428571427,0.8571428571428571,0.0004
236,1.5434297323226929,1.5355995893478394,0.3269230769230769,0.8269230769230769,0.21428571428571427,0.8571428571428571,0.0004
237,1.5742316246032715,1.5352920293807983,0.3076923076923077,0.8269230769230769,0.21428571428571427,0.8571428571428571,0.0004
238,1.5756316184997559,1.5348057746887207,0.40384615384615385,0.8269230769230769,0.21428571428571427,0.8571428571428571,0.0004
239,1.5680361986160278,1.534566879272461,0.3269230769230769,0.8269230769230769,0.21428571428571427,0.8571428571428571,0.0004
240,1.5927188396453857,1.533886432647705,0.3076923076923077,0.8269230769230769,0.21428571428571427,0.8571428571428571,0.0004
241,1.6070258021354675,1.5332121849060059,0.28846153846153844,0.8269230769230769,0.21428571428571427,0.8571428571428571,0.0004
242,1.5867722630500793,1.5329411029815674,0.3269230769230769,0.8269230769230769,0.21428571428571427,0.8571428571428571,0.0004
243,1.6117165088653564,1.5326240062713623,0.4423076923076923,0.8269230769230769,0.21428571428571427,0.8571428571428571,0.0004
244,1.5665262341499329,1.5324559211730957,0.3269230769230769,0.8269230769230769,0.21428571428571427,0.8571428571428571,0.0004
245,1.5980585813522339,1.5325994491577148,0.3076923076923077,0.8269230769230769,0.21428571428571427,0.8571428571428571,0.0004
246,1.585290014743805,1.5324532985687256,0.28846153846153844,0.8269230769230769,0.21428571428571427,0.8571428571428571,0.0004
247,1.5825980305671692,1.5330452919006348,0.3076923076923077,0.8269230769230769,0.21428571428571427,0.8571428571428571,0.0004
248,1.6150257587432861,1.533329725265503,0.25,0.8269230769230769,0.21428571428571427,0.8571428571428571,0.0004
249,1.610992670059204,1.5338568687438965,0.3269230769230769,0.8269230769230769,0.21428571428571427,0.8571428571428571,0.0004
250,1.6028802394866943,1.5346509218215942,0.36538461538461536,0.8269230769230769,0.21428571428571427,0.8571428571428571,0.0004
251,1.568474292755127,1.5353412628173828,0.36538461538461536,0.8269230769230769,0.21428571428571427,0.8571428571428571,0.0004
252,1.5629060864448547,1.5359677076339722,0.40384615384615385,0.8269230769230769,0.21428571428571427,0.8571428571428571,0.0004
253,1.5574917197227478,1.5364561080932617,0.3269230769230769,0.8269230769230769,0.21428571428571427,0.8571428571428571,0.0004
254,1.5787281394004822,1.5367612838745117,0.2692307692307692,0.8269230769230769,0.21428571428571427,0.8571428571428571,0.0004
255,1.5590972900390625,1.5367854833602905,0.4423076923076923,0.8269230769230769,0.21428571428571427,0.8571428571428571,0.0004
256,1.5541618466377258,1.5366384983062744,0.34615384615384615,0.8269230769230769,0.21428571428571427,0.8571428571428571,0.0004
257,1.601395845413208,1.5364679098129272,0.36538461538461536,0.8269230769230769,0.21428571428571427,0.8571428571428571,0.0004
258,1.5484452843666077,1.536605954170227,0.3269230769230769,0.8269230769230769,0.21428571428571427,0.8571428571428571,0.0004
259,1.5437362790107727,1.5364714860916138,0.3269230769230769,0.8269230769230769,0.21428571428571427,0.8571428571428571,0.0004
260,1.5137412548065186,1.5364333391189575,0.34615384615384615,0.8269230769230769,0.21428571428571427,0.8571428571428571,0.0004
261,1.5745366215705872,1.5364038944244385,0.34615384615384615,0.8269230769230769,0.21428571428571427,0.8571428571428571,0.0004
262,1.6127824187278748,1.5362162590026855,0.36538461538461536,0.8269230769230769,0.21428571428571427,0.8571428571428571,0.0004
263,1.5641114711761475,1.5364748239517212,0.40384615384615385,0.8269230769230769,0.21428571428571427,0.8571428571428571,0.0004
264,1.58021879196167,1.5365885496139526,0.3076923076923077,0.8269230769230769,0.21428571428571427,0.8571428571428571,0.0004
265,1.5972366333007812,1.536457896232605,0.4230769230769231,0.8269230769230769,0.21428571428571427,0.8571428571428571,0.0004
266,1.541603446006775,1.5363930463790894,0.46153846153846156,0.8269230769230769,0.21428571428571427,0.8571428571428571,0.0004
267,1.591838538646698,1.5364900827407837,0.28846153846153844,0.8269230769230769,0.21428571428571427,0.8571428571428571,0.0004
268,1.5506601929664612,1.5365736484527588,0.34615384615384615,0.8269230769230769,0.21428571428571427,0.8571428571428571,0.0004
269,1.6160672903060913,1.5366365909576416,0.2692307692307692,0.8269230769230769,0.21428571428571427,0.8571428571428571,0.0004
270,1.5345141291618347,1.5370887517929077,0.25,0.8269230769230769,0.21428571428571427,0.8571428571428571,0.0004
271,1.568673849105835,1.5372636318206787,0.36538461538461536,0.8269230769230769,0.21428571428571427,0.8571428571428571,0.0004
272,1.5826164484024048,1.537703037261963,0.4807692307692308,0.8269230769230769,0.21428571428571427,0.8571428571428571,0.0004
273,1.61258465051651,1.5380289554595947,0.5192307692307693,0.8269230769230769,0.21428571428571427,0.8571428571428571,0.0004
274,1.5744120478630066,1.5382156372070312,0.2692307692307692,0.8269230769230769,0.21428571428571427,0.8571428571428571,0.0004
275,1.5738710761070251,1.5384291410446167,0.40384615384615385,0.8269230769230769,0.21428571428571427,0.8571428571428571,0.0004
276,1.5619216561317444,1.5385401248931885,0.3076923076923077,0.8269230769230769,0.21428571428571427,0.8571428571428571,0.0004
277,1.639519214630127,1.5388200283050537,0.38461538461538464,0.8269230769230769,0.21428571428571427,0.8571428571428571,0.0004
278,1.5649713277816772,1.539093017578125,0.36538461538461536,0.8269230769230769,0.21428571428571427,0.8571428571428571,0.0004
279,1.5388277173042297,1.5394682884216309,0.40384615384615385,0.8269230769230769,0.21428571428571427,0.8571428571428571,0.0004
280,1.6470096111297607,1.5396044254302979,0.34615384615384615,0.8269230769230769,0.21428571428571427,0.8571428571428571,0.0004
281,1.5909637808799744,1.5395865440368652,0.40384615384615385,0.8269230769230769,0.21428571428571427,0.8571428571428571,0.0004
282,1.5242648124694824,1.539941430091858,0.36538461538461536,0.8269230769230769,0.21428571428571427,0.8571428571428571,0.0004
283,1.5637705326080322,1.5398907661437988,0.28846153846153844,0.8269230769230769,0.21428571428571427,0.8571428571428571,0.0004
284,1.5463752746582031,1.539113998413086,0.4230769230769231,0.8269230769230769,0.21428571428571427,0.8571428571428571,0.0004
285,1.6084935665130615,1.5382461547851562,0.3269230769230769,0.8269230769230769,0.21428571428571427,0.8571428571428571,0.0004
286,1.556965172290802,1.5375465154647827,0.2692307692307692,0.8269230769230769,0.21428571428571427,0.8571428571428571,0.0004
287,1.5681018233299255,1.5369846820831299,0.3269230769230769,0.8269230769230769,0.21428571428571427,0.8571428571428571,0.0004
288,1.5341985821723938,1.5364928245544434,0.36538461538461536,0.8269230769230769,0.21428571428571427,0.8571428571428571,0.0004
289,1.536260187625885,1.5362193584442139,0.36538461538461536,0.8269230769230769,0.21428571428571427,0.8571428571428571,0.0004
290,1.5213518142700195,1.5361104011535645,0.4807692307692308,0.8269230769230769,0.21428571428571427,0.8571428571428571,0.0004
291,1.6291988492012024,1.5357862710952759,0.3076923076923077,0.8269230769230769,0.21428571428571427,0.8571428571428571,0.0004
292,1.5552523136138916,1.5359288454055786,0.3269230769230769,0.8269230769230769,0.21428571428571427,0.8571428571428571,0.0004
293,1.5922567248344421,1.5361775159835815,0.25,0.8269230769230769,0.21428571428571427,0.8571428571428571,0.0004
294,1.559345304965973,1.5363843441009521,0.36538461538461536,0.8269230769230769,0.21428571428571427,0.8571428571428571,0.0004
295,1.5736469626426697,1.5361336469650269,0.38461538461538464,0.8269230769230769,0.21428571428571427,0.8571428571428571,0.0004
296,1.5969547629356384,1.5360138416290283,0.38461538461538464,0.8269230769230769,0.21428571428571427,0.8571428571428571,0.0004
297,1.5884523391723633,1.5360770225524902,0.38461538461538464,0.8269230769230769,0.21428571428571427,0.8571428571428571,0.0004
298,1.5085601806640625,1.5358569622039795,0.40384615384615385,0.8269230769230769,0.21428571428571427,0.8571428571428571,0.0004
299,1.5799989104270935,1.5356643199920654,0.4423076923076923,0.8269230769230769,0.21428571428571427,0.8571428571428571,0.0004
300,1.5313881039619446,1.535272479057312,0.46153846153846156,0.8269230769230769,0.21428571428571427,0.8571428571428571,0.0004
301,1.5585288405418396,1.5349228382110596,0.3269230769230769,0.8269230769230769,0.21428571428571427,0.8571428571428571,0.0004
302,1.5483145713806152,1.5346770286560059,0.2692307692307692,0.8269230769230769,0.21428571428571427,0.8571428571428571,0.0004
303,1.5901049375534058,1.5342938899993896,0.34615384615384615,0.8269230769230769,0.21428571428571427,0.8571428571428571,0.0004
304,1.5921960473060608,1.5339125394821167,0.25,0.8269230769230769,0.21428571428571427,0.8571428571428571,0.0004
305,1.5644419193267822,1.5334922075271606,0.3269230769230769,0.8269230769230769,0.21428571428571427,0.8571428571428571,0.0004
306,1.6416321992874146,1.5332472324371338,0.34615384615384615,0.8269230769230769,0.21428571428571427,0.8571428571428571,0.0004
307,1.577638328075409,1.533159852027893,0.3269230769230769,0.8269230769230769,0.21428571428571427,0.8571428571428571,0.0004
308,1.5682662725448608,1.5327600240707397,0.36538461538461536,0.8269230769230769,0.21428571428571427,0.8571428571428571,0.0004
309,1.535146713256836,1.5325145721435547,0.34615384615384615,0.8269230769230769,0.21428571428571427,0.8571428571428571,0.0004
310,1.5794736742973328,1.5323519706726074,0.36538461538461536,0.8269230769230769,0.21428571428571427,0.8571428571428571,0.0004
311,1.575558066368103,1.5323262214660645,0.46153846153846156,0.8269230769230769,0.21428571428571427,0.8571428571428571,0.0004
312,1.5654138326644897,1.5321626663208008,0.3076923076923077,0.8269230769230769,0.21428571428571427,0.8571428571428571,0.0004
313,1.5530006289482117,1.532129168510437,0.34615384615384615,0.8269230769230769,0.21428571428571427,0.8571428571428571,0.0004
314,1.5456900000572205,1.531977653503418,0.3269230769230769,0.8269230769230769,0.21428571428571427,0.8571428571428571,0.0004
315,1.5774519443511963,1.531598687171936,0.38461538461538464,0.8269230769230769,0.21428571428571427,0.8571428571428571,0.0004
316,1.5090377926826477,1.5313947200775146,0.4230769230769231,0.8269230769230769,0.21428571428571427,0.8571428571428571,0.0004
317,1.5870290994644165,1.531179666519165,0.40384615384615385,0.8269230769230769,0.21428571428571427,0.8571428571428571,0.0004
318,1.572201132774353,1.530958652496338,0.38461538461538464,0.8269230769230769,0.21428571428571427,0.8571428571428571,0.0004
319,1.5884782671928406,1.5308167934417725,0.23076923076923078,0.8269230769230769,0.21428571428571427,0.8571428571428571,0.0004
320,1.523003876209259,1.5305180549621582,0.3269230769230769,0.8269230769230769,0.21428571428571427,0.8571428571428571,0.0004
321,1.587005853652954,1.530139446258545,0.34615384615384615,0.8269230769230769,0.21428571428571427,0.8571428571428571,0.0004
322,1.5257701873779297,1.530057668685913,0.38461538461538464,0.8269230769230769,0.21428571428571427,0.8571428571428571,0.0004
323,1.5472994446754456,1.529653549194336,0.40384615384615385,0.8269230769230769,0.21428571428571427,0.8571428571428571,0.0004
324,1.6061277389526367,1.5295490026474,0.3076923076923077,0.8269230769230769,0.21428571428571427,0.8571428571428571,0.0004
325,1.5396656394004822,1.5294418334960938,0.21153846153846154,0.8269230769230769,0.21428571428571427,0.8571428571428571,0.0004
326,1.5606769919395447,1.5296170711517334,0.36538461538461536,0.8269230769230769,0.21428571428571427,0.8571428571428571,0.0004
327,1.5564093589782715,1.5296657085418701,0.4230769230769231,0.8269230769230769,0.21428571428571427,0.8571428571428571,0.0004
328,1.5471676588058472,1.52982759475708,0.4230769230769231,0.8269230769230769,0.21428571428571427,0.8571428571428571,0.0004
329,1.5504786372184753,1.5299286842346191,0.4230769230769231,0.8269230769230769,0.21428571428571427,0.8571428571428571,0.0004
330,1.5685718059539795,1.5300203561782837,0.40384615384615385,0.8269230769230769,0.21428571428571427,0.8571428571428571,0.0004
331,1.580544352531433,1.5302395820617676,0.3269230769230769,0.8269230769230769,0.21428571428571427,0.8571428571428571,0.0004
332,1.594338595867157,1.5303908586502075,0.34615384615384615,0.8269230769230769,0.21428571428571427,0.8571428571428571,0.0004
333,1.576440453529358,1.530829668045044,0.34615384615384615,0.8269230769230769,0.21428571428571427,0.8571428571428571,0.0004
334,1.5336101055145264,1.5312330722808838,0.4230769230769231,0.8269230769230769,0.21428571428571427,0.8571428571428571,0.0004
335,1.52344411611557,1.5314037799835205,0.28846153846153844,0.8269230769230769,0.21428571428571427,0.8571428571428571,0.0004
336,1.5674415826797485,1.5315754413604736,0.3269230769230769,0.8269230769230769,0.21428571428571427,0.8571428571428571,0.0004
337,1.5310231447219849,1.5319037437438965,0.38461538461538464,0.8269230769230769,0.21428571428571427,0.8571428571428571,0.0004
338,1.5528844594955444,1.5319139957427979,0.4423076923076923,0.8269230769230769,0.21428571428571427,0.8571428571428571,0.0004
339,1.5938390493392944,1.5324348211288452,0.2692307692307692,0.8269230769230769,0.21428571428571427,0.8571428571428571,0.0004
340,1.530800461769104,1.5328296422958374,0.40384615384615385,0.8269230769230769,0.21428571428571427,0.8571428571428571,0.0004
341,1.533672571182251,1.5329780578613281,0.25,0.8269230769230769,0.21428571428571427,0.8571428571428571,0.0004
342,1.5672115087509155,1.533177137374878,0.40384615384615385,0.8269230769230769,0.21428571428571427,0.8571428571428571,0.0004
343,1.5958482027053833,1.5332884788513184,0.38461538461538464,0.8269230769230769,0.21428571428571427,0.8571428571428571,0.0004
344,1.569235622882843,1.5335440635681152,0.36538461538461536,0.8269230769230769,0.21428571428571427,0.8571428571428571,0.0004
345,1.6031296849250793,1.5337002277374268,0.36538461538461536,0.8269230769230769,0.21428571428571427,0.8571428571428571,0.0004
346,1.5519684553146362,1.533997654914856,0.38461538461538464,0.8269230769230769,0.21428571428571427,0.8571428571428571,0.0004
347,1.5954193472862244,1.5342378616333008,0.3269230769230769,0.8269230769230769,0.21428571428571427,0.8571428571428571,0.0004
348,1.5395578145980835,1.5346956253051758,0.34615384615384615,0.8269230769230769,0.21428571428571427,0.8571428571428571,0.0004
349,1.6250248551368713,1.5347397327423096,0.3076923076923077,0.8269230769230769,0.21428571428571427,0.8571428571428571,0.0004
350,1.5679398775100708,1.5349359512329102,0.40384615384615385,0.8269230769230769,0.21428571428571427,0.8571428571428571,0.0004
351,1.5428339838981628,1.5353872776031494,0.36538461538461536,0.8269230769230769,0.21428571428571427,0.8571428571428571,0.0004
352,1.567176342010498,1.5355393886566162,0.4230769230769231,0.8269230769230769,0.21428571428571427,0.8571428571428571,0.0004
353,1.5257932543754578,1.535821557044983,0.4423076923076923,0.8269230769230769,0.21428571428571427,0.8571428571428571,0.0004
354,1.5477272272109985,1.5359607934951782,0.4423076923076923,0.8269230769230769,0.21428571428571427,0.8571428571428571,0.0004
355,1.6098967790603638,1.5357823371887207,0.34615384615384615,0.8269230769230769,0.21428571428571427,0.8571428571428571,0.0004
356,1.5778725147247314,1.53544282913208,0.34615384615384615,0.8269230769230769,0.21428571428571427,0.8571428571428571,0.0004
357,1.5699579119682312,1.5352256298065186,0.28846153846153844,0.8269230769230769,0.21428571428571427,0.8571428571428571,0.0004
358,1.592381775379181,1.5351438522338867,0.36538461538461536,0.8269230769230769,0.21428571428571427,0.8571428571428571,0.0004
359,1.5851853489875793,1.5343232154846191,0.3269230769230769,0.8269230769230769,0.21428571428571427,0.8571428571428571,0.0004
360,1.565799057483673,1.534042477607727,0.3269230769230769,0.8269230769230769,0.21428571428571427,0.8571428571428571,0.0004
361,1.5100352764129639,1.5334384441375732,0.40384615384615385,0.8269230769230769,0.21428571428571427,0.8571428571428571,0.0004
362,1.5686915516853333,1.53270423412323,0.34615384615384615,0.8269230769230769,0.21428571428571427,0.8571428571428571,0.0004
363,1.6008044481277466,1.5318992137908936,0.4230769230769231,0.8269230769230769,0.21428571428571427,0.8571428571428571,0.0004
364,1.5402763485908508,1.5315606594085693,0.38461538461538464,0.8269230769230769,0.21428571428571427,0.8571428571428571,0.0004
365,1.5400985479354858,1.530793309211731,0.38461538461538464,0.8269230769230769,0.21428571428571427,0.8571428571428571,0.0004
366,1.6394763588905334,1.5300517082214355,0.25,0.8269230769230769,0.21428571428571427,0.8571428571428571,0.0004
367,1.5619717240333557,1.5294544696807861,0.34615384615384615,0.8269230769230769,0.21428571428571427,0.8571428571428571,0.0004
368,1.592360258102417,1.5290772914886475,0.28846153846153844,0.8269230769230769,0.21428571428571427,0.8571428571428571,0.0004
369,1.5576893091201782,1.5285420417785645,0.4230769230769231,0.8269230769230769,0.21428571428571427,0.8571428571428571,0.0004
370,1.563498079776764,1.5280978679656982,0.3269230769230769,0.8269230769230769,0.21428571428571427,0.8571428571428571,0.0004
371,1.5704920291900635,1.52773916721344,0.2692307692307692,0.8269230769230769,0.21428571428571427,0.8571428571428571,0.0004
372,1.5642562508583069,1.5275154113769531,0.5,0.8269230769230769,0.21428571428571427,0.8571428571428571,0.0004
373,1.6354888677597046,1.5275161266326904,0.4230769230769231,0.8269230769230769,0.21428571428571427,0.8571428571428571,0.0004
374,1.5508503913879395,1.5275909900665283,0.34615384615384615,0.8269230769230769,0.21428571428571427,0.8571428571428571,0.0004
375,1.57048898935318,1.5275967121124268,0.34615384615384615,0.8269230769230769,0.21428571428571427,0.8571428571428571,0.0004
376,1.5362358689308167,1.527517318725586,0.28846153846153844,0.8269230769230769,0.21428571428571427,0.8571428571428571,0.0004
377,1.556163489818573,1.5272995233535767,0.34615384615384615,0.8269230769230769,0.21428571428571427,0.8571428571428571,0.0004
378,1.5669147968292236,1.5272421836853027,0.4423076923076923,0.8269230769230769,0.21428571428571427,0.8571428571428571,0.0004
379,1.5711607933044434,1.5273149013519287,0.3269230769230769,0.8269230769230769,0.21428571428571427,0.8571428571428571,0.0004
380,1.5523934364318848,1.5276035070419312,0.3076923076923077,0.8269230769230769,0.21428571428571427,0.8571428571428571,0.0004
381,1.6097162365913391,1.5277259349822998,0.38461538461538464,0.8269230769230769,0.21428571428571427,0.8571428571428571,0.0004
382,1.5529534220695496,1.5280377864837646,0.3076923076923077,0.8269230769230769,0.21428571428571427,0.8571428571428571,0.0004
383,1.548816204071045,1.5280705690383911,0.36538461538461536,0.8269230769230769,0.21428571428571427,0.8571428571428571,0.0004
384,1.5522154569625854,1.528111457824707,0.38461538461538464,0.8269230769230769,0.21428571428571427,0.8571428571428571,0.0004
385,1.556100845336914,1.5279796123504639,0.3076923076923077,0.8269230769230769,0.21428571428571427,0.8571428571428571,0.0004
386,1.5504281520843506,1.5279375314712524,0.2692307692307692,0.8269230769230769,0.21428571428571427,0.8571428571428571,0.0004
387,1.534220576286316,1.5277124643325806,0.4423076923076923,0.8269230769230769,0.21428571428571427,0.8571428571428571,0.0004
388,1.5829898715019226,1.5276861190795898,0.38461538461538464,0.8269230769230769,0.21428571428571427,0.8571428571428571,0.0004
389,1.5708404779434204,1.5276033878326416,0.36538461538461536,0.8269230769230769,0.21428571428571427,0.8571428571428571,0.0004
390,1.533697247505188,1.5275053977966309,0.36538461538461536,0.8269230769230769,0.21428571428571427,0.8571428571428571,0.0004
391,1.5226556658744812,1.527621865272522,0.3076923076923077,0.8269230769230769,0.21428571428571427,0.8571428571428571,0.0004
392,1.571257770061493,1.5277280807495117,0.40384615384615385,0.8269230769230769,0.21428571428571427,0.8571428571428571,0.0004
393,1.5837419033050537,1.5279512405395508,0.28846153846153844,0.8269230769230769,0.21428571428571427,0.8571428571428571,0.0004
394,1.5974539518356323,1.52827787399292,0.38461538461538464,0.8269230769230769,0.21428571428571427,0.8571428571428571,0.0004
395,1.6254878044128418,1.5285807847976685,0.34615384615384615,0.8269230769230769,0.21428571428571427,0.8571428571428571,0.0004
396,1.5562164187431335,1.5288959741592407,0.4423076923076923,0.8269230769230769,0.21428571428571427,0.8571428571428571,0.0004
397,1.534409999847412,1.5294831991195679,0.38461538461538464,0.8269230769230769,0.21428571428571427,0.8571428571428571,0.0004
398,1.5782461166381836,1.5298900604248047,0.4423076923076923,0.8269230769230769,0.21428571428571427,0.8571428571428571,0.0004
399,1.5605310201644897,1.530182123184204,0.36538461538461536,0.8269230769230769,0.21428571428571427,0.8571428571428571,0.0004
400,1.585434377193451,1.5306053161621094,0.36538461538461536,0.8269230769230769,0.21428571428571427,0.8571428571428571,0.0004
401,1.6348459124565125,1.531110405921936,0.3269230769230769,0.8269230769230769,0.21428571428571427,0.8571428571428571,0.0004
402,1.6489422917366028,1.5319185256958008,0.34615384615384615,0.8269230769230769,0.21428571428571427,0.8571428571428571,0.0004
403,1.5639718770980835,1.5324887037277222,0.36538461538461536,0.8269230769230769,0.21428571428571427,0.8571428571428571,0.0004
404,1.5886987447738647,1.5329830646514893,0.34615384615384615,0.8269230769230769,0.21428571428571427,0.8571428571428571,0.0004
405,1.587946355342865,1.5336350202560425,0.36538461538461536,0.8269230769230769,0.21428571428571427,0.8571428571428571,0.0004
406,1.5634105205535889,1.5342028141021729,0.34615384615384615,0.8269230769230769,0.21428571428571427,0.8571428571428571,0.0004
407,1.5894135236740112,1.5346378087997437,0.2692307692307692,0.8269230769230769,0.21428571428571427,0.8571428571428571,0.0004
408,1.5920727252960205,1.5350024700164795,0.3269230769230769,0.8269230769230769,0.21428571428571427,0.8571428571428571,0.0004
409,1.5627820491790771,1.5351064205169678,0.2692307692307692,0.8269230769230769,0.21428571428571427,0.8571428571428571,0.0004
410,1.5537071228027344,1.5351321697235107,0.36538461538461536,0.8269230769230769,0.21428571428571427,0.8571428571428571,0.0004
411,1.5951213240623474,1.5351890325546265,0.3269230769230769,0.8269230769230769,0.21428571428571427,0.8571428571428571,0.0004
412,1.5269429087638855,1.5350029468536377,0.4423076923076923,0.8269230769230769,0.21428571428571427,0.8571428571428571,0.0004
413,1.5732251405715942,1.534456729888916,0.4230769230769231,0.8269230769230769,0.21428571428571427,0.8571428571428571,0.0004
414,1.5601608753204346,1.5337913036346436,0.38461538461538464,0.8269230769230769,0.21428571428571427,0.8571428571428571,0.0004
415,1.590400516986847,1.5333911180496216,0.4423076923076923,0.8269230769230769,0.21428571428571427,0.8571428571428571,0.0004
416,1.6249403953552246,1.533217430114746,0.3269230769230769,0.8269230769230769,0.21428571428571427,0.8571428571428571,0.0004
417,1.518715500831604,1.532944679260254,0.28846153846153844,0.8269230769230769,0.21428571428571427,0.8571428571428571,0.0004
418,1.5988412499427795,1.532883644104004,0.23076923076923078,0.8269230769230769,0.21428571428571427,0.8571428571428571,0.0004
419,1.5852120518684387,1.5326733589172363,0.3076923076923077,0.8269230769230769,0.21428571428571427,0.8571428571428571,0.0004
420,1.5888043642044067,1.5326812267303467,0.3269230769230769,0.8269230769230769,0.21428571428571427,0.8571428571428571,0.0004
421,1.5560035705566406,1.5328296422958374,0.5,0.8269230769230769,0.21428571428571427,0.8571428571428571,0.0004
422,1.5719982981681824,1.5328013896942139,0.34615384615384615,0.8269230769230769,0.21428571428571427,0.8571428571428571,0.0004
423,1.583143711090088,1.5326844453811646,0.34615384615384615,0.8269230769230769,0.21428571428571427,0.8571428571428571,0.0004
424,1.5710199475288391,1.532701015472412,0.34615384615384615,0.8269230769230769,0.21428571428571427,0.8571428571428571,0.0004
425,1.5337198972702026,1.5326769351959229,0.3076923076923077,0.8269230769230769,0.21428571428571427,0.8571428571428571,0.0004
426,1.5887274742126465,1.5326464176177979,0.36538461538461536,0.8269230769230769,0.21428571428571427,0.8571428571428571,0.0004
427,1.6197293400764465,1.5327461957931519,0.28846153846153844,0.8269230769230769,0.21428571428571427,0.8571428571428571,0.0004
428,1.550792634487152,1.5330958366394043,0.38461538461538464,0.8269230769230769,0.21428571428571427,0.8571428571428571,0.0004
429,1.601455569267273,1.533193826675415,0.2692307692307692,0.8269230769230769,0.21428571428571427,0.8571428571428571,0.0004
430,1.5782804489135742,1.5334535837173462,0.40384615384615385,0.8269230769230769,0.21428571428571427,0.8571428571428571,0.0004
431,1.554961085319519,1.533791184425354,0.3076923076923077,0.8269230769230769,0.21428571428571427,0.8571428571428571,0.0004
432,1.623237431049347,1.5340486764907837,0.36538461538461536,0.8269230769230769,0.21428571428571427,0.8571428571428571,0.0004
433,1.5514582395553589,1.5345381498336792,0.3269230769230769,0.8269230769230769,0.21428571428571427,0.8571428571428571,0.0004
434,1.5971988439559937,1.534729242324829,0.34615384615384615,0.8269230769230769,0.21428571428571427,0.8571428571428571,0.0004
435,1.5462279319763184,1.5352659225463867,0.38461538461538464,0.8269230769230769,0.21428571428571427,0.8571428571428571,0.0004
436,1.5734484195709229,1.5353150367736816,0.38461538461538464,0.8269230769230769,0.21428571428571427,0.8571428571428571,0.0004
437,1.5494998097419739,1.535465955734253,0.36538461538461536,0.8269230769230769,0.21428571428571427,0.8571428571428571,0.0004
438,1.5855606198310852,1.5355186462402344,0.3269230769230769,0.8269230769230769,0.21428571428571427,0.8571428571428571,0.0004
439,1.566031813621521,1.5354863405227661,0.2692307692307692,0.8269230769230769,0.21428571428571427,0.8571428571428571,0.0004
440,1.5887089371681213,1.5355470180511475,0.3076923076923077,0.8269230769230769,0.21428571428571427,0.8571428571428571,0.0004
441,1.5732504725456238,1.5355408191680908,0.36538461538461536,0.8269230769230769,0.21428571428571427,0.8571428571428571,0.0004
442,1.579336404800415,1.5354446172714233,0.4423076923076923,0.8269230769230769,0.21428571428571427,0.8571428571428571,0.0004
443,1.5691872835159302,1.535284399986267,0.34615384615384615,0.8269230769230769,0.21428571428571427,0.8571428571428571,0.0004
444,1.5493299961090088,1.53529953956604,0.34615384615384615,0.8269230769230769,0.21428571428571427,0.8571428571428571,0.0004
445,1.5303136706352234,1.535421371459961,0.40384615384615385,0.8269230769230769,0.21428571428571427,0.8571428571428571,0.0004
446,1.566171407699585,1.535632848739624,0.38461538461538464,0.8269230769230769,0.21428571428571427,0.8571428571428571,0.0004
447,1.5809632539749146,1.5358924865722656,0.40384615384615385,0.8269230769230769,0.21428571428571427,0.8571428571428571,0.0004
448,1.5547690391540527,1.5363423824310303,0.36538461538461536,0.8269230769230769,0.21428571428571427,0.8571428571428571,0.0004
449,1.5869731307029724,1.5367707014083862,0.36538461538461536,0.8269230769230769,0.21428571428571427,0.8571428571428571,0.0004
450,1.5142033100128174,1.5373401641845703,0.34615384615384615,0.8269230769230769,0.21428571428571427,0.8571428571428571,0.0004
451,1.5126317739486694,1.5377123355865479,0.38461538461538464,0.8269230769230769,0.21428571428571427,0.8571428571428571,0.0004
452,1.5862480401992798,1.5381604433059692,0.3269230769230769,0.8269230769230769,0.21428571428571427,0.8571428571428571,0.0004
453,1.5859069228172302,1.5385440587997437,0.40384615384615385,0.8269230769230769,0.21428571428571427,0.8571428571428571,0.0004
454,1.5656865239143372,1.5389745235443115,0.34615384615384615,0.8269230769230769,0.21428571428571427,0.8571428571428571,0.0004
455,1.5682401061058044,1.539233922958374,0.34615384615384615,0.8269230769230769,0.21428571428571427,0.8571428571428571,0.0004
456,1.6439208984375,1.5394062995910645,0.3076923076923077,0.8269230769230769,0.21428571428571427,0.8571428571428571,0.0004
457,1.5538724064826965,1.539667010307312,0.36538461538461536,0.8269230769230769,0.21428571428571427,0.8571428571428571,0.0004
458,1.563408374786377,1.5397217273712158,0.34615384615384615,0.8269230769230769,0.21428571428571427,0.8571428571428571,0.0004
459,1.5454490780830383,1.5398648977279663,0.28846153846153844,0.8269230769230769,0.21428571428571427,0.8571428571428571,0.0004
460,1.588869333267212,1.5398428440093994,0.3076923076923077,0.8269230769230769,0.21428571428571427,0.8571428571428571,0.0004
461,1.5461031198501587,1.5396119356155396,0.3076923076923077,0.8269230769230769,0.21428571428571427,0.8571428571428571,0.0004
462,1.5475658178329468,1.539658546447754,0.40384615384615385,0.8269230769230769,0.21428571428571427,0.8571428571428571,0.0004
463,1.5681110620498657,1.5396184921264648,0.40384615384615385,0.8269230769230769,0.21428571428571427,0.8571428571428571,0.0004
464,1.549142837524414,1.5393121242523193,0.38461538461538464,0.8269230769230769,0.21428571428571427,0.8571428571428571,0.0004
465,1.5807785987854004,1.5389484167099,0.34615384615384615,0.8269230769230769,0.21428571428571427,0.8571428571428571,0.0004
466,1.6119242906570435,1.5384777784347534,0.3269230769230769,0.8269230769230769,0.21428571428571427,0.8571428571428571,0.0004
467,1.6067461967468262,1.5383203029632568,0.3269230769230769,0.8269230769230769,0.21428571428571427,0.8571428571428571,0.0004
468,1.6218942403793335,1.5379958152770996,0.3076923076923077,0.8269230769230769,0.21428571428571427,0.8571428571428571,0.0004
469,1.5762105584144592,1.5378059148788452,0.25,0.8269230769230769,0.21428571428571427,0.8571428571428571,0.0004
470,1.577649474143982,1.5376343727111816,0.3076923076923077,0.8269230769230769,0.21428571428571427,0.8571428571428571,0.0004
471,1.5562299489974976,1.5374171733856201,0.40384615384615385,0.8269230769230769,0.21428571428571427,0.8571428571428571,0.0004
472,1.5729469656944275,1.537183403968811,0.40384615384615385,0.8269230769230769,0.21428571428571427,0.8571428571428571,0.0004
473,1.5626157522201538,1.5367887020111084,0.34615384615384615,0.8269230769230769,0.21428571428571427,0.8571428571428571,0.0004
474,1.5369940400123596,1.5363013744354248,0.34615384615384615,0.8269230769230769,0.21428571428571427,0.8571428571428571,0.0004
475,1.4985403418540955,1.5357627868652344,0.4423076923076923,0.8269230769230769,0.21428571428571427,0.8571428571428571,0.0004
476,1.5246561169624329,1.5351841449737549,0.3076923076923077,0.8269230769230769,0.21428571428571427,0.8571428571428571,0.0004
477,1.4924633502960205,1.5346184968948364,0.3269230769230769,0.8269230769230769,0.21428571428571427,0.8571428571428571,0.0004
478,1.6195287108421326,1.5339971780776978,0.34615384615384615,0.8269230769230769,0.21428571428571427,0.8571428571428571,0.0004
479,1.615466833114624,1.5335426330566406,0.36538461538461536,0.8269230769230769,0.21428571428571427,0.8571428571428571,0.0004
480,1.575748085975647,1.5331484079360962,0.3269230769230769,0.8269230769230769,0.21428571428571427,0.8571428571428571,0.0004
481,1.545488178730011,1.5327872037887573,0.38461538461538464,0.8269230769230769,0.21428571428571427,0.8571428571428571,0.0004
482,1.5442414283752441,1.5324128866195679,0.4230769230769231,0.8269230769230769,0.21428571428571427,0.8571428571428571,0.0004
483,1.590355396270752,1.5320125818252563,0.36538461538461536,0.8269230769230769,0.21428571428571427,0.8571428571428571,0.0004
484,1.5963796973228455,1.5318599939346313,0.3269230769230769,0.8269230769230769,0.21428571428571427,0.8571428571428571,0.0004
485,1.6090153455734253,1.531907081604004,0.28846153846153844,0.8269230769230769,0.21428571428571427,0.8571428571428571,0.0004
486,1.5804322361946106,1.5319201946258545,0.21153846153846154,0.8269230769230769,0.21428571428571427,0.8571428571428571,0.0004
487,1.5364901423454285,1.531847357749939,0.38461538461538464,0.8269230769230769,0.21428571428571427,0.8571428571428571,0.0004
488,1.6046342849731445,1.531837821006775,0.36538461538461536,0.8269230769230769,0.21428571428571427,0.8571428571428571,0.0004
489,1.5676515102386475,1.5318892002105713,0.38461538461538464,0.8269230769230769,0.21428571428571427,0.8571428571428571,0.0004
490,1.6012779474258423,1.5320382118225098,0.25,0.8269230769230769,0.21428571428571427,0.8571428571428571,0.0004
491,1.6016986966133118,1.5322363376617432,0.2692307692307692,0.8269230769230769,0.21428571428571427,0.8571428571428571,0.0004
492,1.5883382558822632,1.5324299335479736,0.36538461538461536,0.8269230769230769,0.21428571428571427,0.8571428571428571,0.0004
493,1.5535809397697449,1.5326226949691772,0.3076923076923077,0.8269230769230769,0.21428571428571427,0.8571428571428571,0.0004
494,1.5251320600509644,1.5326899290084839,0.3076923076923077,0.8269230769230769,0.21428571428571427,0.8571428571428571,0.0004
495,1.5776049494743347,1.532904863357544,0.34615384615384615,0.8269230769230769,0.21428571428571427,0.8571428571428571,0.0004
496,1.583870530128479,1.5329616069793701,0.3076923076923077,0.8269230769230769,0.21428571428571427,0.8571428571428571,0.0004
497,1.5810625553131104,1.5333003997802734,0.3076923076923077,0.8269230769230769,0.21428571428571427,0.8571428571428571,0.0004
498,1.509861707687378,1.5335625410079956,0.4807692307692308,0.8269230769230769,0.21428571428571427,0.8571428571428571,0.0004
499,1.601852297782898,1.5335372686386108,0.34615384615384615,0.8269230769230769,0.21428571428571427,0.8571428571428571,0.0004
500,1.5553697347640991,1.5337560176849365,0.40384615384615385,0.8269230769230769,0.21428571428571427,0.8571428571428571,0.0004
501,1.5629054307937622,1.533857822418213,0.36538461538461536,0.8269230769230769,0.21428571428571427,0.8571428571428571,0.0004
502,1.5482906699180603,1.5339970588684082,0.3269230769230769,0.8269230769230769,0.21428571428571427,0.8571428571428571,0.0004
503,1.5654303431510925,1.5340559482574463,0.4230769230769231,0.8269230769230769,0.21428571428571427,0.8571428571428571,0.0004
504,1.601957619190216,1.5341269969940186,0.36538461538461536,0.8269230769230769,0.21428571428571427,0.8571428571428571,0.0004
505,1.5788592100143433,1.534304141998291,0.4230769230769231,0.8269230769230769,0.21428571428571427,0.8571428571428571,0.0004
506,1.5232071280479431,1.5345796346664429,0.38461538461538464,0.8269230769230769,0.21428571428571427,0.8571428571428571,0.0004
507,1.5671806335449219,1.534833312034607,0.3269230769230769,0.8269230769230769,0.21428571428571427,0.8571428571428571,0.0004
508,1.60880446434021,1.5348029136657715,0.34615384615384615,0.8269230769230769,0.21428571428571427,0.8571428571428571,0.0004
509,1.6006379127502441,1.5349748134613037,0.38461538461538464,0.8269230769230769,0.21428571428571427,0.8571428571428571,0.0004
510,1.5911632180213928,1.5352063179016113,0.3269230769230769,0.8269230769230769,0.21428571428571427,0.8571428571428571,0.0004
511,1.5511446595191956,1.5353131294250488,0.38461538461538464,0.8269230769230769,0.21428571428571427,0.8571428571428571,0.0004
512,1.5508239269256592,1.5354214906692505,0.3076923076923077,0.8269230769230769,0.21428571428571427,0.8571428571428571,0.0004
513,1.5981343984603882,1.535405158996582,0.3076923076923077,0.8269230769230769,0.21428571428571427,0.8571428571428571,0.0004
514,1.5705175995826721,1.5354504585266113,0.40384615384615385,0.8269230769230769,0.21428571428571427,0.8571428571428571,0.0004
515,1.570419430732727,1.5355385541915894,0.34615384615384615,0.8269230769230769,0.21428571428571427,0.8571428571428571,0.0004
516,1.5664485692977905,1.5356616973876953,0.40384615384615385,0.8269230769230769,0.21428571428571427,0.8571428571428571,0.0004
517,1.5785481929779053,1.5357489585876465,0.40384615384615385,0.8269230769230769,0.21428571428571427,0.8571428571428571,0.0004
518,1.542802095413208,1.5358467102050781,0.4423076923076923,0.8269230769230769,0.21428571428571427,0.8571428571428571,0.0004
519,1.590473473072052,1.5359009504318237,0.36538461538461536,0.8269230769230769,0.21428571428571427,0.8571428571428571,0.0004
520,1.5637177228927612,1.5358984470367432,0.34615384615384615,0.8269230769230769,0.21428571428571427,0.8571428571428571,0.0004
521,1.54970383644104,1.535784363746643,0.34615384615384615,0.8269230769230769,0.21428571428571427,0.8571428571428571,0.0004
522,1.5393224358558655,1.5356218814849854,0.34615384615384615,0.8269230769230769,0.21428571428571427,0.8571428571428571,0.0004
523,1.5546971559524536,1.5351922512054443,0.3269230769230769,0.8269230769230769,0.21428571428571427,0.8571428571428571,0.0004
524,1.5591304898262024,1.5346505641937256,0.40384615384615385,0.8269230769230769,0.21428571428571427,0.8571428571428571,0.0004
525,1.550538420677185,1.5342462062835693,0.28846153846153844,0.8269230769230769,0.21428571428571427,0.8571428571428571,0.0004
526,1.570908546447754,1.534071683883667,0.36538461538461536,0.8269230769230769,0.21428571428571427,0.8571428571428571,0.0004
527,1.583978295326233,1.5337905883789062,0.28846153846153844,0.8269230769230769,0.21428571428571427,0.8571428571428571,0.0004
528,1.5434004068374634,1.5336060523986816,0.3076923076923077,0.8269230769230769,0.21428571428571427,0.8571428571428571,0.0004
529,1.5674006938934326,1.533360481262207,0.38461538461538464,0.8269230769230769,0.21428571428571427,0.8571428571428571,0.0004
530,1.5631753206253052,1.5331528186798096,0.3269230769230769,0.8269230769230769,0.21428571428571427,0.8571428571428571,0.0004
531,1.6106130480766296,1.5329926013946533,0.36538461538461536,0.8269230769230769,0.21428571428571427,0.8571428571428571,0.0004
532,1.5020098090171814,1.533036231994629,0.38461538461538464,0.8269230769230769,0.21428571428571427,0.8571428571428571,0.0004
533,1.590451180934906,1.5329983234405518,0.3269230769230769,0.8269230769230769,0.21428571428571427,0.8571428571428571,0.0004
534,1.5939497351646423,1.532923936843872,0.36538461538461536,0.8269230769230769,0.21428571428571427,0.8571428571428571,0.0004
535,1.5671958327293396,1.5329798460006714,0.36538461538461536,0.8269230769230769,0.21428571428571427,0.8571428571428571,0.0004
536,1.5815070271492004,1.5329440832138062,0.28846153846153844,0.8269230769230769,0.21428571428571427,0.8571428571428571,0.0004
537,1.5420300364494324,1.5328631401062012,0.40384615384615385,0.8269230769230769,0.21428571428571427,0.8571428571428571,0.0004
538,1.5125882029533386,1.5325807332992554,0.4230769230769231,0.8269230769230769,0.21428571428571427,0.8571428571428571,0.0004
539,1.5346515774726868,1.5323607921600342,0.38461538461538464,0.8269230769230769,0.21428571428571427,0.8571428571428571,0.0004
540,1.6565581560134888,1.5320823192596436,0.2692307692307692,0.8269230769230769,0.21428571428571427,0.8571428571428571,0.0004
541,1.597578227519989,1.5319041013717651,0.3269230769230769,0.8269230769230769,0.21428571428571427,0.8571428571428571,0.0004
542,1.5647477507591248,1.5317471027374268,0.3269230769230769,0.8269230769230769,0.21428571428571427,0.8571428571428571,0.0004
543,1.6234305500984192,1.5316531658172607,0.36538461538461536,0.8269230769230769,0.21428571428571427,0.8571428571428571,0.0004
544,1.5748878121376038,1.5317460298538208,0.4230769230769231,0.8269230769230769,0.21428571428571427,0.8571428571428571,0.0004
545,1.4897037148475647,1.5317199230194092,0.3269230769230769,0.8269230769230769,0.21428571428571427,0.8571428571428571,0.0004
546,1.5481983423233032,1.5319136381149292,0.3269230769230769,0.8269230769230769,0.21428571428571427,0.8571428571428571,0.0004
547,1.5242433547973633,1.5319269895553589,0.34615384615384615,0.8269230769230769,0.21428571428571427,0.8571428571428571,0.0004
548,1.5587534308433533,1.5319979190826416,0.3076923076923077,0.8269230769230769,0.21428571428571427,0.8571428571428571,0.0004
549,1.5730299949645996,1.531805157661438,0.46153846153846156,0.8269230769230769,0.21428571428571427,0.8571428571428571,0.0004
550,1.5596956014633179,1.5318007469177246,0.36538461538461536,0.8269230769230769,0.21428571428571427,0.8571428571428571,0.0004
551,1.567026674747467,1.5317021608352661,0.4230769230769231,0.8269230769230769,0.21428571428571427,0.8571428571428571,0.0004
552,1.5816971063613892,1.5315971374511719,0.3269230769230769,0.8269230769230769,0.21428571428571427,0.8571428571428571,0.0004
553,1.5797770023345947,1.5314723253250122,0.4230769230769231,0.8269230769230769,0.21428571428571427,0.8571428571428571,0.0004
554,1.5655580759048462,1.5313396453857422,0.36538461538461536,0.8269230769230769,0.21428571428571427,0.8571428571428571,0.0004
555,1.5521917343139648,1.5311570167541504,0.4423076923076923,0.8269230769230769,0.21428571428571427,0.8571428571428571,0.0004
556,1.5356349349021912,1.5309979915618896,0.28846153846153844,0.8269230769230769,0.21428571428571427,0.8571428571428571,0.0004
557,1.5304401516914368,1.5309076309204102,0.3076923076923077,0.8269230769230769,0.21428571428571427,0.8571428571428571,0.0004
558,1.5453835725784302,1.530930757522583,0.40384615384615385,0.8269230769230769,0.21428571428571427,0.8571428571428571,0.0004
559,1.546890139579773,1.5309414863586426,0.3076923076923077,0.8269230769230769,0.21428571428571427,0.8571428571428571,0.0004
560,1.5880340337753296,1.5309371948242188,0.3076923076923077,0.8269230769230769,0.21428571428571427,0.8571428571428571,0.0004
561,1.573042094707489,1.5309809446334839,0.3269230769230769,0.8269230769230769,0.21428571428571427,0.8571428571428571,0.0004
562,1.527232825756073,1.5311309099197388,0.36538461538461536,0.8269230769230769,0.21428571428571427,0.8571428571428571,0.0004
563,1.6405821442604065,1.5313996076583862,0.36538461538461536,0.8269230769230769,0.21428571428571427,0.8571428571428571,0.0004
564,1.527439534664154,1.531581163406372,0.34615384615384615,0.8269230769230769,0.21428571428571427,0.8571428571428571,0.0004
565,1.5744750499725342,1.531907320022583,0.40384615384615385,0.8269230769230769,0.21428571428571427,0.8571428571428571,0.0004
566,1.5673243999481201,1.5321115255355835,0.3076923076923077,0.8269230769230769,0.21428571428571427,0.8571428571428571,0.0004
567,1.5472986102104187,1.5324208736419678,0.38461538461538464,0.8269230769230769,0.21428571428571427,0.8571428571428571,0.0004
568,1.5956263542175293,1.5326015949249268,0.36538461538461536,0.8269230769230769,0.21428571428571427,0.8571428571428571,0.0004
569,1.5174694657325745,1.5327105522155762,0.4423076923076923,0.8269230769230769,0.21428571428571427,0.8571428571428571,0.0004
570,1.6070411205291748,1.5326690673828125,0.2692307692307692,0.8269230769230769,0.21428571428571427,0.8571428571428571,0.0004
571,1.533528745174408,1.5326005220413208,0.38461538461538464,0.8269230769230769,0.21428571428571427,0.8571428571428571,0.0004
572,1.5660923719406128,1.5324712991714478,0.36538461538461536,0.8269230769230769,0.21428571428571427,0.8571428571428571,0.0004
573,1.5617445707321167,1.5324513912200928,0.38461538461538464,0.8269230769230769,0.21428571428571427,0.8571428571428571,0.0004
574,1.562759280204773,1.5325103998184204,0.40384615384615385,0.8269230769230769,0.21428571428571427,0.8571428571428571,0.0004
575,1.5527802109718323,1.5326305627822876,0.40384615384615385,0.8269230769230769,0.21428571428571427,0.8571428571428571,0.0004
576,1.5256761312484741,1.532346248626709,0.4230769230769231,0.8269230769230769,0.21428571428571427,0.8571428571428571,0.0004
577,1.6030763387680054,1.532277226448059,0.40384615384615385,0.8269230769230769,0.21428571428571427,0.8571428571428571,0.0004
578,1.5725428462028503,1.5322864055633545,0.34615384615384615,0.8269230769230769,0.21428571428571427,0.8571428571428571,0.0004
579,1.5372940301895142,1.532209873199463,0.38461538461538464,0.8269230769230769,0.21428571428571427,0.8571428571428571,0.0004
580,1.6414850354194641,1.5319979190826416,0.40384615384615385,0.8269230769230769,0.21428571428571427,0.8571428571428571,0.0004
581,1.6171066164970398,1.5319164991378784,0.2692307692307692,0.8269230769230769,0.21428571428571427,0.8571428571428571,0.0004
582,1.5298218131065369,1.532142162322998,0.36538461538461536,0.8269230769230769,0.21428571428571427,0.8571428571428571,0.0004
583,1.5427938103675842,1.5322515964508057,0.3269230769230769,0.8269230769230769,0.21428571428571427,0.8571428571428571,0.0004
584,1.542296826839447,1.5319883823394775,0.4230769230769231,0.8269230769230769,0.21428571428571427,0.8571428571428571,0.0004
585,1.5924354791641235,1.5317481756210327,0.46153846153846156,0.8269230769230769,0.21428571428571427,0.8571428571428571,0.0004
586,1.5988776683807373,1.5316298007965088,0.36538461538461536,0.8269230769230769,0.21428571428571427,0.8571428571428571,0.0004
587,1.575917363166809,1.5316797494888306,0.2692307692307692,0.8269230769230769,0.21428571428571427,0.8571428571428571,0.0004
588,1.564669668674469,1.5317699909210205,0.21153846153846154,0.8269230769230769,0.21428571428571427,0.8571428571428571,0.0004
589,1.5764763951301575,1.5318236351013184,0.34615384615384615,0.8269230769230769,0.21428571428571427,0.8571428571428571,0.0004
590,1.5727192163467407,1.5317527055740356,0.4423076923076923,0.8269230769230769,0.21428571428571427,0.8571428571428571,0.0004
591,1.5244280695915222,1.5317490100860596,0.36538461538461536,0.8269230769230769,0.21428571428571427,0.8571428571428571,0.0004
592,1.5845339894294739,1.5314732789993286,0.34615384615384615,0.8269230769230769,0.21428571428571427,0.8571428571428571,0.0004
593,1.5526399612426758,1.5315251350402832,0.36538461538461536,0.8269230769230769,0.21428571428571427,0.8571428571428571,0.0004
594,1.5589483380317688,1.5312209129333496,0.3076923076923077,0.8269230769230769,0.21428571428571427,0.8571428571428571,0.0004
595,1.5739330649375916,1.5312120914459229,0.25,0.8269230769230769,0.21428571428571427,0.8571428571428571,0.0004
596,1.5399776101112366,1.5310121774673462,0.36538461538461536,0.8269230769230769,0.21428571428571427,0.8571428571428571,0.0004
597,1.554192841053009,1.531022310256958,0.3269230769230769,0.8269230769230769,0.21428571428571427,0.8571428571428571,0.0004
598,1.5098053812980652,1.5309767723083496,0.36538461538461536,0.8269230769230769,0.21428571428571427,0.8571428571428571,0.0004
599,1.546388328075409,1.530895709991455,0.28846153846153844,0.8269230769230769,0.21428571428571427,0.8571428571428571,0.0004
600,1.6031421422958374,1.531008005142212,0.38461538461538464,0.8269230769230769,0.21428571428571427,0.8571428571428571,0.0004
601,1.5283129215240479,1.5313388109207153,0.34615384615384615,0.8269230769230769,0.21428571428571427,0.8571428571428571,0.0004
602,1.5414651036262512,1.53140389919281,0.46153846153846156,0.8269230769230769,0.21428571428571427,0.8571428571428571,0.0004
603,1.5690168142318726,1.5317906141281128,0.4423076923076923,0.8269230769230769,0.21428571428571427,0.8571428571428571,0.0004
604,1.5867480635643005,1.5317379236221313,0.2692307692307692,0.8269230769230769,0.21428571428571427,0.8571428571428571,0.0004
605,1.5880380868911743,1.531844139099121,0.46153846153846156,0.8269230769230769,0.21428571428571427,0.8571428571428571,0.0004
606,1.5356950163841248,1.5319870710372925,0.38461538461538464,0.8269230769230769,0.21428571428571427,0.8571428571428571,0.0004
607,1.6165996193885803,1.53214430809021,0.28846153846153844,0.8269230769230769,0.21428571428571427,0.8571428571428571,0.0004
608,1.5419793725013733,1.5322566032409668,0.40384615384615385,0.8269230769230769,0.21428571428571427,0.8571428571428571,0.0004
609,1.6423085927963257,1.532392144203186,0.2692307692307692,0.8269230769230769,0.21428571428571427,0.8571428571428571,0.0004
610,1.5333904027938843,1.5328383445739746,0.46153846153846156,0.8269230769230769,0.21428571428571427,0.8571428571428571,0.0004
611,1.552031695842743,1.5330023765563965,0.4423076923076923,0.8269230769230769,0.21428571428571427,0.8571428571428571,0.0004
612,1.5364506244659424,1.533199667930603,0.4230769230769231,0.8269230769230769,0.21428571428571427,0.8571428571428571,0.0004
613,1.5903276205062866,1.5332727432250977,0.34615384615384615,0.8269230769230769,0.21428571428571427,0.8571428571428571,0.0004
614,1.5573999881744385,1.534351110458374,0.3076923076923077,0.8269230769230769,0.21428571428571427,0.8571428571428571,0.0004
615,1.567186713218689,1.5350329875946045,0.38461538461538464,0.8269230769230769,0.21428571428571427,0.8571428571428571,0.0004
616,1.577547013759613,1.5356013774871826,0.34615384615384615,0.8269230769230769,0.21428571428571427,0.8571428571428571,0.0004
617,1.5750793814659119,1.5364553928375244,0.40384615384615385,0.8269230769230769,0.21428571428571427,0.8571428571428571,0.0004
618,1.6430018544197083,1.5368053913116455,0.40384615384615385,0.8269230769230769,0.21428571428571427,0.8571428571428571,0.0004
619,1.6365965008735657,1.5372579097747803,0.28846153846153844,0.8269230769230769,0.21428571428571427,0.8571428571428571,0.0004
620,1.6009876728057861,1.537724494934082,0.3076923076923077,0.8269230769230769,0.21428571428571427,0.8571428571428571,0.0004
621,1.5897740125656128,1.5383052825927734,0.38461538461538464,0.8269230769230769,0.21428571428571427,0.8571428571428571,0.0004
622,1.5882659554481506,1.5388777256011963,0.3269230769230769,0.8269230769230769,0.21428571428571427,0.8571428571428571,0.0004
623,1.5480903387069702,1.5393272638320923,0.36538461538461536,0.8269230769230769,0.21428571428571427,0.8571428571428571,0.0004
624,1.5873435735702515,1.5398567914962769,0.36538461538461536,0.8269230769230769,0.21428571428571427,0.8571428571428571,0.0004
625,1.5847910046577454,1.5402641296386719,0.40384615384615385,0.8269230769230769,0.21428571428571427,0.8571428571428571,0.0004
626,1.5890880227088928,1.5409799814224243,0.40384615384615385,0.8269230769230769,0.21428571428571427,0.8571428571428571,0.0004
627,1.6137603521347046,1.5417625904083252,0.3076923076923077,0.8269230769230769,0.21428571428571427,0.8571428571428571,0.0004
628,1.566358506679535,1.54233717918396,0.34615384615384615,0.8269230769230769,0.21428571428571427,0.8571428571428571,0.0004
629,1.566936194896698,1.542937159538269,0.38461538461538464,0.8269230769230769,0.21428571428571427,0.8571428571428571,0.0004
630,1.5435085892677307,1.5430325269699097,0.36538461538461536,0.8269230769230769,0.21428571428571427,0.8571428571428571,0.0004
631,1.5765206813812256,1.5430759191513062,0.34615384615384615,0.8269230769230769,0.21428571428571427,0.8571428571428571,0.0004
632,1.5747694969177246,1.543001413345337,0.36538461538461536,0.8269230769230769,0.21428571428571427,0.8571428571428571,0.0004
633,1.601608157157898,1.543201208114624,0.36538461538461536,0.8269230769230769,0.21428571428571427,0.8571428571428571,0.0004
634,1.5773431658744812,1.5430617332458496,0.40384615384615385,0.8269230769230769,0.21428571428571427,0.8571428571428571,0.0004
635,1.5742051005363464,1.5430718660354614,0.36538461538461536,0.8269230769230769,0.21428571428571427,0.8571428571428571,0.0004
636,1.5798931121826172,1.5430128574371338,0.34615384615384615,0.8269230769230769,0.21428571428571427,0.8571428571428571,0.0004
637,1.5763882398605347,1.5428924560546875,0.40384615384615385,0.8269230769230769,0.21428571428571427,0.8571428571428571,0.0004
638,1.544783890247345,1.5429376363754272,0.3269230769230769,0.8269230769230769,0.21428571428571427,0.8571428571428571,0.0004
639,1.5682708024978638,1.5424987077713013,0.38461538461538464,0.8269230769230769,0.21428571428571427,0.8571428571428571,0.0004
640,1.5609397888183594,1.5422147512435913,0.40384615384615385,0.8269230769230769,0.21428571428571427,0.8571428571428571,0.0004
641,1.5761798620224,1.5425329208374023,0.3269230769230769,0.8269230769230769,0.21428571428571427,0.8571428571428571,0.0004
642,1.5176711678504944,1.5417706966400146,0.34615384615384615,0.8269230769230769,0.21428571428571427,0.8571428571428571,0.0004
643,1.5421644449234009,1.5413987636566162,0.38461538461538464,0.8269230769230769,0.21428571428571427,0.8571428571428571,0.0004
644,1.5709568858146667,1.5410672426223755,0.38461538461538464,0.8269230769230769,0.21428571428571427,0.8571428571428571,0.0004
645,1.5554559230804443,1.5404675006866455,0.40384615384615385,0.8269230769230769,0.21428571428571427,0.8571428571428571,0.0004
646,1.5869394540786743,1.5395219326019287,0.36538461538461536,0.8269230769230769,0.21428571428571427,0.8571428571428571,0.0004
647,1.5573252439498901,1.5389444828033447,0.36538461538461536,0.8269230769230769,0.21428571428571427,0.8571428571428571,0.0004
648,1.567991018295288,1.5388869047164917,0.38461538461538464,0.8269230769230769,0.21428571428571427,0.8571428571428571,0.0004
649,1.57399183511734,1.5381933450698853,0.40384615384615385,0.8269230769230769,0.21428571428571427,0.8571428571428571,0.0004
650,1.54759019613266,1.5377976894378662,0.3076923076923077,0.8269230769230769,0.21428571428571427,0.8571428571428571,0.0004
651,1.5746835470199585,1.5372660160064697,0.36538461538461536,0.8269230769230769,0.21428571428571427,0.8571428571428571,0.0004
652,1.5914846658706665,1.5371572971343994,0.2692307692307692,0.8269230769230769,0.21428571428571427,0.8571428571428571,0.0004
653,1.6028672456741333,1.5367716550827026,0.38461538461538464,0.8269230769230769,0.21428571428571427,0.8571428571428571,0.0004
654,1.5409018397331238,1.5361483097076416,0.38461538461538464,0.8269230769230769,0.21428571428571427,0.8571428571428571,0.0004
655,1.6079119443893433,1.5357091426849365,0.34615384615384615,0.8269230769230769,0.21428571428571427,0.8571428571428571,0.0004
656,1.5629633665084839,1.5354084968566895,0.38461538461538464,0.8269230769230769,0.21428571428571427,0.8571428571428571,0.0004
657,1.594693124294281,1.5356439352035522,0.3269230769230769,0.8269230769230769,0.21428571428571427,0.8571428571428571,0.0004
658,1.5354346632957458,1.5359764099121094,0.38461538461538464,0.8269230769230769,0.21428571428571427,0.8571428571428571,0.0004
659,1.546750247478485,1.5363359451293945,0.36538461538461536,0.8269230769230769,0.21428571428571427,0.8571428571428571,0.0004
660,1.5617756247520447,1.5365264415740967,0.46153846153846156,0.8269230769230769,0.21428571428571427,0.8571428571428571,0.0004
661,1.5848166942596436,1.536881685256958,0.3269230769230769,0.8269230769230769,0.21428571428571427,0.8571428571428571,0.0004
662,1.6025161743164062,1.5370967388153076,0.3269230769230769,0.8269230769230769,0.21428571428571427,0.8571428571428571,0.0004
663,1.525479793548584,1.5377839803695679,0.4230769230769231,0.8269230769230769,0.21428571428571427,0.8571428571428571,0.0004
664,1.6059677600860596,1.537128210067749,0.3076923076923077,0.8269230769230769,0.21428571428571427,0.8571428571428571,0.0004
665,1.5669437646865845,1.5369055271148682,0.3076923076923077,0.8269230769230769,0.21428571428571427,0.8571428571428571,0.0004
666,1.5399296879768372,1.5368258953094482,0.3269230769230769,0.8269230769230769,0.21428571428571427,0.8571428571428571,0.0004
667,1.568585455417633,1.5365655422210693,0.3269230769230769,0.8269230769230769,0.21428571428571427,0.8571428571428571,0.0004
668,1.5538163781166077,1.536199927330017,0.40384615384615385,0.8269230769230769,0.21428571428571427,0.8571428571428571,0.0004
669,1.617854356765747,1.5366764068603516,0.28846153846153844,0.8269230769230769,0.21428571428571427,0.8571428571428571,0.0004
670,1.5447222590446472,1.5364348888397217,0.28846153846153844,0.8269230769230769,0.21428571428571427,0.8571428571428571,0.0004
671,1.5131193399429321,1.536453127861023,0.3269230769230769,0.8269230769230769,0.21428571428571427,0.8571428571428571,0.0004
672,1.5772138237953186,1.5360453128814697,0.3269230769230769,0.8269230769230769,0.21428571428571427,0.8571428571428571,0.0004
673,1.5113114714622498,1.5355991125106812,0.40384615384615385,0.8269230769230769,0.21428571428571427,0.8571428571428571,0.0004
674,1.6006643176078796,1.5351197719573975,0.2692307692307692,0.8269230769230769,0.21428571428571427,0.8571428571428571,0.0004
675,1.5594286918640137,1.5351841449737549,0.46153846153846156,0.8269230769230769,0.21428571428571427,0.8571428571428571,0.0004
676,1.5541912317276,1.5351002216339111,0.25,0.8269230769230769,0.21428571428571427,0.8571428571428571,0.0004
677,1.5403528809547424,1.5352333784103394,0.40384615384615385,0.8269230769230769,0.21428571428571427,0.8571428571428571,0.0004
678,1.536025047302246,1.535053014755249,0.34615384615384615,0.8269230769230769,0.21428571428571427,0.8571428571428571,0.0004
679,1.5655388236045837,1.5351974964141846,0.3269230769230769,0.8269230769230769,0.21428571428571427,0.8571428571428571,0.0004
680,1.5567724704742432,1.5352299213409424,0.2692307692307692,0.8269230769230769,0.21428571428571427,0.8571428571428571,0.0004
681,1.5276976823806763,1.5353889465332031,0.40384615384615385,0.8269230769230769,0.21428571428571427,0.8571428571428571,0.0004
682,1.5691229701042175,1.5354595184326172,0.3269230769230769,0.8269230769230769,0.21428571428571427,0.8571428571428571,0.0004
683,1.5789376497268677,1.5352439880371094,0.36538461538461536,0.8269230769230769,0.21428571428571427,0.8571428571428571,0.0004
684,1.558259129524231,1.5350626707077026,0.38461538461538464,0.8269230769230769,0.21428571428571427,0.8571428571428571,0.0004
685,1.527109980583191,1.534794569015503,0.36538461538461536,0.8269230769230769,0.21428571428571427,0.8571428571428571,0.0004
686,1.610198438167572,1.5342862606048584,0.34615384615384615,0.8269230769230769,0.21428571428571427,0.8571428571428571,0.0004
687,1.5779014825820923,1.5335588455200195,0.40384615384615385,0.8269230769230769,0.21428571428571427,0.8571428571428571,0.0004
688,1.518969476222992,1.5332881212234497,0.38461538461538464,0.8269230769230769,0.21428571428571427,0.8571428571428571,0.0004
689,1.5443357229232788,1.5329227447509766,0.34615384615384615,0.8269230769230769,0.21428571428571427,0.8571428571428571,0.0004
690,1.5316047668457031,1.5323203802108765,0.3269230769230769,0.8269230769230769,0.21428571428571427,0.8571428571428571,0.0004
691,1.590347707271576,1.5317274332046509,0.34615384615384615,0.8269230769230769,0.21428571428571427,0.8571428571428571,0.0004
692,1.6337356567382812,1.531156063079834,0.36538461538461536,0.8269230769230769,0.21428571428571427,0.8571428571428571,0.0004
693,1.575244665145874,1.5308351516723633,0.38461538461538464,0.8269230769230769,0.21428571428571427,0.8571428571428571,0.0004
694,1.5635497570037842,1.5306501388549805,0.34615384615384615,0.8269230769230769,0.21428571428571427,0.8571428571428571,0.0004
695,1.5623473525047302,1.5296322107315063,0.34615384615384615,0.8269230769230769,0.21428571428571427,0.8571428571428571,0.0004
696,1.517984390258789,1.5294818878173828,0.28846153846153844,0.8269230769230769,0.21428571428571427,0.8571428571428571,0.0004
697,1.5941311120986938,1.5296823978424072,0.3076923076923077,0.8269230769230769,0.21428571428571427,0.8571428571428571,0.0004
698,1.5377501845359802,1.5296225547790527,0.38461538461538464,0.8269230769230769,0.21428571428571427,0.8571428571428571,0.0004
699,1.5629786252975464,1.5299547910690308,0.4423076923076923,0.8269230769230769,0.21428571428571427,0.8571428571428571,0.0004
700,1.5699195265769958,1.529969334602356,0.4230769230769231,0.8269230769230769,0.21428571428571427,0.8571428571428571,0.0004
701,1.5045788288116455,1.5302422046661377,0.4230769230769231,0.8269230769230769,0.21428571428571427,0.8571428571428571,0.0004
702,1.5734904408454895,1.5307872295379639,0.3076923076923077,0.8269230769230769,0.21428571428571427,0.8571428571428571,0.0004
703,1.558242678642273,1.5304169654846191,0.38461538461538464,0.8269230769230769,0.21428571428571427,0.8571428571428571,0.0004
704,1.5398489236831665,1.5307788848876953,0.36538461538461536,0.8269230769230769,0.21428571428571427,0.8571428571428571,0.0004
705,1.5668835639953613,1.5307774543762207,0.46153846153846156,0.8269230769230769,0.21428571428571427,0.8571428571428571,0.0004
706,1.5955544710159302,1.5312645435333252,0.3269230769230769,0.8269230769230769,0.21428571428571427,0.8571428571428571,0.0004
707,1.5340319275856018,1.5316925048828125,0.40384615384615385,0.8269230769230769,0.21428571428571427,0.8571428571428571,0.0004
708,1.5464688539505005,1.5320613384246826,0.38461538461538464,0.8269230769230769,0.21428571428571427,0.8571428571428571,0.0004
709,1.5256266593933105,1.5325828790664673,0.4230769230769231,0.8269230769230769,0.21428571428571427,0.8571428571428571,0.0004
710,1.6179742813110352,1.5330854654312134,0.25,0.8269230769230769,0.21428571428571427,0.8571428571428571,0.0004
711,1.5796619057655334,1.5334045886993408,0.36538461538461536,0.8269230769230769,0.21428571428571427,0.8571428571428571,0.0004
712,1.5940415859222412,1.5336921215057373,0.3076923076923077,0.8269230769230769,0.21428571428571427,0.8571428571428571,0.0004
713,1.6038032174110413,1.5342555046081543,0.34615384615384615,0.8269230769230769,0.21428571428571427,0.8571428571428571,0.0004
714,1.529821515083313,1.5344948768615723,0.38461538461538464,0.8269230769230769,0.21428571428571427,0.8571428571428571,0.0004
715,1.5162317156791687,1.534959077835083,0.4423076923076923,0.8269230769230769,0.21428571428571427,0.8571428571428571,0.0004
716,1.6163370013237,1.535905122756958,0.38461538461538464,0.8269230769230769,0.21428571428571427,0.8571428571428571,0.0004
717,1.5515713691711426,1.5365395545959473,0.36538461538461536,0.8269230769230769,0.21428571428571427,0.8571428571428571,0.0004
718,1.5686338543891907,1.5369449853897095,0.38461538461538464,0.8269230769230769,0.21428571428571427,0.8571428571428571,0.0004
719,1.5878894329071045,1.5370638370513916,0.3269230769230769,0.8269230769230769,0.21428571428571427,0.8571428571428571,0.0004
720,1.5314472913742065,1.5371962785720825,0.4230769230769231,0.8269230769230769,0.21428571428571427,0.8571428571428571,0.0004
721,1.6204475164413452,1.5368127822875977,0.3076923076923077,0.8269230769230769,0.21428571428571427,0.8571428571428571,0.0004
722,1.570996642112732,1.536537766456604,0.25,0.8269230769230769,0.21428571428571427,0.8571428571428571,0.0004
723,1.5539886355400085,1.536405324935913,0.3076923076923077,0.8269230769230769,0.21428571428571427,0.8571428571428571,0.0004
724,1.5189109444618225,1.5360288619995117,0.46153846153846156,0.8269230769230769,0.21428571428571427,0.8571428571428571,0.0004
725,1.5706170201301575,1.5357372760772705,0.4230769230769231,0.8269230769230769,0.21428571428571427,0.8571428571428571,0.0004
726,1.5880170464515686,1.5351685285568237,0.3269230769230769,0.8269230769230769,0.21428571428571427,0.8571428571428571,0.0004
727,1.5819743275642395,1.5343730449676514,0.3269230769230769,0.8269230769230769,0.21428571428571427,0.8571428571428571,0.0004
728,1.5900298357009888,1.5337913036346436,0.40384615384615385,0.8269230769230769,0.21428571428571427,0.8571428571428571,0.0004
729,1.5854604840278625,1.5337657928466797,0.3269230769230769,0.8269230769230769,0.21428571428571427,0.8571428571428571,0.0004
730,1.6160435676574707,1.5337681770324707,0.34615384615384615,0.8269230769230769,0.21428571428571427,0.8571428571428571,0.0004
731,1.5665069818496704,1.5337135791778564,0.34615384615384615,0.8269230769230769,0.21428571428571427,0.8571428571428571,0.0004
732,1.5418630838394165,1.5337013006210327,0.38461538461538464,0.8269230769230769,0.21428571428571427,0.8571428571428571,0.0004
733,1.5905863642692566,1.5337752103805542,0.38461538461538464,0.8269230769230769,0.21428571428571427,0.8571428571428571,0.0004
734,1.5680198073387146,1.5337986946105957,0.4230769230769231,0.8269230769230769,0.21428571428571427,0.8571428571428571,0.0004
735,1.5474925637245178,1.5337896347045898,0.46153846153846156,0.8269230769230769,0.21428571428571427,0.8571428571428571,0.0004
736,1.5530012249946594,1.533820629119873,0.2692307692307692,0.8269230769230769,0.21428571428571427,0.8571428571428571,0.0004
737,1.5618812441825867,1.533275842666626,0.3269230769230769,0.8269230769230769,0.21428571428571427,0.8571428571428571,0.0004
738,1.5776854753494263,1.5331125259399414,0.3269230769230769,0.8269230769230769,0.21428571428571427,0.8571428571428571,0.0004
739,1.6000869274139404,1.5327967405319214,0.34615384615384615,0.8269230769230769,0.21428571428571427,0.8571428571428571,0.0004
740,1.5667012929916382,1.5327420234680176,0.34615384615384615,0.8269230769230769,0.21428571428571427,0.8571428571428571,0.0004
741,1.5602625608444214,1.5328491926193237,0.25,0.8269230769230769,0.21428571428571427,0.8571428571428571,0.0004
742,1.5959852933883667,1.5328478813171387,0.2692307692307692,0.8269230769230769,0.21428571428571427,0.8571428571428571,0.0004
743,1.5217322707176208,1.5331244468688965,0.34615384615384615,0.8269230769230769,0.21428571428571427,0.8571428571428571,0.0004
744,1.5981016159057617,1.5328949689865112,0.2692307692307692,0.8269230769230769,0.21428571428571427,0.8571428571428571,0.0004
745,1.5634533762931824,1.5332187414169312,0.38461538461538464,0.8269230769230769,0.21428571428571427,0.8571428571428571,0.0004
746,1.6117777228355408,1.5333696603775024,0.3269230769230769,0.8269230769230769,0.21428571428571427,0.8571428571428571,0.0004
747,1.580760657787323,1.5338220596313477,0.3269230769230769,0.8269230769230769,0.21428571428571427,0.8571428571428571,0.0004
748,1.5446289777755737,1.5343875885009766,0.28846153846153844,0.8269230769230769,0.21428571428571427,0.8571428571428571,0.0004
749,1.551404058933258,1.534584879875183,0.36538461538461536,0.8269230769230769,0.21428571428571427,0.8571428571428571,0.0004
750,1.5936994552612305,1.535295009613037,0.46153846153846156,0.8269230769230769,0.21428571428571427,0.8571428571428571,0.0004
751,1.5392178893089294,1.5358943939208984,0.34615384615384615,0.8269230769230769,0.21428571428571427,0.8571428571428571,0.0004
752,1.5524591207504272,1.5365493297576904,0.40384615384615385,0.8269230769230769,0.21428571428571427,0.8571428571428571,0.0004
753,1.5702841877937317,1.537058711051941,0.38461538461538464,0.8269230769230769,0.21428571428571427,0.8571428571428571,0.0004
754,1.594186007976532,1.5375981330871582,0.3269230769230769,0.8269230769230769,0.21428571428571427,0.8571428571428571,0.0004
755,1.5883169174194336,1.5380171537399292,0.36538461538461536,0.8269230769230769,0.21428571428571427,0.8571428571428571,0.0004
756,1.533795177936554,1.538511872291565,0.34615384615384615,0.8269230769230769,0.21428571428571427,0.8571428571428571,0.0004
757,1.5436416268348694,1.5391569137573242,0.4423076923076923,0.8269230769230769,0.21428571428571427,0.8571428571428571,0.0004
758,1.5837488174438477,1.5394154787063599,0.3076923076923077,0.8269230769230769,0.21428571428571427,0.8571428571428571,0.0004
759,1.5895710587501526,1.5401060581207275,0.28846153846153844,0.8269230769230769,0.21428571428571427,0.8571428571428571,0.0004
760,1.6271138787269592,1.5404332876205444,0.38461538461538464,0.8269230769230769,0.21428571428571427,0.8571428571428571,0.0004
761,1.5590893030166626,1.5407087802886963,0.2692307692307692,0.8269230769230769,0.21428571428571427,0.8571428571428571,0.0004
762,1.545042097568512,1.5408697128295898,0.38461538461538464,0.8269230769230769,0.21428571428571427,0.8571428571428571,0.0004
763,1.5196674466133118,1.5412287712097168,0.34615384615384615,0.8269230769230769,0.21428571428571427,0.8571428571428571,0.0004
764,1.6365288496017456,1.5413966178894043,0.34615384615384615,0.8269230769230769,0.21428571428571427,0.8571428571428571,0.0004
765,1.5559234619140625,1.5413657426834106,0.38461538461538464,0.8269230769230769,0.21428571428571427,0.8571428571428571,0.0004
766,1.5865038633346558,1.5415021181106567,0.40384615384615385,0.8269230769230769,0.21428571428571427,0.8571428571428571,0.0004
767,1.562804937362671,1.5416679382324219,0.40384615384615385,0.8269230769230769,0.21428571428571427,0.8571428571428571,0.0004
768,1.530829906463623,1.5423510074615479,0.40384615384615385,0.8269230769230769,0.21428571428571427,0.8571428571428571,0.0004
769,1.5700227618217468,1.5431163311004639,0.34615384615384615,0.8269230769230769,0.21428571428571427,0.8571428571428571,0.0004
770,1.5299140810966492,1.5435891151428223,0.40384615384615385,0.8269230769230769,0.21428571428571427,0.8571428571428571,0.0004
771,1.5998147130012512,1.5440118312835693,0.36538461538461536,0.8269230769230769,0.21428571428571427,0.8571428571428571,0.0004
772,1.5305778980255127,1.544402837753296,0.36538461538461536,0.8269230769230769,0.21428571428571427,0.8571428571428571,0.0004
773,1.5530219078063965,1.5442354679107666,0.4230769230769231,0.8269230769230769,0.21428571428571427,0.8571428571428571,0.0004
774,1.612619400024414,1.5445822477340698,0.34615384615384615,0.8269230769230769,0.21428571428571427,0.8571428571428571,0.0004
775,1.5653473734855652,1.5443097352981567,0.40384615384615385,0.8269230769230769,0.21428571428571427,0.8571428571428571,0.0004
776,1.5410298109054565,1.5442421436309814,0.36538461538461536,0.8269230769230769,0.21428571428571427,0.8571428571428571,0.0004
777,1.592181146144867,1.5436370372772217,0.2692307692307692,0.8269230769230769,0.21428571428571427,0.8571428571428571,0.0004
778,1.5935726165771484,1.5436127185821533,0.34615384615384615,0.8269230769230769,0.21428571428571427,0.8571428571428571,0.0004
779,1.5860915780067444,1.5430775880813599,0.40384615384615385,0.8269230769230769,0.21428571428571427,0.8571428571428571,0.0004
780,1.554321527481079,1.5430036783218384,0.34615384615384615,0.8269230769230769,0.21428571428571427,0.8571428571428571,0.0004
781,1.6033976078033447,1.5425608158111572,0.3269230769230769,0.8269230769230769,0.21428571428571427,0.8571428571428571,0.0004
782,1.6223377585411072,1.5421324968338013,0.4807692307692308,0.8269230769230769,0.21428571428571427,0.8571428571428571,0.0004
783,1.5574867725372314,1.5417873859405518,0.3076923076923077,0.8269230769230769,0.21428571428571427,0.8571428571428571,0.0004
784,1.5775375962257385,1.541498064994812,0.40384615384615385,0.8269230769230769,0.21428571428571427,0.8571428571428571,0.0004
785,1.55775386095047,1.5413260459899902,0.36538461538461536,0.8269230769230769,0.21428571428571427,0.8571428571428571,0.0004
786,1.5577046871185303,1.5412241220474243,0.3269230769230769,0.8269230769230769,0.21428571428571427,0.8571428571428571,0.0004
787,1.5534481406211853,1.5405805110931396,0.38461538461538464,0.8269230769230769,0.21428571428571427,0.8571428571428571,0.0004
788,1.6113791465759277,1.539955735206604,0.3269230769230769,0.8269230769230769,0.21428571428571427,0.8571428571428571,0.0004
789,1.5389209985733032,1.5395419597625732,0.34615384615384615,0.8269230769230769,0.21428571428571427,0.8571428571428571,0.0004
790,1.581788182258606,1.539405345916748,0.46153846153846156,0.8269230769230769,0.21428571428571427,0.8571428571428571,0.0004
791,1.547758162021637,1.538893699645996,0.40384615384615385,0.8269230769230769,0.21428571428571427,0.8571428571428571,0.0004
792,1.5752673149108887,1.5386848449707031,0.28846153846153844,0.8269230769230769,0.21428571428571427,0.8571428571428571,0.0004
793,1.580972671508789,1.5383636951446533,0.4423076923076923,0.8269230769230769,0.21428571428571427,0.8571428571428571,0.0004
794,1.5593353509902954,1.5380405187606812,0.40384615384615385,0.8269230769230769,0.21428571428571427,0.8571428571428571,0.0004
795,1.6462115049362183,1.5375293493270874,0.36538461538461536,0.8269230769230769,0.21428571428571427,0.8571428571428571,0.0004
796,1.5693454146385193,1.537599802017212,0.34615384615384615,0.8269230769230769,0.21428571428571427,0.8571428571428571,0.0004
797,1.5536461472511292,1.5373486280441284,0.38461538461538464,0.8269230769230769,0.21428571428571427,0.8571428571428571,0.0004
798,1.6299400925636292,1.536903738975525,0.36538461538461536,0.8269230769230769,0.21428571428571427,0.8571428571428571,0.0004
799,1.5720744729042053,1.5364372730255127,0.38461538461538464,0.8269230769230769,0.21428571428571427,0.8571428571428571,0.0004
800,1.5741794109344482,1.5362108945846558,0.28846153846153844,0.8269230769230769,0.21428571428571427,0.8571428571428571,0.0004
801,1.576697289943695,1.5358853340148926,0.3076923076923077,0.8269230769230769,0.21428571428571427,0.8571428571428571,0.0004
802,1.5950934886932373,1.5355095863342285,0.36538461538461536,0.8269230769230769,0.21428571428571427,0.8571428571428571,0.0004
803,1.526883065700531,1.5351234674453735,0.46153846153846156,0.8269230769230769,0.21428571428571427,0.8571428571428571,0.0004
804,1.5697612166404724,1.5343587398529053,0.3076923076923077,0.8269230769230769,0.21428571428571427,0.8571428571428571,0.0004
805,1.5659481287002563,1.5339751243591309,0.36538461538461536,0.8269230769230769,0.21428571428571427,0.8571428571428571,0.0004
806,1.621149718761444,1.5332207679748535,0.36538461538461536,0.8269230769230769,0.21428571428571427,0.8571428571428571,0.0004
807,1.6056471467018127,1.5324736833572388,0.38461538461538464,0.8269230769230769,0.21428571428571427,0.8571428571428571,0.0004
808,1.5585100650787354,1.5321166515350342,0.4230769230769231,0.8269230769230769,0.21428571428571427,0.8571428571428571,0.0004
809,1.5522279143333435,1.531567931175232,0.36538461538461536,0.8269230769230769,0.21428571428571427,0.8571428571428571,0.0004
810,1.5382479429244995,1.531001091003418,0.38461538461538464,0.8269230769230769,0.21428571428571427,0.8571428571428571,0.0004
811,1.5803118348121643,1.5305516719818115,0.38461538461538464,0.8269230769230769,0.21428571428571427,0.8571428571428571,0.0004
812,1.5501946806907654,1.5300168991088867,0.36538461538461536,0.8269230769230769,0.21428571428571427,0.8571428571428571,0.0004
813,1.5455021262168884,1.5296504497528076,0.28846153846153844,0.8269230769230769,0.21428571428571427,0.8571428571428571,0.0004
814,1.5375972986221313,1.529246211051941,0.38461538461538464,0.8269230769230769,0.21428571428571427,0.8571428571428571,0.0004
815,1.5450798869132996,1.528976559638977,0.4807692307692308,0.8269230769230769,0.21428571428571427,0.8571428571428571,0.0004
816,1.5470534563064575,1.5287532806396484,0.34615384615384615,0.8269230769230769,0.21428571428571427,0.8571428571428571,0.0004
817,1.521811604499817,1.5287344455718994,0.38461538461538464,0.8269230769230769,0.21428571428571427,0.8571428571428571,0.0004
818,1.6058382987976074,1.5286450386047363,0.34615384615384615,0.8269230769230769,0.21428571428571427,0.8571428571428571,0.0004
819,1.5930214524269104,1.5287022590637207,0.34615384615384615,0.8269230769230769,0.21428571428571427,0.8571428571428571,0.0004
820,1.5929874181747437,1.5289193391799927,0.4423076923076923,0.8269230769230769,0.21428571428571427,0.8571428571428571,0.0004
821,1.589785099029541,1.5288240909576416,0.46153846153846156,0.8269230769230769,0.21428571428571427,0.8571428571428571,0.0004
822,1.5905081033706665,1.5289032459259033,0.3269230769230769,0.8269230769230769,0.21428571428571427,0.8571428571428571,0.0004
823,1.5443773865699768,1.5290601253509521,0.34615384615384615,0.8269230769230769,0.21428571428571427,0.8571428571428571,0.0004
824,1.5635091066360474,1.5292288064956665,0.28846153846153844,0.8269230769230769,0.21428571428571427,0.8571428571428571,0.0004
825,1.5813714265823364,1.5295406579971313,0.3076923076923077,0.8269230769230769,0.21428571428571427,0.8571428571428571,0.0004
826,1.6030070185661316,1.5293279886245728,0.36538461538461536,0.8269230769230769,0.21428571428571427,0.8571428571428571,0.0004
827,1.578966736793518,1.529480218887329,0.38461538461538464,0.8269230769230769,0.21428571428571427,0.8571428571428571,0.0004
828,1.5712993741035461,1.5295994281768799,0.28846153846153844,0.8269230769230769,0.21428571428571427,0.8571428571428571,0.0004
829,1.5422708988189697,1.5298545360565186,0.34615384615384615,0.8269230769230769,0.21428571428571427,0.8571428571428571,0.0004
830,1.5709853172302246,1.5298421382904053,0.34615384615384615,0.8269230769230769,0.21428571428571427,0.8571428571428571,0.0004
831,1.579744815826416,1.530591368675232,0.34615384615384615,0.8269230769230769,0.21428571428571427,0.8571428571428571,0.0004
832,1.5913381576538086,1.5306551456451416,0.36538461538461536,0.8269230769230769,0.21428571428571427,0.8571428571428571,0.0004
833,1.6185364723205566,1.5310664176940918,0.38461538461538464,0.8269230769230769,0.21428571428571427,0.8571428571428571,0.0004
834,1.565741777420044,1.5317165851593018,0.38461538461538464,0.8269230769230769,0.21428571428571427,0.8571428571428571,0.0004
835,1.6010305881500244,1.5319844484329224,0.36538461538461536,0.8269230769230769,0.21428571428571427,0.8571428571428571,0.0004
836,1.591583251953125,1.532325029373169,0.2692307692307692,0.8269230769230769,0.21428571428571427,0.8571428571428571,0.0004
837,1.5621443390846252,1.533125400543213,0.34615384615384615,0.8269230769230769,0.21428571428571427,0.8571428571428571,0.0004
838,1.5684767961502075,1.5334692001342773,0.3269230769230769,0.8269230769230769,0.21428571428571427,0.8571428571428571,0.0004
839,1.5977147221565247,1.5336830615997314,0.40384615384615385,0.8269230769230769,0.21428571428571427,0.8571428571428571,0.0004
840,1.545837640762329,1.5338425636291504,0.36538461538461536,0.8269230769230769,0.21428571428571427,0.8571428571428571,0.0004
841,1.5691807866096497,1.5338128805160522,0.3076923076923077,0.8269230769230769,0.21428571428571427,0.8571428571428571,0.0004
842,1.5450324416160583,1.5334064960479736,0.3269230769230769,0.8269230769230769,0.21428571428571427,0.8571428571428571,0.0004
843,1.5497251749038696,1.5333805084228516,0.38461538461538464,0.8269230769230769,0.21428571428571427,0.8571428571428571,0.0004
844,1.5598445534706116,1.5329337120056152,0.36538461538461536,0.8269230769230769,0.21428571428571427,0.8571428571428571,0.0004
845,1.5481641292572021,1.5326770544052124,0.40384615384615385,0.8269230769230769,0.21428571428571427,0.8571428571428571,0.0004
846,1.6055976152420044,1.5325456857681274,0.34615384615384615,0.8269230769230769,0.21428571428571427,0.8571428571428571,0.0004
847,1.5961847305297852,1.5321601629257202,0.34615384615384615,0.8269230769230769,0.21428571428571427,0.8571428571428571,0.0004
848,1.5229718685150146,1.5319600105285645,0.38461538461538464,0.8269230769230769,0.21428571428571427,0.8571428571428571,0.0004
849,1.6218632459640503,1.5316863059997559,0.3076923076923077,0.8269230769230769,0.21428571428571427,0.8571428571428571,0.0004
850,1.5809541940689087,1.5316516160964966,0.34615384615384615,0.8269230769230769,0.21428571428571427,0.8571428571428571,0.0004
851,1.573296844959259,1.5315241813659668,0.28846153846153844,0.8269230769230769,0.21428571428571427,0.8571428571428571,0.0004
852,1.5754596590995789,1.5315912961959839,0.34615384615384615,0.8269230769230769,0.21428571428571427,0.8571428571428571,0.0004
853,1.5644970536231995,1.5315968990325928,0.40384615384615385,0.8269230769230769,0.21428571428571427,0.8571428571428571,0.0004
854,1.544374167919159,1.531550407409668,0.38461538461538464,0.8269230769230769,0.21428571428571427,0.8571428571428571,0.0004
855,1.5968922972679138,1.5316193103790283,0.34615384615384615,0.8269230769230769,0.21428571428571427,0.8571428571428571,0.0004
856,1.580980658531189,1.5313620567321777,0.3076923076923077,0.8269230769230769,0.21428571428571427,0.8571428571428571,0.0004
857,1.5476900339126587,1.5314099788665771,0.36538461538461536,0.8269230769230769,0.21428571428571427,0.8571428571428571,0.0004
858,1.5196279287338257,1.531334638595581,0.38461538461538464,0.8269230769230769,0.21428571428571427,0.8571428571428571,0.0004
859,1.5254846811294556,1.5312135219573975,0.34615384615384615,0.8269230769230769,0.21428571428571427,0.8571428571428571,0.0004
860,1.5777252912521362,1.5310237407684326,0.38461538461538464,0.8269230769230769,0.21428571428571427,0.8571428571428571,0.0004
861,1.6250259280204773,1.5309135913848877,0.36538461538461536,0.8269230769230769,0.21428571428571427,0.8571428571428571,0.0004
862,1.5497567057609558,1.5308350324630737,0.34615384615384615,0.8269230769230769,0.21428571428571427,0.8571428571428571,0.0004
863,1.5465486645698547,1.5307719707489014,0.3076923076923077,0.8269230769230769,0.21428571428571427,0.8571428571428571,0.0004
864,1.5373806953430176,1.5305767059326172,0.3269230769230769,0.8269230769230769,0.21428571428571427,0.8571428571428571,0.0004
865,1.553694486618042,1.530616044998169,0.3269230769230769,0.8269230769230769,0.21428571428571427,0.8571428571428571,0.0004
866,1.6116874814033508,1.5305988788604736,0.36538461538461536,0.8269230769230769,0.21428571428571427,0.8571428571428571,0.0004
867,1.555227518081665,1.5308318138122559,0.34615384615384615,0.8269230769230769,0.21428571428571427,0.8571428571428571,0.0004
868,1.5704780220985413,1.530902624130249,0.3269230769230769,0.8269230769230769,0.21428571428571427,0.8571428571428571,0.0004
869,1.5426665544509888,1.5309358835220337,0.38461538461538464,0.8269230769230769,0.21428571428571427,0.8571428571428571,0.0004
870,1.560499668121338,1.531001091003418,0.36538461538461536,0.8269230769230769,0.21428571428571427,0.8571428571428571,0.0004
871,1.6104191541671753,1.5311213731765747,0.34615384615384615,0.8269230769230769,0.21428571428571427,0.8571428571428571,0.0004
872,1.5638640522956848,1.5311927795410156,0.36538461538461536,0.8269230769230769,0.21428571428571427,0.8571428571428571,0.0004
873,1.548052728176117,1.531111240386963,0.36538461538461536,0.8269230769230769,0.21428571428571427,0.8571428571428571,0.0004
874,1.604047179222107,1.5314074754714966,0.4230769230769231,0.8269230769230769,0.21428571428571427,0.8571428571428571,0.0004
875,1.6185900568962097,1.53165864944458,0.34615384615384615,0.8269230769230769,0.21428571428571427,0.8571428571428571,0.0004
876,1.566156029701233,1.5318715572357178,0.34615384615384615,0.8269230769230769,0.21428571428571427,0.8571428571428571,0.0004
877,1.5475406646728516,1.5321874618530273,0.34615384615384615,0.8269230769230769,0.21428571428571427,0.8571428571428571,0.0004
878,1.5526067018508911,1.5325801372528076,0.38461538461538464,0.8269230769230769,0.21428571428571427,0.8571428571428571,0.0004
879,1.591744601726532,1.5326932668685913,0.40384615384615385,0.8269230769230769,0.21428571428571427,0.8571428571428571,0.0004
880,1.5788530111312866,1.5329482555389404,0.40384615384615385,0.8269230769230769,0.21428571428571427,0.8571428571428571,0.0004
881,1.5622110962867737,1.5332460403442383,0.36538461538461536,0.8269230769230769,0.21428571428571427,0.8571428571428571,0.0004
882,1.5181761980056763,1.5333904027938843,0.34615384615384615,0.8269230769230769,0.21428571428571427,0.8571428571428571,0.0004
883,1.5371071100234985,1.5335114002227783,0.34615384615384615,0.8269230769230769,0.21428571428571427,0.8571428571428571,0.0004
884,1.6108763813972473,1.533613920211792,0.3269230769230769,0.8269230769230769,0.21428571428571427,0.8571428571428571,0.0004
885,1.5353099703788757,1.5336235761642456,0.38461538461538464,0.8269230769230769,0.21428571428571427,0.8571428571428571,0.0004
886,1.5364379286766052,1.5336979627609253,0.36538461538461536,0.8269230769230769,0.21428571428571427,0.8571428571428571,0.0004
887,1.544054627418518,1.5336530208587646,0.40384615384615385,0.8269230769230769,0.21428571428571427,0.8571428571428571,0.0004
888,1.576551079750061,1.5339561700820923,0.36538461538461536,0.8269230769230769,0.21428571428571427,0.8571428571428571,0.0004
889,1.5563262104988098,1.5337308645248413,0.3269230769230769,0.8269230769230769,0.21428571428571427,0.8571428571428571,0.0004
890,1.5896729230880737,1.5341622829437256,0.38461538461538464,0.8269230769230769,0.21428571428571427,0.8571428571428571,0.0004
891,1.6167921423912048,1.5342226028442383,0.3269230769230769,0.8269230769230769,0.21428571428571427,0.8571428571428571,0.0004
892,1.5852668285369873,1.5344449281692505,0.38461538461538464,0.8269230769230769,0.21428571428571427,0.8571428571428571,0.0004
893,1.6076101660728455,1.5341639518737793,0.34615384615384615,0.8269230769230769,0.21428571428571427,0.8571428571428571,0.0004
894,1.5255410075187683,1.5345011949539185,0.36538461538461536,0.8269230769230769,0.21428571428571427,0.8571428571428571,0.0004
895,1.5786311626434326,1.534329891204834,0.36538461538461536,0.8269230769230769,0.21428571428571427,0.8571428571428571,0.0004
896,1.5219084024429321,1.5342885255813599,0.34615384615384615,0.8269230769230769,0.21428571428571427,0.8571428571428571,0.0004
897,1.5655027627944946,1.5341869592666626,0.34615384615384615,0.8269230769230769,0.21428571428571427,0.8571428571428571,0.0004
898,1.5916290283203125,1.5343414545059204,0.34615384615384615,0.8269230769230769,0.21428571428571427,0.8571428571428571,0.0004
899,1.572408378124237,1.534091830253601,0.38461538461538464,0.8269230769230769,0.21428571428571427,0.8571428571428571,0.0004
900,1.5603440999984741,1.5340499877929688,0.36538461538461536,0.8269230769230769,0.21428571428571427,0.8571428571428571,0.0004
901,1.5849753618240356,1.5340133905410767,0.34615384615384615,0.8269230769230769,0.21428571428571427,0.8571428571428571,0.0004
902,1.5653846263885498,1.5339423418045044,0.34615384615384615,0.8269230769230769,0.21428571428571427,0.8571428571428571,0.0004
903,1.5367835760116577,1.5336182117462158,0.38461538461538464,0.8269230769230769,0.21428571428571427,0.8571428571428571,0.0004
904,1.5511314868927002,1.533603549003601,0.36538461538461536,0.8269230769230769,0.21428571428571427,0.8571428571428571,0.0004
905,1.5980244278907776,1.5335558652877808,0.28846153846153844,0.8269230769230769,0.21428571428571427,0.8571428571428571,0.0004
906,1.5744088292121887,1.5333305597305298,0.38461538461538464,0.8269230769230769,0.21428571428571427,0.8571428571428571,0.0004
907,1.5327975749969482,1.533310055732727,0.40384615384615385,0.8269230769230769,0.21428571428571427,0.8571428571428571,0.0004
908,1.5506144165992737,1.5332906246185303,0.3076923076923077,0.8269230769230769,0.21428571428571427,0.8571428571428571,0.0004
909,1.5565032958984375,1.5328881740570068,0.34615384615384615,0.8269230769230769,0.21428571428571427,0.8571428571428571,0.0004
910,1.5846545696258545,1.5326188802719116,0.38461538461538464,0.8269230769230769,0.21428571428571427,0.8571428571428571,0.0004
911,1.5891435146331787,1.5326570272445679,0.34615384615384615,0.8269230769230769,0.21428571428571427,0.8571428571428571,0.0004
912,1.604716718196869,1.5323935747146606,0.3076923076923077,0.8269230769230769,0.21428571428571427,0.8571428571428571,0.0004
913,1.5999282598495483,1.5323412418365479,0.36538461538461536,0.8269230769230769,0.21428571428571427,0.8571428571428571,0.0004
914,1.5871163606643677,1.5324944257736206,0.4230769230769231,0.8269230769230769,0.21428571428571427,0.8571428571428571,0.0004
915,1.618979036808014,1.5326114892959595,0.36538461538461536,0.8269230769230769,0.21428571428571427,0.8571428571428571,0.0004
916,1.5378724932670593,1.5328311920166016,0.34615384615384615,0.8269230769230769,0.21428571428571427,0.8571428571428571,0.0004
917,1.6062259674072266,1.5330458879470825,0.34615384615384615,0.8269230769230769,0.21428571428571427,0.8571428571428571,0.0004
918,1.5490584969520569,1.5331699848175049,0.34615384615384615,0.8269230769230769,0.21428571428571427,0.8571428571428571,0.0004
919,1.5888187289237976,1.5335958003997803,0.40384615384615385,0.8269230769230769,0.21428571428571427,0.8571428571428571,0.0004
920,1.563014268875122,1.533696174621582,0.36538461538461536,0.8269230769230769,0.21428571428571427,0.8571428571428571,0.0004
921,1.5264533162117004,1.533592700958252,0.38461538461538464,0.8269230769230769,0.21428571428571427,0.8571428571428571,0.0004
922,1.5144062042236328,1.5332958698272705,0.36538461538461536,0.8269230769230769,0.21428571428571427,0.8571428571428571,0.0004
923,1.5919605493545532,1.5332036018371582,0.38461538461538464,0.8269230769230769,0.21428571428571427,0.8571428571428571,0.0004
924,1.55668306350708,1.5328876972198486,0.34615384615384615,0.8269230769230769,0.21428571428571427,0.8571428571428571,0.0004
925,1.5668571591377258,1.5324223041534424,0.34615384615384615,0.8269230769230769,0.21428571428571427,0.8571428571428571,0.0004
926,1.563220500946045,1.5320814847946167,0.38461538461538464,0.8269230769230769,0.21428571428571427,0.8571428571428571,0.0004
927,1.5326509475708008,1.531661868095398,0.38461538461538464,0.8269230769230769,0.21428571428571427,0.8571428571428571,0.0004
928,1.571812391281128,1.531373143196106,0.3076923076923077,0.8269230769230769,0.21428571428571427,0.8571428571428571,0.0004
929,1.561683714389801,1.5313005447387695,0.36538461538461536,0.8269230769230769,0.21428571428571427,0.8571428571428571,0.0004
930,1.5902645587921143,1.5310605764389038,0.3076923076923077,0.8269230769230769,0.21428571428571427,0.8571428571428571,0.0004
931,1.5531088709831238,1.5308927297592163,0.28846153846153844,0.8269230769230769,0.21428571428571427,0.8571428571428571,0.0004
932,1.5890477299690247,1.5309839248657227,0.2692307692307692,0.8269230769230769,0.21428571428571427,0.8571428571428571,0.0004
933,1.550122082233429,1.5308988094329834,0.36538461538461536,0.8269230769230769,0.21428571428571427,0.8571428571428571,0.0004
934,1.570939838886261,1.53098726272583,0.3076923076923077,0.8269230769230769,0.21428571428571427,0.8571428571428571,0.0004
935,1.537060797214508,1.5310633182525635,0.3076923076923077,0.8269230769230769,0.21428571428571427,0.8571428571428571,0.0004
936,1.5633122324943542,1.5310510396957397,0.34615384615384615,0.8269230769230769,0.21428571428571427,0.8571428571428571,0.0004
937,1.5888121128082275,1.5306899547576904,0.3269230769230769,0.8269230769230769,0.21428571428571427,0.8571428571428571,0.0004
938,1.5435336232185364,1.5309782028198242,0.36538461538461536,0.8269230769230769,0.21428571428571427,0.8571428571428571,0.0004
939,1.5777902603149414,1.5311388969421387,0.40384615384615385,0.8269230769230769,0.21428571428571427,0.8571428571428571,0.0004
940,1.5480894446372986,1.5312753915786743,0.38461538461538464,0.8269230769230769,0.21428571428571427,0.8571428571428571,0.0004
941,1.5614486932754517,1.5312690734863281,0.34615384615384615,0.8269230769230769,0.21428571428571427,0.8571428571428571,0.0004
942,1.5404502153396606,1.531541109085083,0.36538461538461536,0.8269230769230769,0.21428571428571427,0.8571428571428571,0.0004
943,1.6197271943092346,1.5315241813659668,0.3269230769230769,0.8269230769230769,0.21428571428571427,0.8571428571428571,0.0004
944,1.518950641155243,1.5316965579986572,0.3269230769230769,0.8269230769230769,0.21428571428571427,0.8571428571428571,0.0004
945,1.6024924516677856,1.5318424701690674,0.34615384615384615,0.8269230769230769,0.21428571428571427,0.8571428571428571,0.0004
946,1.5819360613822937,1.531733751296997,0.36538461538461536,0.8269230769230769,0.21428571428571427,0.8571428571428571,0.0004
947,1.5918728113174438,1.531717300415039,0.36538461538461536,0.8269230769230769,0.21428571428571427,0.8571428571428571,0.0004
948,1.540653109550476,1.5318026542663574,0.36538461538461536,0.8269230769230769,0.21428571428571427,0.8571428571428571,0.0004
949,1.584052324295044,1.5315754413604736,0.3269230769230769,0.8269230769230769,0.21428571428571427,0.8571428571428571,0.0004
950,1.5604164004325867,1.531501054763794,0.36538461538461536,0.8269230769230769,0.21428571428571427,0.8571428571428571,0.0004
951,1.5523256063461304,1.5315477848052979,0.36538461538461536,0.8269230769230769,0.21428571428571427,0.8571428571428571,0.0004
952,1.5476793050765991,1.5316239595413208,0.3269230769230769,0.8269230769230769,0.21428571428571427,0.8571428571428571,0.0004
953,1.596104383468628,1.5314676761627197,0.38461538461538464,0.8269230769230769,0.21428571428571427,0.8571428571428571,0.0004
954,1.5342904329299927,1.531486988067627,0.36538461538461536,0.8269230769230769,0.21428571428571427,0.8571428571428571,0.0004
