epoch,train_loss,val_loss,train_acc_action,train_acc_status,val_acc_action,val_acc_status,learning_rate
1,1.7647265195846558,1.5962580442428589,0.36538461538461536,0.6730769230769231,0.21428571428571427,0.8571428571428571,0.0004
2,1.5212923288345337,1.5548045635223389,0.4807692307692308,0.8269230769230769,0.21428571428571427,0.8571428571428571,0.0004
3,1.5233510732650757,1.508716344833374,0.4230769230769231,0.8269230769230769,0.42857142857142855,0.8571428571428571,0.0004
4,1.4954779744148254,1.5703567266464233,0.4807692307692308,0.8269230769230769,0.2857142857142857,0.8571428571428571,0.0004
5,1.5227894186973572,1.5053985118865967,0.4423076923076923,0.8269230769230769,0.35714285714285715,0.8571428571428571,0.0004
6,1.5195952653884888,1.4822955131530762,0.4807692307692308,0.8269230769230769,0.35714285714285715,0.8571428571428571,0.0004
7,1.440808653831482,1.4090263843536377,0.5192307692307693,0.8269230769230769,0.42857142857142855,0.8571428571428571,0.0004
8,1.4166040420532227,1.349292278289795,0.5576923076923077,0.8269230769230769,0.5714285714285714,0.8571428571428571,0.0004
9,1.4051148891448975,1.4127978086471558,0.6346153846153846,0.8269230769230769,0.5714285714285714,0.8571428571428571,0.0004
10,1.4002665281295776,1.4175984859466553,0.5384615384615384,0.8269230769230769,0.5,0.8571428571428571,0.0004
11,1.3449854850769043,1.391270399093628,0.6153846153846154,0.8269230769230769,0.5714285714285714,0.8571428571428571,0.0004
12,1.3650256395339966,1.464333415031433,0.5384615384615384,0.8269230769230769,0.5,0.8571428571428571,0.0004
13,1.3972660899162292,1.1991617679595947,0.5576923076923077,0.8269230769230769,0.7857142857142857,0.8571428571428571,0.0004
14,1.3824815154075623,1.363491415977478,0.5,0.8269230769230769,0.5714285714285714,0.8571428571428571,0.0004
15,1.3163179755210876,1.3570348024368286,0.6153846153846154,0.8269230769230769,0.5,0.8571428571428571,0.0004
16,1.411880910396576,1.4237622022628784,0.4423076923076923,0.8269230769230769,0.42857142857142855,0.8571428571428571,0.0004
17,1.2976946830749512,1.2765350341796875,0.5769230769230769,0.8269230769230769,0.5714285714285714,0.8571428571428571,0.0004
18,1.249971866607666,1.457197666168213,0.6153846153846154,0.8269230769230769,0.42857142857142855,0.8571428571428571,0.0004
19,1.2126668691635132,1.1552140712738037,0.5769230769230769,0.8269230769230769,0.6428571428571429,0.8571428571428571,0.0004
20,1.150258183479309,1.422215223312378,0.6730769230769231,0.8269230769230769,0.5,0.8571428571428571,0.0004
21,1.1568468809127808,1.4674187898635864,0.6346153846153846,0.8269230769230769,0.35714285714285715,0.8571428571428571,0.0004
22,1.316897213459015,1.321973204612732,0.5384615384615384,0.8269230769230769,0.35714285714285715,0.8571428571428571,0.0004
23,1.2066785097122192,0.8575060367584229,0.5961538461538461,0.8076923076923077,0.7142857142857143,0.9285714285714286,0.0004
24,1.248643398284912,1.1550118923187256,0.5576923076923077,0.8076923076923077,0.5,0.9285714285714286,0.0004
25,1.3012217283248901,1.1469476222991943,0.6153846153846154,0.7884615384615384,0.5714285714285714,0.8571428571428571,0.0004
26,1.1979429721832275,0.9651945233345032,0.5769230769230769,0.8653846153846154,0.6428571428571429,1.0,0.0004
27,1.2259613871574402,1.145312786102295,0.5769230769230769,0.8461538461538461,0.6428571428571429,0.7857142857142857,0.0004
28,1.0352169275283813,1.1527419090270996,0.6730769230769231,0.8461538461538461,0.5,0.8571428571428571,0.0004
29,1.0132129192352295,1.4183011054992676,0.7692307692307693,0.7884615384615384,0.5714285714285714,0.8571428571428571,0.0004
30,1.1158632636070251,1.0505521297454834,0.5384615384615384,0.8076923076923077,0.5,0.8571428571428571,0.0004
31,1.1364942789077759,1.2097982168197632,0.5769230769230769,0.8461538461538461,0.5714285714285714,0.8571428571428571,0.0004
32,1.0455576181411743,1.0359687805175781,0.6730769230769231,0.8461538461538461,0.5,0.8571428571428571,0.0004
33,0.8860029876232147,1.012415885925293,0.7884615384615384,0.7884615384615384,0.7142857142857143,0.9285714285714286,0.0004
34,1.022046983242035,0.9826244115829468,0.7692307692307693,0.8269230769230769,0.6428571428571429,0.9285714285714286,0.0004
35,1.1078336834907532,1.0466022491455078,0.6346153846153846,0.8846153846153846,0.5714285714285714,0.9285714285714286,0.0004
36,1.0309349298477173,1.2752693891525269,0.7115384615384616,0.8461538461538461,0.5,0.8571428571428571,0.0004
37,0.9177908003330231,0.9767558574676514,0.75,0.8653846153846154,0.5714285714285714,0.8571428571428571,0.0004
38,1.1298022270202637,1.1224271059036255,0.7884615384615384,0.8076923076923077,0.6428571428571429,0.9285714285714286,0.0004
39,1.3634364604949951,0.860019326210022,0.6346153846153846,0.8461538461538461,0.7142857142857143,0.8571428571428571,0.0004
40,0.8292081356048584,1.0364631414413452,0.7692307692307693,0.8461538461538461,0.7857142857142857,0.7857142857142857,0.0004
41,0.9697896838188171,0.8892488479614258,0.7307692307692307,0.8846153846153846,0.7857142857142857,0.7142857142857143,0.0004
42,0.9207533895969391,1.2426153421401978,0.7884615384615384,0.8653846153846154,0.6428571428571429,0.8571428571428571,0.0004
43,0.8696152567863464,1.3140051364898682,0.7692307692307693,0.9038461538461539,0.5714285714285714,0.7857142857142857,0.0004
44,0.8861836194992065,1.0285377502441406,0.7692307692307693,0.9038461538461539,0.7142857142857143,0.8571428571428571,0.0004
45,0.9341758787631989,1.190412998199463,0.6923076923076923,0.8461538461538461,0.7142857142857143,0.7142857142857143,0.0004
46,0.9143017530441284,0.6974281072616577,0.7884615384615384,0.8461538461538461,0.9285714285714286,0.7142857142857143,0.0004
47,1.057354062795639,0.8638996481895447,0.7692307692307693,0.8461538461538461,0.7142857142857143,0.7857142857142857,0.0004
48,0.7050905227661133,0.9921928644180298,0.8461538461538461,0.9423076923076923,0.7857142857142857,0.7857142857142857,0.0004
49,0.8957962393760681,1.029343605041504,0.75,0.8846153846153846,0.7142857142857143,0.8571428571428571,0.0004
50,1.0104395747184753,1.0248252153396606,0.7115384615384616,0.8653846153846154,0.5714285714285714,0.8571428571428571,0.0004
51,0.7876401841640472,0.8337593674659729,0.8461538461538461,0.8269230769230769,0.7142857142857143,0.9285714285714286,0.0004
52,0.6284911036491394,1.0484962463378906,0.9038461538461539,0.9230769230769231,0.7142857142857143,0.7857142857142857,0.0004
53,0.7572622895240784,0.9926685094833374,0.7884615384615384,0.8846153846153846,0.7142857142857143,0.7857142857142857,0.0004
54,1.0051090121269226,1.0589277744293213,0.7115384615384616,0.8653846153846154,0.6428571428571429,0.7857142857142857,0.0004
55,0.837892085313797,1.0576764345169067,0.75,0.7884615384615384,0.7857142857142857,0.7857142857142857,0.0004
56,0.8235408663749695,0.7938535213470459,0.7692307692307693,0.9038461538461539,0.8571428571428571,0.8571428571428571,0.0004
57,0.7502331137657166,1.0629216432571411,0.8461538461538461,0.8846153846153846,0.7857142857142857,0.7142857142857143,0.0004
58,0.8441914618015289,1.0527560710906982,0.75,0.7884615384615384,0.7142857142857143,0.8571428571428571,0.0004
59,0.9683877229690552,0.9191722273826599,0.7115384615384616,0.8269230769230769,0.6428571428571429,0.8571428571428571,0.0004
60,0.8500877022743225,1.0610185861587524,0.7884615384615384,0.7884615384615384,0.5714285714285714,1.0,0.0004
61,0.7957573235034943,0.8822779655456543,0.7692307692307693,0.9038461538461539,0.6428571428571429,0.8571428571428571,0.0004
62,0.8210960030555725,0.8833213448524475,0.8076923076923077,0.9230769230769231,0.7857142857142857,0.8571428571428571,0.0004
63,0.7310582399368286,1.3845548629760742,0.7692307692307693,0.9615384615384616,0.5714285714285714,0.8571428571428571,0.0004
64,0.7405604124069214,1.0204102993011475,0.7307692307692307,0.9038461538461539,0.5714285714285714,0.8571428571428571,0.0004
65,0.7701598107814789,1.0318573713302612,0.7884615384615384,0.9038461538461539,0.7857142857142857,0.7142857142857143,0.0004
66,0.8119965493679047,1.1252256631851196,0.7884615384615384,0.8846153846153846,0.7142857142857143,0.7142857142857143,0.0004
67,0.9622613191604614,0.6591697931289673,0.7692307692307693,0.8269230769230769,0.8571428571428571,0.7142857142857143,0.0004
68,0.9177790582180023,0.8641166687011719,0.6923076923076923,0.8846153846153846,0.7857142857142857,0.7857142857142857,0.0004
69,0.8549050688743591,1.1524569988250732,0.75,0.8653846153846154,0.6428571428571429,0.5714285714285714,0.0004
70,0.8222528398036957,0.7743433713912964,0.8076923076923077,0.8461538461538461,0.8571428571428571,0.7857142857142857,0.0004
71,0.8048561811447144,0.8457951545715332,0.75,0.8846153846153846,0.7857142857142857,0.8571428571428571,0.0004
72,0.7615925073623657,0.5777551531791687,0.8269230769230769,0.9038461538461539,1.0,0.7857142857142857,0.0004
73,0.7359993308782578,0.7067081928253174,0.8269230769230769,0.8653846153846154,0.8571428571428571,0.7857142857142857,0.0004
74,0.7101227045059204,1.458362102508545,0.8076923076923077,0.8846153846153846,0.35714285714285715,0.8571428571428571,0.0004
75,0.8018832504749298,0.8426016569137573,0.8076923076923077,0.9230769230769231,0.6428571428571429,0.9285714285714286,0.0004
76,0.7946181893348694,1.1906657218933105,0.8076923076923077,0.8846153846153846,0.5714285714285714,0.8571428571428571,0.0004
77,0.7898921370506287,0.795577883720398,0.7115384615384616,0.8846153846153846,0.8571428571428571,0.9285714285714286,0.0004
78,0.7283188998699188,1.076733112335205,0.8076923076923077,0.8846153846153846,0.7142857142857143,0.7857142857142857,0.0004
79,0.7363539934158325,1.0810940265655518,0.6730769230769231,0.9230769230769231,0.7142857142857143,0.7857142857142857,0.0004
80,0.6645727455615997,1.0326857566833496,0.8076923076923077,0.9423076923076923,0.7857142857142857,0.8571428571428571,0.0004
81,1.0336618423461914,0.9510617256164551,0.7115384615384616,0.8846153846153846,0.6428571428571429,0.8571428571428571,0.0004
82,0.6348179280757904,1.644161343574524,0.8846153846153846,0.8653846153846154,0.5714285714285714,0.7857142857142857,0.0004
83,0.8392292857170105,0.930219829082489,0.7307692307692307,0.9230769230769231,0.6428571428571429,0.8571428571428571,0.0004
84,0.835730791091919,1.420923113822937,0.75,0.8846153846153846,0.5714285714285714,0.8571428571428571,0.0004
85,0.600373774766922,0.8789713382720947,0.8653846153846154,0.8846153846153846,0.6428571428571429,1.0,0.0004
86,0.8792291283607483,1.1362462043762207,0.8076923076923077,0.8269230769230769,0.7142857142857143,0.9285714285714286,0.0004
87,0.6911917328834534,1.2461299896240234,0.8269230769230769,0.9038461538461539,0.5714285714285714,0.7857142857142857,0.0004
88,0.7751258909702301,1.557965874671936,0.75,0.9615384615384616,0.5,0.7857142857142857,0.0004
89,0.8404439687728882,1.0523420572280884,0.7884615384615384,0.8653846153846154,0.7142857142857143,0.7142857142857143,0.0004
90,0.6800269484519958,0.8933689594268799,0.8653846153846154,0.8846153846153846,0.6428571428571429,0.7857142857142857,0.0004
91,0.6977031826972961,1.0886266231536865,0.8076923076923077,0.9230769230769231,0.7857142857142857,0.7857142857142857,0.0004
92,0.6621671617031097,1.0057709217071533,0.7692307692307693,0.9423076923076923,0.7857142857142857,0.8571428571428571,0.0004
93,0.680863231420517,0.6355984210968018,0.8653846153846154,0.8461538461538461,0.8571428571428571,1.0,0.0004
94,0.615423858165741,0.9039884805679321,0.8269230769230769,0.8846153846153846,0.7857142857142857,0.8571428571428571,0.0004
95,0.7969697713851929,0.8451122641563416,0.8461538461538461,0.9230769230769231,0.8571428571428571,0.9285714285714286,0.0004
96,0.5305746495723724,0.9214120507240295,0.8846153846153846,0.9230769230769231,0.7857142857142857,0.7857142857142857,0.0004
97,0.5748207271099091,1.2127768993377686,0.8846153846153846,0.9038461538461539,0.7142857142857143,0.8571428571428571,0.0004
98,0.7093706429004669,1.4681546688079834,0.7884615384615384,0.9423076923076923,0.6428571428571429,0.7142857142857143,0.0004
99,0.8043249547481537,1.2989611625671387,0.7884615384615384,0.9038461538461539,0.6428571428571429,0.7142857142857143,0.0004
100,0.6651189029216766,0.7821841239929199,0.7115384615384616,0.9230769230769231,0.9285714285714286,0.9285714285714286,0.0004
101,0.5024585425853729,1.0966649055480957,0.8653846153846154,0.9230769230769231,0.8571428571428571,0.7857142857142857,0.0004
102,0.5002496838569641,1.1197878122329712,0.8461538461538461,0.9615384615384616,0.7857142857142857,0.8571428571428571,0.0004
103,0.6512764096260071,1.4120683670043945,0.8461538461538461,0.9423076923076923,0.5714285714285714,0.8571428571428571,0.0004
104,0.8572137951850891,1.4472432136535645,0.7884615384615384,0.9230769230769231,0.5714285714285714,0.7142857142857143,0.0004
105,0.6894744038581848,0.7720409631729126,0.8076923076923077,0.9230769230769231,0.7857142857142857,0.8571428571428571,0.0004
106,1.0530033707618713,0.8031231164932251,0.75,0.7884615384615384,0.7142857142857143,0.7142857142857143,0.0004
107,0.5518942326307297,0.6027596592903137,0.8653846153846154,0.8846153846153846,0.8571428571428571,0.8571428571428571,0.0004
108,0.6758112609386444,0.9675688147544861,0.8076923076923077,0.9038461538461539,0.7142857142857143,0.8571428571428571,0.0004
109,0.8006569445133209,0.8751398324966431,0.7115384615384616,0.9230769230769231,0.7142857142857143,0.7857142857142857,0.0004
110,0.8735637068748474,0.966894805431366,0.75,0.8653846153846154,0.7857142857142857,0.7857142857142857,0.0004
111,0.6318621635437012,1.1651338338851929,0.8461538461538461,0.9038461538461539,0.6428571428571429,0.7857142857142857,0.0004
112,0.6619831025600433,1.0920751094818115,0.8076923076923077,0.9230769230769231,0.7857142857142857,0.7857142857142857,0.0004
113,0.7056163549423218,1.00111985206604,0.7884615384615384,0.8653846153846154,0.8571428571428571,0.7857142857142857,0.0004
114,0.7773799896240234,1.1151126623153687,0.75,0.9230769230769231,0.7857142857142857,0.8571428571428571,0.0004
115,0.75226029753685,1.883622646331787,0.8461538461538461,0.8461538461538461,0.42857142857142855,0.7142857142857143,0.0004
116,0.7239120602607727,0.7950672507286072,0.7884615384615384,0.9230769230769231,0.8571428571428571,0.7142857142857143,0.0004
117,0.8296188414096832,1.201584815979004,0.7115384615384616,0.9038461538461539,0.5,0.9285714285714286,0.0004
118,0.7852572202682495,0.7989041805267334,0.7884615384615384,0.9230769230769231,0.7142857142857143,0.8571428571428571,0.0004
119,0.8522613644599915,1.0167230367660522,0.7115384615384616,0.8846153846153846,0.6428571428571429,0.8571428571428571,0.0004
120,0.7024206519126892,0.9198509454727173,0.8269230769230769,0.8846153846153846,0.6428571428571429,0.7857142857142857,0.0004
121,0.6448546946048737,0.872909426689148,0.8461538461538461,0.9230769230769231,0.7857142857142857,0.8571428571428571,0.0004
122,0.747267097234726,1.0142831802368164,0.7884615384615384,0.8846153846153846,0.7857142857142857,0.8571428571428571,0.0004
123,0.6651794910430908,1.0979394912719727,0.7884615384615384,0.9423076923076923,0.5714285714285714,0.7857142857142857,0.0004
124,0.5658681690692902,0.8684206008911133,0.8653846153846154,0.9230769230769231,0.8571428571428571,0.7857142857142857,0.0004
125,0.670846551656723,0.7776293754577637,0.7692307692307693,0.9423076923076923,0.8571428571428571,0.7142857142857143,0.0004
126,0.7682095766067505,0.8026831150054932,0.7692307692307693,0.8846153846153846,0.7857142857142857,0.6428571428571429,0.0004
127,0.6442422270774841,0.8439550399780273,0.8461538461538461,0.8846153846153846,0.5714285714285714,0.7857142857142857,0.0004
128,0.6191710233688354,0.8244367241859436,0.8653846153846154,0.9423076923076923,0.7142857142857143,1.0,0.0004
129,0.7070021033287048,1.2545148134231567,0.8076923076923077,0.9038461538461539,0.7142857142857143,0.7857142857142857,0.0004
130,0.523184210062027,1.1460494995117188,0.8846153846153846,0.9230769230769231,0.5714285714285714,0.8571428571428571,0.0004
131,0.7035932838916779,1.577030897140503,0.8461538461538461,0.8846153846153846,0.5,0.8571428571428571,0.0004
132,0.48574188351631165,0.965968668460846,0.8846153846153846,0.9038461538461539,0.7142857142857143,0.8571428571428571,0.0004
133,0.577849730849266,1.018739938735962,0.8269230769230769,0.9423076923076923,0.7142857142857143,0.7857142857142857,0.0004
134,0.6082561910152435,1.2662107944488525,0.8076923076923077,0.9038461538461539,0.7857142857142857,0.8571428571428571,0.0004
135,0.6541589796543121,1.213205337524414,0.8269230769230769,0.8269230769230769,0.8571428571428571,0.6428571428571429,0.0004
136,1.0148960947990417,0.9460798501968384,0.7692307692307693,0.8076923076923077,0.7142857142857143,0.8571428571428571,0.0004
137,0.8210545480251312,1.1528722047805786,0.6923076923076923,0.8461538461538461,0.7857142857142857,0.7857142857142857,0.0004
138,0.5714452564716339,1.262799859046936,0.9038461538461539,0.9038461538461539,0.7142857142857143,0.7857142857142857,0.0004
139,0.5202688872814178,1.3273811340332031,0.8653846153846154,0.8846153846153846,0.6428571428571429,0.8571428571428571,0.0004
140,0.7838720381259918,1.600536823272705,0.7692307692307693,0.8846153846153846,0.7142857142857143,0.7857142857142857,0.0004
141,0.7801457941532135,0.7608745098114014,0.7884615384615384,0.8653846153846154,0.8571428571428571,0.7142857142857143,0.0004
142,0.5087810903787613,1.1333186626434326,0.8269230769230769,0.9038461538461539,0.8571428571428571,0.7857142857142857,0.0004
143,0.7057241797447205,0.7742892503738403,0.8076923076923077,0.9230769230769231,0.7142857142857143,0.9285714285714286,0.0004
144,0.4973756670951843,0.8805697560310364,0.8653846153846154,0.8653846153846154,0.8571428571428571,0.7142857142857143,0.0004
145,0.6003575921058655,1.7392539978027344,0.8461538461538461,0.9423076923076923,0.5714285714285714,0.7142857142857143,0.0004
146,0.8050019443035126,1.1257402896881104,0.8076923076923077,0.9038461538461539,0.7857142857142857,0.7142857142857143,0.0004
147,0.48585061728954315,1.2577636241912842,0.8653846153846154,1.0,0.6428571428571429,0.9285714285714286,0.0004
148,0.6458098143339157,1.3955566883087158,0.7884615384615384,0.9038461538461539,0.6428571428571429,0.7857142857142857,0.0004
149,0.5275747776031494,1.0439547300338745,0.8461538461538461,0.9230769230769231,0.7857142857142857,0.7857142857142857,0.0004
150,0.6519156396389008,1.0888475179672241,0.8076923076923077,0.8846153846153846,0.7857142857142857,0.7142857142857143,0.0004
151,0.9162115305662155,1.3013955354690552,0.8076923076923077,0.8846153846153846,0.7857142857142857,0.7857142857142857,0.0004
152,0.4610193818807602,0.7796671986579895,0.8846153846153846,0.8846153846153846,0.8571428571428571,0.7857142857142857,0.0004
153,0.5745266824960709,1.4813055992126465,0.8076923076923077,0.9230769230769231,0.6428571428571429,0.8571428571428571,0.0004
154,0.523055911064148,1.2515647411346436,0.9423076923076923,0.9230769230769231,0.7857142857142857,0.8571428571428571,0.0004
155,0.549713134765625,0.9916070699691772,0.8269230769230769,0.9230769230769231,0.8571428571428571,0.7142857142857143,0.0004
156,0.6453360915184021,0.5257210731506348,0.8269230769230769,0.8846153846153846,0.8571428571428571,0.8571428571428571,0.0004
157,0.600018173456192,1.334132432937622,0.8846153846153846,0.8269230769230769,0.6428571428571429,0.7857142857142857,0.0004
158,0.6156134605407715,0.8972936868667603,0.7692307692307693,0.8461538461538461,0.7857142857142857,0.7857142857142857,0.0004
159,0.6059952676296234,0.7830543518066406,0.7884615384615384,0.9230769230769231,0.8571428571428571,0.7857142857142857,0.0004
160,0.742551177740097,1.2446306943893433,0.7692307692307693,0.9038461538461539,0.7142857142857143,0.8571428571428571,0.0004
161,0.6606070101261139,1.325262188911438,0.8461538461538461,0.9038461538461539,0.6428571428571429,0.9285714285714286,0.0004
162,0.4698570668697357,1.407400131225586,0.8461538461538461,0.9615384615384616,0.6428571428571429,0.7142857142857143,0.0004
163,0.45767925679683685,1.8238000869750977,0.8846153846153846,0.9423076923076923,0.6428571428571429,0.8571428571428571,0.0004
164,0.611782044172287,0.8758326768875122,0.7884615384615384,0.9807692307692307,0.8571428571428571,0.8571428571428571,0.0004
165,0.5503178834915161,1.1903027296066284,0.8076923076923077,0.9423076923076923,0.6428571428571429,0.9285714285714286,0.0004
166,0.44704529643058777,1.4709326028823853,0.9038461538461539,0.8846153846153846,0.6428571428571429,0.7857142857142857,0.0004
167,0.6216749846935272,1.0513215065002441,0.7692307692307693,0.9230769230769231,0.7142857142857143,0.7857142857142857,0.0004
168,0.835929661989212,1.1430206298828125,0.7307692307692307,0.8846153846153846,0.7857142857142857,0.7857142857142857,0.0004
169,0.5776737928390503,1.5054458379745483,0.7884615384615384,0.9230769230769231,0.8571428571428571,0.7142857142857143,0.0004
170,0.7309514880180359,1.3254971504211426,0.8076923076923077,0.8846153846153846,0.7142857142857143,0.7857142857142857,0.0004
171,0.6136941909790039,1.45647394657135,0.8461538461538461,0.9038461538461539,0.6428571428571429,0.7857142857142857,0.0004
172,0.5428723692893982,1.5680532455444336,0.8653846153846154,0.8846153846153846,0.7857142857142857,0.8571428571428571,0.0004
173,0.5839325189590454,1.1805614233016968,0.8846153846153846,0.9038461538461539,0.7142857142857143,0.9285714285714286,0.0004
174,0.3929377496242523,1.356431007385254,0.9038461538461539,0.9230769230769231,0.6428571428571429,0.8571428571428571,0.0004
175,0.5472544729709625,0.6885423064231873,0.8653846153846154,0.9615384615384616,0.8571428571428571,0.7857142857142857,0.0004
176,0.6041951477527618,0.9634888768196106,0.8269230769230769,0.8846153846153846,0.6428571428571429,0.9285714285714286,0.0004
177,0.6524899005889893,1.6530086994171143,0.8269230769230769,0.9230769230769231,0.6428571428571429,0.7857142857142857,0.0004
178,0.5086615979671478,1.4919049739837646,0.8653846153846154,0.9038461538461539,0.6428571428571429,0.7142857142857143,0.0004
179,0.5870749056339264,1.1532461643218994,0.8269230769230769,0.9038461538461539,0.7857142857142857,0.8571428571428571,0.0004
180,0.47040683031082153,1.4374648332595825,0.9038461538461539,0.9807692307692307,0.6428571428571429,0.7857142857142857,0.0004
181,0.6005099713802338,0.8909304738044739,0.8269230769230769,0.9230769230769231,0.7857142857142857,0.8571428571428571,0.0004
182,0.6653035581111908,1.2087496519088745,0.8461538461538461,0.8653846153846154,0.5714285714285714,0.9285714285714286,0.0004
183,0.45821793377399445,0.7274327278137207,0.8461538461538461,0.9230769230769231,0.7857142857142857,0.8571428571428571,0.0004
184,0.6487961709499359,0.8850774765014648,0.8461538461538461,0.9038461538461539,0.7857142857142857,0.7857142857142857,0.0004
185,0.46488718688488007,1.0091005563735962,0.9038461538461539,0.9038461538461539,0.7857142857142857,0.8571428571428571,0.0004
186,0.4910030961036682,1.0700697898864746,0.8653846153846154,0.9615384615384616,0.8571428571428571,0.7142857142857143,0.0004
187,0.5242345184087753,0.48536616563796997,0.8461538461538461,0.9230769230769231,0.8571428571428571,0.7857142857142857,0.0004
188,0.6458631455898285,1.151768445968628,0.8461538461538461,0.8653846153846154,0.7142857142857143,0.9285714285714286,0.0004
189,0.5289246141910553,1.3089338541030884,0.8269230769230769,0.9423076923076923,0.7142857142857143,0.9285714285714286,0.0004
190,0.6139709204435349,0.9707775115966797,0.8461538461538461,0.9038461538461539,0.7857142857142857,0.8571428571428571,0.0004
191,0.6033514887094498,1.2865221500396729,0.8653846153846154,0.9038461538461539,0.6428571428571429,0.7857142857142857,0.0004
192,0.5394507646560669,1.229500651359558,0.8461538461538461,0.9807692307692307,0.7142857142857143,0.7857142857142857,0.0004
193,0.5956706702709198,0.9278161525726318,0.8846153846153846,0.9230769230769231,0.7142857142857143,0.8571428571428571,0.0004
194,0.6560078263282776,1.0356779098510742,0.8461538461538461,0.9423076923076923,0.5714285714285714,0.7857142857142857,0.0004
195,0.4253625273704529,1.1184017658233643,0.8653846153846154,1.0,0.6428571428571429,0.7857142857142857,0.0004
196,0.49355968832969666,0.9725022912025452,0.8653846153846154,0.9807692307692307,0.6428571428571429,0.7857142857142857,0.0004
197,0.7628718018531799,0.792148232460022,0.7884615384615384,0.8653846153846154,0.7857142857142857,0.7857142857142857,0.0004
198,0.6276008188724518,1.3657019138336182,0.8269230769230769,0.9038461538461539,0.6428571428571429,0.7142857142857143,0.0004
199,0.8109869658946991,0.867650032043457,0.7692307692307693,0.9038461538461539,0.7142857142857143,0.8571428571428571,0.0004
200,0.595665916800499,0.9427651166915894,0.7884615384615384,0.9038461538461539,0.7142857142857143,0.7857142857142857,0.0004
201,0.4768483191728592,1.2170827388763428,0.8653846153846154,0.9423076923076923,0.6428571428571429,0.8571428571428571,0.0004
202,0.4110799580812454,0.7064968347549438,0.8653846153846154,0.9807692307692307,0.6428571428571429,0.8571428571428571,0.0004
203,0.5757658183574677,0.6956961154937744,0.8076923076923077,0.9423076923076923,0.7857142857142857,0.8571428571428571,0.0004
204,0.635931670665741,0.888378381729126,0.8461538461538461,0.9038461538461539,0.7857142857142857,0.8571428571428571,0.0004
205,0.8643569648265839,1.217679738998413,0.7115384615384616,0.9038461538461539,0.7857142857142857,0.7857142857142857,0.0004
206,0.5902064144611359,0.9069647192955017,0.8653846153846154,0.9423076923076923,0.7857142857142857,0.8571428571428571,0.0004
207,0.5847314894199371,1.1072916984558105,0.8269230769230769,0.9423076923076923,0.7857142857142857,0.7142857142857143,0.0004
208,0.4989972412586212,0.8138792514801025,0.8846153846153846,0.9807692307692307,0.7857142857142857,0.8571428571428571,0.0004
209,0.5899544656276703,0.675214409828186,0.8461538461538461,0.9038461538461539,0.8571428571428571,0.9285714285714286,0.0004
210,0.7322395443916321,1.156359076499939,0.7884615384615384,0.9230769230769231,0.5714285714285714,0.7857142857142857,0.0004
211,0.6411354094743729,0.8439867496490479,0.8269230769230769,0.9423076923076923,0.7142857142857143,0.8571428571428571,0.0004
212,0.5236707627773285,1.4272985458374023,0.8653846153846154,0.9038461538461539,0.6428571428571429,0.7857142857142857,0.0004
213,0.5680155754089355,0.9101119041442871,0.8461538461538461,0.9038461538461539,0.7857142857142857,0.8571428571428571,0.0004
214,0.6416527032852173,1.161188006401062,0.7884615384615384,0.9615384615384616,0.5714285714285714,1.0,0.0004
215,0.7594133019447327,1.2277711629867554,0.7884615384615384,0.8846153846153846,0.7857142857142857,0.7142857142857143,0.0004
216,0.4308217763900757,1.1855186223983765,0.8846153846153846,0.9615384615384616,0.5714285714285714,0.8571428571428571,0.0004
217,0.4024808406829834,0.7810329794883728,0.8846153846153846,0.9615384615384616,0.7142857142857143,0.7857142857142857,0.0004
218,0.4282167851924896,0.7379978895187378,0.9038461538461539,0.9423076923076923,0.8571428571428571,0.7857142857142857,0.0004
219,0.5200410783290863,0.8216159343719482,0.8653846153846154,0.9423076923076923,0.7857142857142857,0.7857142857142857,0.0004
220,0.5693920999765396,0.7808300256729126,0.8846153846153846,0.8846153846153846,0.8571428571428571,0.7857142857142857,0.0004
221,0.68691685795784,1.212024450302124,0.8076923076923077,0.9230769230769231,0.5714285714285714,0.9285714285714286,0.0004
222,0.6451522707939148,0.8055290579795837,0.8269230769230769,0.8846153846153846,0.7142857142857143,0.8571428571428571,0.0004
223,0.44400903582572937,0.9911419153213501,0.8846153846153846,0.9615384615384616,0.7857142857142857,0.7142857142857143,0.0004
224,0.4557958096265793,1.1246439218521118,0.9038461538461539,0.9615384615384616,0.7857142857142857,0.7857142857142857,0.0004
225,0.6232958436012268,1.1206388473510742,0.8653846153846154,0.9423076923076923,0.7142857142857143,0.7857142857142857,0.0004
226,0.5449110865592957,0.8822619318962097,0.8461538461538461,0.9230769230769231,0.8571428571428571,0.7142857142857143,0.0004
227,0.6266419887542725,0.9837870597839355,0.8461538461538461,0.9230769230769231,0.6428571428571429,0.7857142857142857,0.0004
228,0.6274420320987701,1.3820524215698242,0.8269230769230769,0.9230769230769231,0.8571428571428571,0.7142857142857143,0.0004
229,0.7721475660800934,0.910841166973114,0.7884615384615384,0.9038461538461539,0.7142857142857143,0.7857142857142857,0.0004
230,0.3982507437467575,0.5570177435874939,0.9230769230769231,0.9423076923076923,1.0,0.7857142857142857,0.0004
231,0.45975160598754883,1.8602066040039062,0.8846153846153846,0.9230769230769231,0.6428571428571429,0.6428571428571429,0.0004
232,0.5450945198535919,1.3049769401550293,0.8653846153846154,0.9423076923076923,0.6428571428571429,0.7857142857142857,0.0004
233,0.5469852238893509,1.2331178188323975,0.7692307692307693,0.9230769230769231,0.6428571428571429,0.7142857142857143,0.0004
234,0.779149979352951,0.7900986671447754,0.7307692307692307,0.9038461538461539,0.7857142857142857,0.9285714285714286,0.0004
235,0.5287195444107056,1.0220363140106201,0.8653846153846154,0.9230769230769231,0.7857142857142857,0.8571428571428571,0.0004
236,0.5559659451246262,1.264897108078003,0.7884615384615384,0.9807692307692307,0.7857142857142857,0.8571428571428571,0.0004
237,0.5811823904514313,1.1506311893463135,0.8461538461538461,0.9038461538461539,0.7857142857142857,0.7857142857142857,0.0004
238,0.4567321538925171,1.423393964767456,0.8653846153846154,0.9423076923076923,0.7857142857142857,0.7857142857142857,0.0004
239,0.5169633626937866,1.5280275344848633,0.8269230769230769,0.9423076923076923,0.6428571428571429,0.8571428571428571,0.0004
240,0.8011892437934875,0.8751291632652283,0.7884615384615384,0.9423076923076923,0.7142857142857143,0.9285714285714286,0.0004
241,0.680738627910614,1.0315598249435425,0.8076923076923077,0.9038461538461539,0.7857142857142857,0.7857142857142857,0.0004
242,0.7480535805225372,0.9954525232315063,0.8269230769230769,0.9038461538461539,0.8571428571428571,0.7857142857142857,0.0004
243,0.5277454853057861,0.8912658095359802,0.8653846153846154,0.9615384615384616,0.7142857142857143,1.0,0.0004
244,0.44218797981739044,0.9433107376098633,0.8461538461538461,0.9230769230769231,0.7142857142857143,0.8571428571428571,0.0004
245,0.43297208845615387,0.8001569509506226,0.9038461538461539,0.9423076923076923,0.7857142857142857,0.7857142857142857,0.0004
246,0.7906688749790192,1.0950647592544556,0.8653846153846154,0.9038461538461539,0.5714285714285714,0.7857142857142857,0.0004
247,0.49433407187461853,1.0406984090805054,0.8461538461538461,0.9230769230769231,0.5714285714285714,0.7142857142857143,0.0004
248,0.6190975308418274,0.9081519842147827,0.8461538461538461,0.9423076923076923,0.5714285714285714,0.8571428571428571,0.0004
249,0.520974650979042,1.0021716356277466,0.8653846153846154,0.9423076923076923,0.7142857142857143,0.8571428571428571,0.0004
250,0.5203655362129211,1.2725327014923096,0.8846153846153846,0.8846153846153846,0.7142857142857143,0.7857142857142857,0.0004
251,0.38914209604263306,0.9303052425384521,0.8846153846153846,0.9807692307692307,0.7857142857142857,0.6428571428571429,0.0004
252,0.5913658291101456,0.7189487218856812,0.8653846153846154,0.9230769230769231,0.6428571428571429,0.9285714285714286,0.0004
253,0.6438180208206177,0.5815741419792175,0.8076923076923077,0.9230769230769231,0.9285714285714286,0.7142857142857143,0.0004
254,0.6426079571247101,0.9102712273597717,0.8269230769230769,0.9038461538461539,0.7857142857142857,0.9285714285714286,0.0004
255,0.5729974806308746,0.9434489011764526,0.8076923076923077,0.8846153846153846,0.7857142857142857,0.7857142857142857,0.0004
256,0.5861147493124008,1.3588074445724487,0.8269230769230769,0.9230769230769231,0.7142857142857143,0.7857142857142857,0.0004
257,0.49026063084602356,0.7428049445152283,0.8846153846153846,0.9423076923076923,0.8571428571428571,0.8571428571428571,0.0004
258,0.5942309498786926,0.9331709742546082,0.8269230769230769,0.9423076923076923,0.7142857142857143,0.8571428571428571,0.0004
259,0.4437430053949356,0.8160994648933411,0.8653846153846154,0.9615384615384616,0.7142857142857143,0.9285714285714286,0.0004
260,0.3808235228061676,1.6361548900604248,0.8846153846153846,0.9807692307692307,0.5,0.8571428571428571,0.0004
261,0.5023315846920013,1.724171757698059,0.8461538461538461,0.9615384615384616,0.5714285714285714,0.7142857142857143,0.0004
262,0.509581908583641,1.021943211555481,0.8076923076923077,0.9615384615384616,0.6428571428571429,0.8571428571428571,0.0004
263,0.5314831733703613,1.3622229099273682,0.8076923076923077,0.9423076923076923,0.6428571428571429,0.7857142857142857,0.0004
264,0.5339322090148926,1.1658259630203247,0.8461538461538461,0.9230769230769231,0.7857142857142857,0.9285714285714286,0.0004
265,0.5559934079647064,1.0250591039657593,0.8076923076923077,0.9807692307692307,0.7857142857142857,0.8571428571428571,0.0004
266,0.5396150946617126,1.292972445487976,0.8076923076923077,0.9230769230769231,0.6428571428571429,0.9285714285714286,0.0004
267,0.5373508483171463,2.0070250034332275,0.8461538461538461,0.9423076923076923,0.6428571428571429,0.7857142857142857,0.0004
268,0.5983156859874725,1.0801526308059692,0.8846153846153846,0.9423076923076923,0.7857142857142857,0.7857142857142857,0.0004
269,0.5877381861209869,0.5619317293167114,0.8269230769230769,0.9230769230769231,0.9285714285714286,0.9285714285714286,0.0004
270,0.4844304025173187,0.8438423275947571,0.8461538461538461,0.9038461538461539,0.9285714285714286,0.7857142857142857,0.0004
271,0.41211529076099396,1.7443346977233887,0.9038461538461539,0.9038461538461539,0.7142857142857143,0.7857142857142857,0.0004
272,0.3821256458759308,0.8386216163635254,0.9230769230769231,0.8653846153846154,0.7142857142857143,0.7857142857142857,0.0004
273,0.5002048462629318,1.1163009405136108,0.9423076923076923,0.9807692307692307,0.7857142857142857,0.8571428571428571,0.0004
274,0.4241422116756439,1.222490906715393,0.9038461538461539,0.9230769230769231,0.7142857142857143,0.7857142857142857,0.0004
275,0.42282019555568695,0.7727631330490112,0.8653846153846154,0.9423076923076923,0.7857142857142857,0.8571428571428571,0.0004
276,0.5246444195508957,0.9311087131500244,0.8461538461538461,0.9423076923076923,0.8571428571428571,0.8571428571428571,0.0004
277,0.7065947949886322,1.3985366821289062,0.8076923076923077,0.8653846153846154,0.7142857142857143,0.7857142857142857,0.0004
278,0.8360631167888641,1.743805170059204,0.8269230769230769,0.8653846153846154,0.6428571428571429,0.9285714285714286,0.0004
279,0.565952479839325,0.6066647171974182,0.8653846153846154,0.9230769230769231,0.8571428571428571,0.7857142857142857,0.0004
280,0.30586713552474976,1.215165615081787,0.9423076923076923,0.9807692307692307,0.7142857142857143,0.8571428571428571,0.0004
281,0.7708377242088318,1.2152031660079956,0.7884615384615384,0.9230769230769231,0.6428571428571429,0.8571428571428571,0.0004
282,0.4781823307275772,1.6093499660491943,0.9038461538461539,0.9423076923076923,0.5,0.9285714285714286,0.0004
283,0.5421189069747925,1.8390711545944214,0.9038461538461539,0.8846153846153846,0.5714285714285714,0.7857142857142857,0.0004
284,0.5340258777141571,0.8472180366516113,0.9230769230769231,0.9230769230769231,0.8571428571428571,0.7857142857142857,0.0004
285,0.5193382650613785,0.8761147260665894,0.8846153846153846,0.9038461538461539,0.7857142857142857,0.7857142857142857,0.0004
286,0.46483592689037323,1.320995569229126,0.8653846153846154,0.9615384615384616,0.7142857142857143,0.7857142857142857,0.0004
287,0.5783763527870178,0.909809947013855,0.8846153846153846,0.9615384615384616,0.8571428571428571,0.7857142857142857,0.0004
288,0.6349560618400574,0.8383367657661438,0.7884615384615384,0.9230769230769231,0.8571428571428571,0.7857142857142857,0.0004
289,0.4427906274795532,1.0315005779266357,0.8461538461538461,0.9615384615384616,0.7857142857142857,0.8571428571428571,0.0004
290,0.62949138879776,0.9973448514938354,0.8653846153846154,0.9230769230769231,0.7857142857142857,0.8571428571428571,0.0004
291,0.44302377104759216,1.167832612991333,0.8653846153846154,0.8846153846153846,0.7857142857142857,0.7857142857142857,0.0004
292,0.6839320659637451,1.115682601928711,0.8076923076923077,0.9230769230769231,0.7142857142857143,0.8571428571428571,0.0004
293,0.63127002120018,0.967615008354187,0.8269230769230769,0.9423076923076923,0.7142857142857143,0.7857142857142857,0.0004
294,0.509186252951622,0.8468313813209534,0.8653846153846154,0.9230769230769231,0.7857142857142857,0.8571428571428571,0.0004
295,0.5481259375810623,1.0699119567871094,0.8076923076923077,0.9423076923076923,0.5714285714285714,0.8571428571428571,0.0004
296,0.4130503237247467,0.8188146352767944,0.8653846153846154,0.9615384615384616,0.8571428571428571,0.7142857142857143,0.0004
297,0.453055277466774,1.1578998565673828,0.8269230769230769,0.9423076923076923,0.8571428571428571,0.7142857142857143,0.0004
298,0.41913817822933197,1.1996034383773804,0.8653846153846154,0.9615384615384616,0.7142857142857143,0.7857142857142857,0.0004
299,0.39144285023212433,0.8084516525268555,0.8846153846153846,0.9423076923076923,0.7142857142857143,0.9285714285714286,0.0004
300,0.4984648525714874,1.3083834648132324,0.8461538461538461,0.9230769230769231,0.7857142857142857,0.7857142857142857,0.0004
301,0.55237977206707,0.997767984867096,0.8846153846153846,0.9230769230769231,0.7857142857142857,0.8571428571428571,0.0004
302,0.5359081923961639,1.2284245491027832,0.8653846153846154,0.9038461538461539,0.7857142857142857,0.8571428571428571,0.0004
303,0.46733511984348297,0.8130769729614258,0.8461538461538461,0.9807692307692307,0.7857142857142857,0.8571428571428571,0.0004
304,0.5700269043445587,0.9528802633285522,0.8461538461538461,0.9423076923076923,0.6428571428571429,0.7142857142857143,0.0004
305,0.38859374821186066,0.6234186291694641,0.9038461538461539,0.9038461538461539,0.7142857142857143,0.9285714285714286,0.0004
306,0.5605565160512924,1.1819658279418945,0.8653846153846154,0.9230769230769231,0.7857142857142857,0.7142857142857143,0.0004
307,0.7639876902103424,1.1098662614822388,0.8461538461538461,0.9230769230769231,0.6428571428571429,0.8571428571428571,0.0004
308,0.43059490621089935,1.6470818519592285,0.8461538461538461,0.9615384615384616,0.6428571428571429,0.7857142857142857,0.0004
309,0.4785432368516922,1.657667875289917,0.8846153846153846,0.9230769230769231,0.7142857142857143,0.6428571428571429,0.0004
310,0.49229244887828827,1.8125264644622803,0.8846153846153846,0.9230769230769231,0.5714285714285714,0.7142857142857143,0.0004
311,0.5034587681293488,0.6855050921440125,0.8846153846153846,0.9807692307692307,0.9285714285714286,0.7857142857142857,0.0004
312,0.38133829832077026,0.5905441641807556,0.8846153846153846,0.9423076923076923,0.8571428571428571,0.7857142857142857,0.0004
313,0.37999068200588226,0.7044982314109802,0.9038461538461539,0.9615384615384616,0.7857142857142857,0.8571428571428571,0.0004
314,0.47668761014938354,0.8007774353027344,0.9038461538461539,0.9615384615384616,0.7857142857142857,0.9285714285714286,0.0004
315,0.4099724143743515,1.003318190574646,0.8461538461538461,0.9615384615384616,0.7857142857142857,0.7142857142857143,0.0004
316,0.46376511454582214,1.056739091873169,0.8461538461538461,0.9615384615384616,0.7142857142857143,1.0,0.0004
317,0.5625206828117371,0.8516777753829956,0.8076923076923077,0.9615384615384616,0.7857142857142857,0.8571428571428571,0.0004
318,0.4343828558921814,0.5656061172485352,0.8846153846153846,0.9615384615384616,0.9285714285714286,0.8571428571428571,0.0004
319,0.36317290365695953,0.6829319000244141,0.9230769230769231,0.9230769230769231,0.9285714285714286,0.7142857142857143,0.0004
320,0.5243075489997864,1.0473144054412842,0.9038461538461539,0.9230769230769231,0.8571428571428571,0.8571428571428571,0.0004
321,0.5304078608751297,0.7207280397415161,0.8846153846153846,0.9615384615384616,0.9285714285714286,0.7142857142857143,0.0004
322,0.6337286233901978,1.029040813446045,0.8269230769230769,0.9230769230769231,0.7857142857142857,0.8571428571428571,0.0004
323,0.642966091632843,1.329077959060669,0.9230769230769231,0.8846153846153846,0.7142857142857143,0.7857142857142857,0.0004
324,0.8271514773368835,0.9611223936080933,0.8269230769230769,0.8653846153846154,0.7142857142857143,0.8571428571428571,0.0004
325,0.49041277170181274,1.3401553630828857,0.8653846153846154,0.9230769230769231,0.6428571428571429,0.7857142857142857,0.0004
326,0.43225395679473877,1.4079492092132568,0.8846153846153846,0.9230769230769231,0.5714285714285714,0.7857142857142857,0.0004
327,0.4301045835018158,1.1793279647827148,0.8846153846153846,0.9230769230769231,0.7857142857142857,0.7857142857142857,0.0004
328,0.8595045506954193,0.9620665311813354,0.8076923076923077,0.8461538461538461,0.8571428571428571,0.7857142857142857,0.0004
329,0.4496997892856598,1.1586281061172485,0.8653846153846154,0.9615384615384616,0.7857142857142857,0.9285714285714286,0.0004
330,0.3448950797319412,1.5393646955490112,0.9038461538461539,0.9423076923076923,0.5,1.0,0.0004
331,0.35804426670074463,0.6999760866165161,0.8653846153846154,0.9423076923076923,0.7857142857142857,0.7857142857142857,0.0004
332,0.8478713035583496,1.8127186298370361,0.8269230769230769,0.9230769230769231,0.6428571428571429,0.5714285714285714,0.0004
333,0.5138586759567261,0.6581426858901978,0.8461538461538461,0.9230769230769231,0.9285714285714286,0.8571428571428571,0.0004
334,0.6043591201305389,1.6779201030731201,0.8461538461538461,0.9230769230769231,0.6428571428571429,0.9285714285714286,0.0004
335,0.6988303363323212,1.8136928081512451,0.8653846153846154,0.9230769230769231,0.6428571428571429,0.7142857142857143,0.0004
336,0.693668931722641,0.8502410054206848,0.8269230769230769,0.9615384615384616,0.7857142857142857,0.7857142857142857,0.0004
337,0.462235689163208,1.4791316986083984,0.9038461538461539,0.9423076923076923,0.6428571428571429,0.7857142857142857,0.0004
338,0.5665200054645538,0.815459132194519,0.7884615384615384,0.9230769230769231,0.7142857142857143,0.7857142857142857,0.0004
339,0.3926678001880646,0.8659037351608276,0.9423076923076923,0.9423076923076923,0.7857142857142857,0.9285714285714286,0.0004
340,0.4943644851446152,0.8995636701583862,0.8461538461538461,0.9615384615384616,0.7857142857142857,0.8571428571428571,0.0004
341,0.44193926453590393,0.9323281049728394,0.9038461538461539,0.8846153846153846,0.8571428571428571,0.7142857142857143,0.0004
342,0.39795583486557007,1.6139858961105347,0.8653846153846154,0.9038461538461539,0.5714285714285714,0.9285714285714286,0.0004
343,0.6407155990600586,0.9938341379165649,0.8846153846153846,0.8653846153846154,0.8571428571428571,0.8571428571428571,0.0004
344,0.39470499753952026,1.3143444061279297,0.9423076923076923,0.9423076923076923,0.7857142857142857,0.8571428571428571,0.0004
345,0.559885784983635,1.036345362663269,0.8269230769230769,0.9423076923076923,0.7142857142857143,0.7857142857142857,0.0004
346,0.4394298940896988,0.9318997263908386,0.8653846153846154,0.9230769230769231,0.7857142857142857,0.8571428571428571,0.0004
347,0.3963555693626404,1.2968419790267944,0.9038461538461539,0.9038461538461539,0.7142857142857143,0.9285714285714286,0.0004
348,0.5447771996259689,1.1928789615631104,0.8461538461538461,0.9423076923076923,0.7857142857142857,0.7142857142857143,0.0004
349,0.5632797628641129,1.601381778717041,0.8461538461538461,0.9423076923076923,0.5,0.8571428571428571,0.0004
350,0.5377090871334076,1.0375683307647705,0.9038461538461539,0.9230769230769231,0.7857142857142857,0.7857142857142857,0.0004
351,0.4768679440021515,1.060878038406372,0.8846153846153846,0.9423076923076923,0.6428571428571429,0.8571428571428571,0.0004
352,0.5505317449569702,0.6460737586021423,0.9230769230769231,0.9230769230769231,0.8571428571428571,0.8571428571428571,0.0004
353,0.4078730195760727,0.9637064933776855,0.9230769230769231,0.9038461538461539,0.9285714285714286,0.7857142857142857,0.0004
354,0.44887371361255646,0.9994279146194458,0.8653846153846154,0.9423076923076923,0.7142857142857143,0.7857142857142857,0.0004
355,0.3468252941966057,1.1560839414596558,0.9230769230769231,0.9423076923076923,0.5,0.8571428571428571,0.0004
356,0.5621552467346191,0.6361230611801147,0.8461538461538461,0.8846153846153846,0.7857142857142857,0.9285714285714286,0.0004
357,0.44396787881851196,1.17959725856781,0.9038461538461539,0.9423076923076923,0.7857142857142857,0.7857142857142857,0.0004
358,0.6013509333133698,0.7304997444152832,0.8269230769230769,0.9038461538461539,0.8571428571428571,0.7857142857142857,0.0004
359,0.5213402807712555,1.60139799118042,0.8269230769230769,0.9230769230769231,0.6428571428571429,0.8571428571428571,0.0004
360,0.36593955755233765,0.7301056385040283,0.9038461538461539,0.9615384615384616,0.8571428571428571,0.7857142857142857,0.0004
361,0.3849111795425415,1.6188035011291504,0.9038461538461539,0.9615384615384616,0.6428571428571429,0.9285714285714286,0.0004
362,0.481438547372818,1.3045872449874878,0.8269230769230769,0.9615384615384616,0.6428571428571429,0.9285714285714286,0.0004
363,0.3452623710036278,1.132690668106079,0.9038461538461539,0.9423076923076923,0.7142857142857143,0.9285714285714286,0.0004
364,0.4454478621482849,1.6389375925064087,0.8269230769230769,0.9423076923076923,0.7857142857142857,0.7857142857142857,0.0004
365,0.6807191073894501,1.2733147144317627,0.8653846153846154,0.9038461538461539,0.6428571428571429,0.7857142857142857,0.0004
366,0.507028192281723,1.1080114841461182,0.8653846153846154,0.9423076923076923,0.8571428571428571,0.8571428571428571,0.0004
367,0.49528762698173523,1.3708666563034058,0.9038461538461539,0.9615384615384616,0.7857142857142857,0.7857142857142857,0.0004
368,0.3142286688089371,2.0283870697021484,0.9038461538461539,0.9615384615384616,0.6428571428571429,0.6428571428571429,0.0004
369,0.39103853702545166,1.440640926361084,0.9230769230769231,0.9423076923076923,0.6428571428571429,0.7857142857142857,0.0004
370,0.3177219107747078,0.9086834788322449,0.9230769230769231,0.9615384615384616,0.9285714285714286,0.7142857142857143,0.0004
371,0.8323706388473511,0.7962120771408081,0.7692307692307693,0.8653846153846154,0.8571428571428571,0.7857142857142857,0.0004
372,0.7033993005752563,0.689178466796875,0.8269230769230769,0.8461538461538461,0.7142857142857143,0.8571428571428571,0.0004
373,0.35296881198883057,0.813591718673706,0.9230769230769231,0.9423076923076923,0.8571428571428571,0.8571428571428571,0.0004
374,0.5336152166128159,0.8037474155426025,0.7884615384615384,0.9038461538461539,0.7857142857142857,0.7857142857142857,0.0004
375,0.6949945241212845,0.9272052645683289,0.8076923076923077,0.9230769230769231,0.7857142857142857,0.7857142857142857,0.0004
376,0.4760872721672058,1.086428165435791,0.9038461538461539,0.9230769230769231,0.8571428571428571,0.7142857142857143,0.0004
377,0.3851497173309326,1.226468801498413,0.8461538461538461,1.0,0.8571428571428571,0.8571428571428571,0.0004
378,0.6077815592288971,0.9792129993438721,0.8269230769230769,0.9038461538461539,0.7857142857142857,0.9285714285714286,0.0004
379,0.7471837401390076,1.2091995477676392,0.8846153846153846,0.9230769230769231,0.7142857142857143,0.8571428571428571,0.0004
380,0.5264013409614563,0.86524498462677,0.8269230769230769,0.9423076923076923,0.7142857142857143,0.7857142857142857,0.0004
381,0.27716676890850067,1.2079648971557617,0.9615384615384616,0.9615384615384616,0.7857142857142857,0.8571428571428571,0.0004
382,0.3666841387748718,0.8812960982322693,0.9423076923076923,0.9423076923076923,0.8571428571428571,0.7142857142857143,0.0004
383,0.5886841863393784,1.5076484680175781,0.8653846153846154,0.9423076923076923,0.7857142857142857,0.7857142857142857,0.0004
384,0.38124699145555496,1.845576286315918,0.9038461538461539,0.9423076923076923,0.6428571428571429,0.7857142857142857,0.0004
385,0.49057820439338684,0.9762957096099854,0.8653846153846154,0.8846153846153846,0.8571428571428571,0.7857142857142857,0.0004
386,0.43996433913707733,1.7401478290557861,0.8461538461538461,0.9423076923076923,0.5714285714285714,0.9285714285714286,0.0004
387,0.5325125455856323,1.5973789691925049,0.8653846153846154,0.9423076923076923,0.6428571428571429,0.7142857142857143,0.0004
388,0.41442590951919556,0.641263484954834,0.8846153846153846,0.9423076923076923,0.8571428571428571,0.8571428571428571,0.0004
389,0.36927296221256256,1.5917444229125977,0.8269230769230769,0.9807692307692307,0.7857142857142857,0.7142857142857143,0.0004
390,0.33626264333724976,0.7382867336273193,0.9615384615384616,0.9615384615384616,0.9285714285714286,0.7142857142857143,0.0004
391,0.5279029905796051,0.5324755907058716,0.9038461538461539,0.9038461538461539,0.9285714285714286,0.7857142857142857,0.0004
392,0.511928379535675,0.7177560329437256,0.8461538461538461,0.9230769230769231,0.8571428571428571,0.8571428571428571,0.0004
393,0.5012574046850204,1.154410719871521,0.8269230769230769,0.9615384615384616,0.6428571428571429,0.8571428571428571,0.0004
394,0.4316025525331497,1.8296685218811035,0.8846153846153846,0.9038461538461539,0.7142857142857143,0.7857142857142857,0.0004
395,0.27873700857162476,0.8336813449859619,0.9230769230769231,0.9615384615384616,0.7857142857142857,0.7857142857142857,0.0004
396,0.33849969506263733,0.890332818031311,0.9038461538461539,0.9807692307692307,0.7857142857142857,0.8571428571428571,0.0004
397,0.36303170025348663,0.6856033802032471,0.8846153846153846,0.9807692307692307,0.8571428571428571,0.8571428571428571,0.0004
398,0.5377256125211716,1.8673629760742188,0.8076923076923077,0.9230769230769231,0.7142857142857143,0.7857142857142857,0.0004
399,0.5072330385446548,1.8487610816955566,0.8269230769230769,0.9230769230769231,0.6428571428571429,0.7857142857142857,0.0004
400,0.3967221826314926,1.7134077548980713,0.8846153846153846,0.9807692307692307,0.7142857142857143,0.7857142857142857,0.0004
401,0.7342458665370941,1.0304619073867798,0.7692307692307693,0.9423076923076923,0.7857142857142857,0.9285714285714286,0.0004
402,0.5276795625686646,1.137603998184204,0.9038461538461539,0.9038461538461539,0.7857142857142857,0.7857142857142857,0.0004
403,0.4876708984375,1.0003142356872559,0.9230769230769231,0.9230769230769231,0.8571428571428571,0.6428571428571429,0.0004
404,0.35475559532642365,1.0723507404327393,0.9038461538461539,0.9807692307692307,0.9285714285714286,0.7857142857142857,0.0004
405,0.47134771943092346,1.848482608795166,0.8269230769230769,0.9615384615384616,0.6428571428571429,0.7857142857142857,0.0004
406,0.4506224989891052,1.4566497802734375,0.8461538461538461,0.9615384615384616,0.7142857142857143,0.7857142857142857,0.0004
407,0.5705021917819977,0.674726665019989,0.8653846153846154,0.9038461538461539,0.9285714285714286,0.8571428571428571,0.0004
408,0.7010592222213745,0.5069448947906494,0.8653846153846154,0.8846153846153846,0.9285714285714286,0.9285714285714286,0.0004
409,0.4490661025047302,1.635364294052124,0.8269230769230769,0.9807692307692307,0.8571428571428571,0.5714285714285714,0.0004
410,0.48916202783584595,0.9872188568115234,0.8653846153846154,0.9423076923076923,0.7857142857142857,0.7857142857142857,0.0004
411,1.1349515914916992,0.941248893737793,0.75,0.8269230769230769,0.7857142857142857,0.6428571428571429,0.0004
412,0.38794682919979095,0.5752158164978027,0.8846153846153846,0.9615384615384616,0.9285714285714286,0.7857142857142857,0.0004
413,0.396563857793808,0.9692422151565552,0.8846153846153846,0.9423076923076923,0.7857142857142857,0.7857142857142857,0.0004
414,0.5801010429859161,1.6597514152526855,0.7692307692307693,0.9230769230769231,0.5714285714285714,0.8571428571428571,0.0004
415,0.4799669682979584,1.389434576034546,0.8653846153846154,0.9423076923076923,0.6428571428571429,0.8571428571428571,0.0004
416,0.4016915410757065,1.2184481620788574,0.8846153846153846,0.9615384615384616,0.7142857142857143,0.7857142857142857,0.0004
417,0.5284265875816345,1.4533286094665527,0.8461538461538461,0.9038461538461539,0.6428571428571429,0.7857142857142857,0.0004
418,0.7578338086605072,0.8924145698547363,0.7692307692307693,0.8653846153846154,0.7142857142857143,0.9285714285714286,0.0004
419,0.5083766132593155,0.7584189176559448,0.7884615384615384,0.9615384615384616,0.8571428571428571,0.8571428571428571,0.0004
420,0.3154299259185791,1.2341777086257935,0.9230769230769231,0.9230769230769231,0.7857142857142857,0.7857142857142857,0.0004
421,0.4876389354467392,1.3036158084869385,0.9423076923076923,0.9230769230769231,0.8571428571428571,0.7142857142857143,0.0004
422,0.39592699706554413,0.962838888168335,0.9423076923076923,0.8653846153846154,0.7857142857142857,0.7857142857142857,0.0004
423,0.47190701961517334,0.6747168898582458,0.8846153846153846,0.9038461538461539,0.8571428571428571,0.9285714285714286,0.0004
424,0.3655878156423569,0.5021114349365234,0.9615384615384616,0.9230769230769231,0.8571428571428571,1.0,0.0004
425,0.6751145273447037,0.8851190805435181,0.8076923076923077,0.9230769230769231,0.8571428571428571,0.8571428571428571,0.0004
426,0.5078584104776382,0.8802699446678162,0.9038461538461539,0.8846153846153846,0.7857142857142857,0.8571428571428571,0.0004
427,0.5954140424728394,0.7361528277397156,0.8461538461538461,0.9230769230769231,0.8571428571428571,0.7142857142857143,0.0004
428,0.4382498562335968,0.8567138910293579,0.9230769230769231,0.9230769230769231,0.8571428571428571,0.7857142857142857,0.0004
429,0.6295568645000458,0.6556512117385864,0.8653846153846154,0.9038461538461539,0.7857142857142857,0.8571428571428571,0.0004
430,0.6126984655857086,0.9926714897155762,0.8461538461538461,0.9423076923076923,0.7142857142857143,0.8571428571428571,0.0004
431,0.46189582347869873,1.2316200733184814,0.9423076923076923,0.9038461538461539,0.7142857142857143,0.8571428571428571,0.0004
432,0.46963076293468475,0.6627801656723022,0.9038461538461539,0.9230769230769231,0.8571428571428571,0.8571428571428571,0.0004
433,0.5506502091884613,1.2456640005111694,0.8653846153846154,0.8846153846153846,0.7857142857142857,0.7142857142857143,0.0004
434,0.6985473930835724,1.0230638980865479,0.75,0.9038461538461539,0.7857142857142857,0.6428571428571429,0.0004
435,0.2809026390314102,1.1747567653656006,0.9615384615384616,0.9423076923076923,0.8571428571428571,0.7142857142857143,0.0004
436,0.4667002856731415,1.5498194694519043,0.9038461538461539,0.8846153846153846,0.7857142857142857,0.7857142857142857,0.0004
437,0.4210267961025238,0.8217376470565796,0.8846153846153846,0.9038461538461539,0.7142857142857143,0.8571428571428571,0.0004
438,0.57870252430439,0.8754160404205322,0.8653846153846154,0.8653846153846154,0.9285714285714286,0.8571428571428571,0.0004
439,0.45254841446876526,1.161431908607483,0.8461538461538461,0.9230769230769231,0.7857142857142857,0.7857142857142857,0.0004
440,0.4876565933227539,1.369391679763794,0.8846153846153846,0.9423076923076923,0.7857142857142857,0.7857142857142857,0.0004
441,0.6802062094211578,1.4609770774841309,0.8269230769230769,0.9038461538461539,0.6428571428571429,0.8571428571428571,0.0004
442,0.3854646384716034,0.8215320706367493,0.9423076923076923,0.9615384615384616,0.8571428571428571,0.7857142857142857,0.0004
443,0.4243014454841614,1.4424359798431396,0.9038461538461539,0.9423076923076923,0.7142857142857143,0.8571428571428571,0.0004
444,0.7010621428489685,0.8951046466827393,0.8846153846153846,0.9038461538461539,0.7857142857142857,0.8571428571428571,0.0004
445,0.5436130166053772,1.3943134546279907,0.8846153846153846,0.9038461538461539,0.6428571428571429,0.9285714285714286,0.0004
446,0.7681342959403992,0.9884103536605835,0.8461538461538461,0.8653846153846154,0.7142857142857143,0.9285714285714286,0.0004
447,0.4325934052467346,0.9272305369377136,0.9038461538461539,0.9038461538461539,0.8571428571428571,0.9285714285714286,0.0004
448,0.36481642723083496,1.2058457136154175,0.9230769230769231,0.9807692307692307,0.7142857142857143,0.8571428571428571,0.0004
449,0.6285977363586426,1.0685497522354126,0.75,0.9807692307692307,0.5714285714285714,0.9285714285714286,0.0004
450,0.49587923288345337,1.1699000597000122,0.8653846153846154,0.9423076923076923,0.6428571428571429,0.8571428571428571,0.0004
451,0.5957055389881134,0.8897144198417664,0.8653846153846154,0.9038461538461539,0.8571428571428571,0.8571428571428571,0.0004
452,0.5288155972957611,1.1685535907745361,0.8076923076923077,0.9807692307692307,0.7857142857142857,0.7857142857142857,0.0004
453,0.5286285877227783,1.0132445096969604,0.8269230769230769,0.9423076923076923,0.7857142857142857,0.7142857142857143,0.0004
454,0.47950175404548645,1.0845133066177368,0.8653846153846154,0.9807692307692307,0.7142857142857143,0.7142857142857143,0.0004
455,0.5529882907867432,0.8807815313339233,0.8461538461538461,0.9423076923076923,0.6428571428571429,0.8571428571428571,0.0004
456,0.43637338280677795,1.4673383235931396,0.8461538461538461,0.9038461538461539,0.6428571428571429,0.7857142857142857,0.0004
457,0.46593455970287323,1.4572389125823975,0.8653846153846154,0.9230769230769231,0.5,0.7857142857142857,0.0004
458,0.589051753282547,0.9096914529800415,0.8269230769230769,0.9038461538461539,0.7857142857142857,0.8571428571428571,0.0004
459,0.3500436991453171,1.2085528373718262,0.9230769230769231,0.9807692307692307,0.7857142857142857,0.7857142857142857,0.0004
460,0.4535934180021286,1.409557580947876,0.8846153846153846,0.9423076923076923,0.7857142857142857,0.7857142857142857,0.0004
461,0.4061390310525894,1.670778751373291,0.8846153846153846,0.9230769230769231,0.6428571428571429,0.7857142857142857,0.0004
462,0.5485245734453201,1.4317231178283691,0.8846153846153846,0.9615384615384616,0.5714285714285714,0.8571428571428571,0.0004
463,0.45575670897960663,0.8815113306045532,0.8846153846153846,0.9423076923076923,0.7857142857142857,0.8571428571428571,0.0004
464,0.5977475047111511,0.7966456413269043,0.9038461538461539,0.8846153846153846,0.8571428571428571,0.8571428571428571,0.0004
465,0.35135477781295776,0.9023761749267578,0.9038461538461539,0.9807692307692307,0.7142857142857143,0.9285714285714286,0.0004
466,0.6151640713214874,1.0402463674545288,0.8461538461538461,0.9038461538461539,0.7142857142857143,0.8571428571428571,0.0004
467,0.683811217546463,1.1433616876602173,0.8269230769230769,0.8653846153846154,0.6428571428571429,0.8571428571428571,0.0004
468,0.39988309144973755,1.4012129306793213,0.8653846153846154,0.9807692307692307,0.7857142857142857,0.8571428571428571,0.0004
469,0.40391798317432404,1.7383699417114258,0.8846153846153846,0.8846153846153846,0.5714285714285714,0.8571428571428571,0.0004
470,0.4377574175596237,1.6850152015686035,0.8461538461538461,0.9615384615384616,0.5714285714285714,0.7857142857142857,0.0004
471,0.5125544667243958,0.7692159414291382,0.8461538461538461,0.9423076923076923,0.7142857142857143,0.9285714285714286,0.0004
472,0.4815601259469986,0.8572360873222351,0.8461538461538461,0.9807692307692307,0.6428571428571429,0.7857142857142857,0.0004
473,0.4610923230648041,0.5463379621505737,0.8846153846153846,0.8846153846153846,0.7142857142857143,0.9285714285714286,0.0004
474,0.4622386395931244,0.6367447376251221,0.9038461538461539,0.9423076923076923,0.8571428571428571,0.9285714285714286,0.0004
475,0.40829284489154816,1.6369901895523071,0.8269230769230769,0.9615384615384616,0.5714285714285714,0.8571428571428571,0.0004
476,0.4359338730573654,1.476470708847046,0.8653846153846154,0.9615384615384616,0.5714285714285714,0.7142857142857143,0.0004
477,0.45530056953430176,1.5742253065109253,0.8653846153846154,0.9423076923076923,0.6428571428571429,0.8571428571428571,0.0004
478,0.4711291790008545,1.250293493270874,0.8846153846153846,0.8846153846153846,0.5714285714285714,0.8571428571428571,0.0004
479,0.5189194977283478,0.6159464716911316,0.8846153846153846,0.8846153846153846,0.7142857142857143,0.9285714285714286,0.0004
480,0.5167962312698364,1.02512526512146,0.8653846153846154,0.8846153846153846,0.7857142857142857,0.7857142857142857,0.0004
481,0.49718789756298065,0.802661657333374,0.8076923076923077,0.9230769230769231,0.7142857142857143,0.8571428571428571,0.0004
482,0.42859527468681335,1.327889084815979,0.8846153846153846,0.9423076923076923,0.42857142857142855,0.9285714285714286,0.0004
483,0.5897120833396912,0.6319655179977417,0.8076923076923077,0.8846153846153846,0.8571428571428571,0.7857142857142857,0.0004
484,0.4164993315935135,0.6846417188644409,0.8653846153846154,0.9230769230769231,0.7857142857142857,0.7857142857142857,0.0004
485,0.5769070535898209,1.0326679944992065,0.8653846153846154,0.9230769230769231,0.8571428571428571,0.7857142857142857,0.0004
486,0.42819225788116455,0.8895024061203003,0.9423076923076923,0.9230769230769231,0.7142857142857143,0.7857142857142857,0.0004
487,0.3371627777814865,1.779977560043335,0.8653846153846154,0.9615384615384616,0.42857142857142855,0.7857142857142857,0.0004
488,0.5024565756320953,0.9913656711578369,0.8269230769230769,0.9423076923076923,0.5714285714285714,0.7857142857142857,0.0004
489,0.37406039237976074,0.8403549194335938,0.9038461538461539,0.9423076923076923,0.7142857142857143,0.8571428571428571,0.0004
490,0.26522156596183777,1.0786888599395752,0.9423076923076923,0.9615384615384616,0.7142857142857143,0.8571428571428571,0.0004
491,0.29141710698604584,1.5491273403167725,0.9230769230769231,0.9423076923076923,0.5714285714285714,0.9285714285714286,0.0004
492,0.4847955107688904,0.7248479723930359,0.8653846153846154,0.9615384615384616,0.8571428571428571,0.7857142857142857,0.0004
493,0.4487679600715637,0.823390781879425,0.8461538461538461,0.9615384615384616,0.7142857142857143,0.9285714285714286,0.0004
494,0.43946458399295807,1.4886925220489502,0.9038461538461539,0.9807692307692307,0.7142857142857143,0.8571428571428571,0.0004
495,0.7569910883903503,1.157628059387207,0.7692307692307693,0.9230769230769231,0.6428571428571429,0.9285714285714286,0.0004
496,0.5135229229927063,1.0386338233947754,0.8461538461538461,0.9038461538461539,0.8571428571428571,0.7142857142857143,0.0004
497,0.44063176214694977,0.9786926507949829,0.8269230769230769,1.0,0.8571428571428571,0.7857142857142857,0.0004
498,0.498104527592659,0.9158836007118225,0.8461538461538461,0.8846153846153846,0.7142857142857143,0.8571428571428571,0.0004
499,0.3236851543188095,1.7756564617156982,0.9615384615384616,0.9038461538461539,0.5714285714285714,0.8571428571428571,0.0004
500,0.45636869966983795,0.7972866892814636,0.8846153846153846,0.9423076923076923,0.7857142857142857,0.8571428571428571,0.0004
501,0.5148059129714966,1.3769590854644775,0.8269230769230769,0.9615384615384616,0.7857142857142857,0.7857142857142857,0.0004
502,0.4397154301404953,0.7666722536087036,0.9038461538461539,0.9423076923076923,0.7142857142857143,0.8571428571428571,0.0004
503,0.5265565663576126,0.5353521704673767,0.8653846153846154,0.9423076923076923,0.7857142857142857,0.8571428571428571,0.0004
504,0.4281863570213318,1.5021133422851562,0.8653846153846154,0.9615384615384616,0.7142857142857143,0.7857142857142857,0.0004
505,0.6602181792259216,1.3463094234466553,0.8269230769230769,0.9038461538461539,0.7142857142857143,0.7857142857142857,0.0004
506,0.5193649679422379,1.8006908893585205,0.8269230769230769,0.9423076923076923,0.6428571428571429,0.7857142857142857,0.0004
507,0.3003065213561058,0.9538221955299377,0.9038461538461539,0.9615384615384616,0.6428571428571429,0.8571428571428571,0.0004
508,0.3095671981573105,1.0848476886749268,0.9230769230769231,0.9615384615384616,0.7857142857142857,0.7857142857142857,0.0004
509,0.31069279462099075,1.3840413093566895,0.9230769230769231,0.9615384615384616,0.6428571428571429,0.7142857142857143,0.0004
510,0.6026782244443893,0.6318535208702087,0.8846153846153846,0.9230769230769231,0.7857142857142857,0.8571428571428571,0.0004
511,0.4353887140750885,1.0032100677490234,0.9038461538461539,0.9423076923076923,0.7857142857142857,0.7857142857142857,0.0004
512,0.3566727638244629,1.2157766819000244,0.9230769230769231,0.9615384615384616,0.7142857142857143,0.7857142857142857,0.0004
513,0.5186660885810852,1.480421781539917,0.8653846153846154,0.9807692307692307,0.7142857142857143,0.9285714285714286,0.0004
514,0.4259808361530304,1.0527911186218262,0.8269230769230769,0.9230769230769231,0.7142857142857143,0.8571428571428571,0.0004
515,0.4425520598888397,1.3446053266525269,0.8269230769230769,0.9807692307692307,0.8571428571428571,0.7857142857142857,0.0004
516,0.5029317140579224,1.5588014125823975,0.8076923076923077,0.9230769230769231,0.7142857142857143,0.8571428571428571,0.0004
517,0.313852459192276,2.0504307746887207,0.9423076923076923,0.9038461538461539,0.6428571428571429,0.7142857142857143,0.0004
518,0.39480674266815186,1.3804998397827148,0.8846153846153846,0.9038461538461539,0.8571428571428571,0.7142857142857143,0.0004
519,0.43664127588272095,1.7962064743041992,0.9423076923076923,0.9230769230769231,0.5,0.8571428571428571,0.0004
520,0.5239822566509247,1.109368085861206,0.8269230769230769,0.9423076923076923,0.7142857142857143,0.7142857142857143,0.0004
521,0.41271254420280457,1.099565029144287,0.8846153846153846,0.9615384615384616,0.8571428571428571,0.8571428571428571,0.0004
522,0.48827236890792847,1.0677984952926636,0.8461538461538461,0.9423076923076923,0.7857142857142857,0.9285714285714286,0.0004
523,0.9340262711048126,1.276360273361206,0.8461538461538461,0.9230769230769231,0.7857142857142857,0.8571428571428571,0.0004
524,0.5648495107889175,1.1223231554031372,0.9038461538461539,0.9230769230769231,0.8571428571428571,0.7857142857142857,0.0004
525,0.48666249215602875,0.5512300729751587,0.9038461538461539,0.9230769230769231,0.8571428571428571,0.8571428571428571,0.0004
526,0.5110474526882172,1.2117321491241455,0.8653846153846154,0.9038461538461539,0.7142857142857143,1.0,0.0004
527,0.4101271480321884,0.884768009185791,0.9230769230769231,0.8846153846153846,0.7857142857142857,0.8571428571428571,0.0004
528,0.678901344537735,0.7261286973953247,0.8461538461538461,0.8653846153846154,0.7857142857142857,0.7857142857142857,0.0004
529,0.3270472288131714,0.9231873154640198,0.9230769230769231,0.9615384615384616,0.7857142857142857,0.7857142857142857,0.0004
530,0.4586084187030792,0.9764682054519653,0.8846153846153846,0.9615384615384616,0.7142857142857143,0.9285714285714286,0.0004
531,0.3287227749824524,1.014345407485962,0.9423076923076923,0.9615384615384616,0.7857142857142857,0.7142857142857143,0.0004
532,0.5870176255702972,1.225256085395813,0.7884615384615384,0.9615384615384616,0.5714285714285714,0.9285714285714286,0.0004
533,0.3732661083340645,0.6787040829658508,0.8846153846153846,0.9423076923076923,0.6428571428571429,0.7857142857142857,0.0004
534,0.571351170539856,1.100046157836914,0.8461538461538461,0.9423076923076923,0.6428571428571429,0.8571428571428571,0.0004
535,0.2745330184698105,0.990199089050293,0.9230769230769231,0.9423076923076923,0.7142857142857143,0.9285714285714286,0.0004
536,0.4984722286462784,0.9268803596496582,0.8846153846153846,0.9230769230769231,0.7142857142857143,0.9285714285714286,0.0004
537,0.42178474366664886,1.2605926990509033,0.8846153846153846,0.9615384615384616,0.6428571428571429,0.7857142857142857,0.0004
538,0.4304948002099991,1.8293778896331787,0.8269230769230769,0.9615384615384616,0.5714285714285714,0.9285714285714286,0.0004
539,0.36418962478637695,1.0428483486175537,0.9038461538461539,0.9615384615384616,0.7142857142857143,0.8571428571428571,0.0004
540,0.4375167489051819,1.3552623987197876,0.9038461538461539,0.9423076923076923,0.5,0.9285714285714286,0.0004
541,0.34306132793426514,1.4026951789855957,0.8653846153846154,1.0,0.5,0.9285714285714286,0.0004
542,0.5321197658777237,1.522146463394165,0.8846153846153846,0.9038461538461539,0.5,0.7857142857142857,0.0004
543,0.45186692476272583,1.1509582996368408,0.8076923076923077,0.9615384615384616,0.5714285714285714,0.6428571428571429,0.0004
544,0.3219141364097595,1.2715667486190796,0.9230769230769231,0.9615384615384616,0.6428571428571429,0.9285714285714286,0.0004
545,0.4790704846382141,1.3348073959350586,0.8461538461538461,0.9423076923076923,0.7142857142857143,0.7857142857142857,0.0004
546,0.4306904077529907,1.2024006843566895,0.8846153846153846,0.9615384615384616,0.7142857142857143,0.7857142857142857,0.0004
547,0.33140483498573303,2.0583925247192383,0.9423076923076923,0.9230769230769231,0.5714285714285714,0.9285714285714286,0.0004
548,0.39616759121418,1.3805747032165527,0.9038461538461539,0.9038461538461539,0.7857142857142857,0.7857142857142857,0.0004
549,0.4382514953613281,0.79756760597229,0.8653846153846154,0.9230769230769231,0.7857142857142857,0.7857142857142857,0.0004
550,0.3309924304485321,0.5648283958435059,0.9615384615384616,0.9615384615384616,0.9285714285714286,0.8571428571428571,0.0004
551,0.5074443221092224,1.191885232925415,0.8461538461538461,0.9230769230769231,0.7142857142857143,0.9285714285714286,0.0004
552,0.409866064786911,0.7582557201385498,0.8461538461538461,0.9615384615384616,0.9285714285714286,0.8571428571428571,0.0004
553,0.29178012162446976,1.7700432538986206,0.8846153846153846,0.9807692307692307,0.7142857142857143,0.7857142857142857,0.0004
554,0.30040790140628815,1.19999361038208,0.9423076923076923,0.9423076923076923,0.7142857142857143,0.7857142857142857,0.0004
555,0.507610946893692,1.4483903646469116,0.8461538461538461,0.9423076923076923,0.6428571428571429,0.8571428571428571,0.0004
556,0.4084262102842331,1.2570630311965942,0.8653846153846154,1.0,0.7142857142857143,0.7142857142857143,0.0004
557,0.5767310857772827,1.4859504699707031,0.8076923076923077,0.9038461538461539,0.5714285714285714,0.7857142857142857,0.0004
558,0.5687249898910522,0.8471306562423706,0.8653846153846154,0.9615384615384616,0.7142857142857143,0.7857142857142857,0.0004
559,0.3228137493133545,0.855125904083252,0.9423076923076923,0.9807692307692307,0.7142857142857143,0.8571428571428571,0.0004
560,0.45905959606170654,1.064620852470398,0.8846153846153846,0.9423076923076923,0.6428571428571429,0.9285714285714286,0.0004
561,0.5474482774734497,1.1513938903808594,0.8846153846153846,0.9423076923076923,0.7142857142857143,0.8571428571428571,0.0004
562,0.4199724346399307,1.0332117080688477,0.8846153846153846,0.9615384615384616,0.9285714285714286,0.7857142857142857,0.0004
563,0.6128573715686798,0.9262621998786926,0.8461538461538461,0.9230769230769231,0.7857142857142857,0.8571428571428571,0.0004
564,0.23603766411542892,1.151515007019043,0.9423076923076923,0.9615384615384616,0.7142857142857143,0.8571428571428571,0.0004
565,0.30291682481765747,0.8488783836364746,0.9230769230769231,0.9615384615384616,0.7857142857142857,0.9285714285714286,0.0004
566,0.30473120510578156,1.838672399520874,0.9423076923076923,0.9615384615384616,0.6428571428571429,0.7857142857142857,0.0004
567,0.6718957871198654,2.0313282012939453,0.8846153846153846,0.9230769230769231,0.7142857142857143,0.8571428571428571,0.0004
568,0.44785603880882263,1.040507435798645,0.9038461538461539,0.9423076923076923,0.7857142857142857,0.7857142857142857,0.0004
569,0.4259284883737564,0.8187863826751709,0.8461538461538461,0.9807692307692307,1.0,0.7857142857142857,0.0004
570,0.37051352858543396,1.5272793769836426,0.8846153846153846,0.9807692307692307,0.6428571428571429,0.9285714285714286,0.0004
571,0.3598250523209572,0.9520891904830933,0.9230769230769231,0.9423076923076923,0.7142857142857143,0.7142857142857143,0.0004
572,0.5016051530838013,1.3147351741790771,0.8076923076923077,0.9423076923076923,0.6428571428571429,0.6428571428571429,0.0004
573,0.45078104734420776,1.8251560926437378,0.8846153846153846,0.9230769230769231,0.7142857142857143,0.6428571428571429,0.0004
574,0.5179799348115921,0.7610241770744324,0.8653846153846154,0.9807692307692307,0.8571428571428571,0.7857142857142857,0.0004
575,0.38097965717315674,1.1946303844451904,0.9038461538461539,0.9423076923076923,0.7142857142857143,0.8571428571428571,0.0004
576,0.3612690418958664,0.7944999933242798,0.8461538461538461,1.0,0.7142857142857143,0.9285714285714286,0.0004
577,0.43798574805259705,0.7662773132324219,0.8653846153846154,0.9807692307692307,1.0,0.7142857142857143,0.0004
578,0.29458288848400116,1.1273317337036133,0.9615384615384616,0.9807692307692307,0.7857142857142857,0.9285714285714286,0.0004
579,0.3003500998020172,0.7819509506225586,0.9230769230769231,0.9615384615384616,0.8571428571428571,0.7857142857142857,0.0004
580,0.43422359228134155,1.322723388671875,0.8653846153846154,0.9423076923076923,0.6428571428571429,0.8571428571428571,0.0004
581,0.48212094604969025,0.9918217658996582,0.9230769230769231,0.9230769230769231,0.6428571428571429,0.9285714285714286,0.0004
582,0.4472667872905731,1.124190092086792,0.8846153846153846,0.9615384615384616,0.7857142857142857,0.7857142857142857,0.0004
583,0.3523433953523636,1.3925583362579346,0.8846153846153846,0.9423076923076923,0.5714285714285714,0.8571428571428571,0.0004
584,0.31279967725276947,1.4988328218460083,0.8846153846153846,0.9807692307692307,0.5714285714285714,0.8571428571428571,0.0004
585,0.47632528841495514,1.237363576889038,0.8461538461538461,0.9423076923076923,0.6428571428571429,0.7857142857142857,0.0004
586,0.5004543364048004,1.0602627992630005,0.9038461538461539,0.9038461538461539,0.9285714285714286,0.7142857142857143,0.0004
587,0.5736582577228546,1.4077589511871338,0.8846153846153846,0.8846153846153846,0.7857142857142857,0.7857142857142857,0.0004
588,0.34641416370868683,0.9980775117874146,0.8653846153846154,0.9423076923076923,0.7857142857142857,0.7142857142857143,0.0004
589,0.4879149943590164,0.6196495294570923,0.8269230769230769,0.9807692307692307,0.8571428571428571,0.7857142857142857,0.0004
590,0.5217319577932358,0.8966429233551025,0.8653846153846154,0.9423076923076923,0.7857142857142857,0.7857142857142857,0.0004
591,0.3878483772277832,1.1700356006622314,0.8846153846153846,0.9038461538461539,0.7857142857142857,0.7857142857142857,0.0004
592,0.5203349888324738,0.7963652014732361,0.8461538461538461,0.9038461538461539,0.9285714285714286,0.7142857142857143,0.0004
593,0.34768590331077576,1.0245683193206787,0.8846153846153846,0.9423076923076923,0.7142857142857143,0.9285714285714286,0.0004
594,0.4793301075696945,0.8734820485115051,0.8653846153846154,0.9230769230769231,0.7857142857142857,0.7857142857142857,0.0004
595,0.5689127147197723,1.939779281616211,0.8653846153846154,0.9038461538461539,0.5714285714285714,0.7857142857142857,0.0004
596,0.6273634433746338,1.0965567827224731,0.8846153846153846,0.9230769230769231,0.5714285714285714,1.0,0.0004
597,0.4830145090818405,1.3707581758499146,0.8269230769230769,0.9615384615384616,0.5714285714285714,0.9285714285714286,0.0004
598,0.5258646309375763,1.257432222366333,0.9038461538461539,0.8653846153846154,0.7142857142857143,0.8571428571428571,0.0004
599,0.5009319484233856,0.8064447045326233,0.9038461538461539,0.9230769230769231,0.7857142857142857,1.0,0.0004
600,0.34846410155296326,1.7499539852142334,0.9423076923076923,0.9615384615384616,0.5,1.0,0.0004
601,0.36207783222198486,0.7246066331863403,0.8846153846153846,0.9423076923076923,0.8571428571428571,0.7857142857142857,0.0004
602,0.3017311692237854,1.583044171333313,0.9230769230769231,0.9615384615384616,0.42857142857142855,0.8571428571428571,0.0004
603,0.5727340579032898,0.8867856860160828,0.8269230769230769,0.9230769230769231,0.7142857142857143,0.8571428571428571,0.0004
604,0.5203222334384918,0.6033505797386169,0.8846153846153846,0.9230769230769231,0.9285714285714286,0.9285714285714286,0.0004
605,0.3351067304611206,0.8324221968650818,0.9038461538461539,0.9615384615384616,0.7142857142857143,0.8571428571428571,0.0004
606,0.5639315247535706,0.9270066618919373,0.8653846153846154,0.9230769230769231,0.7142857142857143,1.0,0.0004
607,0.4691482484340668,0.6643340587615967,0.8846153846153846,0.9038461538461539,0.8571428571428571,0.8571428571428571,0.0004
608,0.44232410192489624,1.3115406036376953,0.9038461538461539,0.9230769230769231,0.7857142857142857,0.8571428571428571,0.0004
609,0.5253738760948181,0.6160343289375305,0.8461538461538461,0.9230769230769231,0.8571428571428571,0.8571428571428571,0.0004
610,0.34876519441604614,1.2630465030670166,0.8846153846153846,0.9807692307692307,0.8571428571428571,0.8571428571428571,0.0004
611,0.4575648009777069,1.1570954322814941,0.8653846153846154,0.9615384615384616,0.6428571428571429,0.8571428571428571,0.0004
612,0.4252699017524719,0.8842322826385498,0.8461538461538461,0.9615384615384616,0.7142857142857143,0.8571428571428571,0.0004
613,0.7385569363832474,1.0443482398986816,0.8461538461538461,0.8846153846153846,0.7857142857142857,0.7142857142857143,0.0004
614,0.38683098554611206,1.0697156190872192,0.8846153846153846,0.9423076923076923,0.7142857142857143,0.9285714285714286,0.0004
615,0.30548377335071564,1.0718700885772705,0.9230769230769231,0.9807692307692307,0.7857142857142857,0.8571428571428571,0.0004
616,0.386922225356102,1.4010649919509888,0.9038461538461539,0.9230769230769231,0.8571428571428571,0.6428571428571429,0.0004
617,0.3252085894346237,1.120383858680725,0.9230769230769231,0.9423076923076923,0.5714285714285714,0.8571428571428571,0.0004
618,0.38988320529460907,0.6085096597671509,0.8653846153846154,0.9615384615384616,0.9285714285714286,0.7857142857142857,0.0004
619,0.5621913969516754,1.9776098728179932,0.8076923076923077,0.9230769230769231,0.7142857142857143,0.7142857142857143,0.0004
620,0.376431405544281,0.8297154903411865,0.8653846153846154,0.9423076923076923,0.6428571428571429,1.0,0.0004
621,0.2766420692205429,1.2663278579711914,0.9230769230769231,0.9615384615384616,0.8571428571428571,0.7142857142857143,0.0004
622,0.3361257314682007,1.0010957717895508,0.9038461538461539,0.9615384615384616,0.7857142857142857,0.6428571428571429,0.0004
623,0.2628510817885399,1.6144475936889648,0.9423076923076923,0.9807692307692307,0.7142857142857143,0.7857142857142857,0.0004
624,0.38281090557575226,0.9465425610542297,0.9423076923076923,0.9615384615384616,0.7857142857142857,0.8571428571428571,0.0004
625,0.4535709172487259,1.0657670497894287,0.8461538461538461,0.9423076923076923,0.9285714285714286,0.7142857142857143,0.0004
626,0.5446062013506889,0.938249945640564,0.7884615384615384,0.9230769230769231,0.7857142857142857,0.7857142857142857,0.0004
627,0.6948202848434448,1.6438169479370117,0.7884615384615384,0.9230769230769231,0.6428571428571429,0.8571428571428571,0.0004
628,0.7198082655668259,0.6431026458740234,0.8653846153846154,0.8653846153846154,0.8571428571428571,0.7857142857142857,0.0004
629,0.24943019449710846,0.7859860062599182,0.9423076923076923,0.9615384615384616,0.9285714285714286,0.7142857142857143,0.0004
630,0.41205185651779175,1.227392315864563,0.8653846153846154,0.9615384615384616,0.6428571428571429,1.0,0.0004
631,0.30112243443727493,0.7549662590026855,0.9230769230769231,0.9615384615384616,0.7857142857142857,0.7857142857142857,0.0004
632,0.42840954661369324,1.0376948118209839,0.8653846153846154,0.9423076923076923,0.6428571428571429,0.9285714285714286,0.0004
633,0.3497675657272339,1.3813263177871704,0.8846153846153846,0.9230769230769231,0.5,0.8571428571428571,0.0004
634,0.3112201392650604,1.2011520862579346,0.9230769230769231,0.9615384615384616,0.6428571428571429,0.7857142857142857,0.0004
635,0.5001940429210663,1.093536376953125,0.8461538461538461,0.9423076923076923,0.7857142857142857,0.8571428571428571,0.0004
636,0.33927835524082184,1.5564361810684204,0.8653846153846154,1.0,0.5714285714285714,0.7857142857142857,0.0004
637,0.3711055517196655,1.1392042636871338,0.8269230769230769,0.9807692307692307,0.8571428571428571,0.7142857142857143,0.0004
638,0.34344251453876495,2.044797897338867,0.9230769230769231,0.9615384615384616,0.7142857142857143,0.7142857142857143,0.0004
639,0.3592276871204376,1.0125240087509155,0.9807692307692307,0.9423076923076923,0.7857142857142857,0.7857142857142857,0.0004
640,0.4100005030632019,0.9989074468612671,0.9038461538461539,0.9615384615384616,0.8571428571428571,0.7142857142857143,0.0004
641,0.41365736722946167,0.5623454451560974,0.9038461538461539,0.9807692307692307,0.8571428571428571,0.9285714285714286,0.0004
642,0.359686017036438,1.5733919143676758,0.8846153846153846,0.9807692307692307,0.6428571428571429,0.7857142857142857,0.0004
643,0.412370041012764,1.6157461404800415,0.8269230769230769,0.9423076923076923,0.6428571428571429,0.7857142857142857,0.0004
644,0.31857703626155853,1.9003047943115234,0.9230769230769231,0.9615384615384616,0.5714285714285714,0.8571428571428571,0.0004
645,0.38394634425640106,1.5655244588851929,0.8653846153846154,0.9230769230769231,0.42857142857142855,0.9285714285714286,0.0004
646,0.4617002308368683,1.665339469909668,0.8653846153846154,0.9615384615384616,0.7142857142857143,0.7142857142857143,0.0004
647,0.2759116441011429,1.2067410945892334,0.9423076923076923,0.9615384615384616,0.7142857142857143,0.9285714285714286,0.0004
648,0.5643242374062538,1.8506938219070435,0.8269230769230769,0.9230769230769231,0.6428571428571429,0.7142857142857143,0.0004
649,0.3698942959308624,0.9843733906745911,0.9038461538461539,0.9230769230769231,0.8571428571428571,0.6428571428571429,0.0004
650,0.3547762632369995,1.213589072227478,0.9423076923076923,0.9615384615384616,0.7857142857142857,0.8571428571428571,0.0004
651,0.3638761341571808,1.3676077127456665,0.8846153846153846,0.9807692307692307,0.6428571428571429,0.9285714285714286,0.0004
652,0.28674712777137756,1.1813247203826904,0.8846153846153846,0.9807692307692307,0.7857142857142857,0.7142857142857143,0.0004
653,0.5507646203041077,0.49298393726348877,0.8461538461538461,0.9230769230769231,0.8571428571428571,0.8571428571428571,0.0004
654,0.4619942158460617,1.4041156768798828,0.9038461538461539,0.9230769230769231,0.6428571428571429,0.8571428571428571,0.0004
655,0.3871663212776184,1.4681581258773804,0.9038461538461539,0.9615384615384616,0.7857142857142857,0.7142857142857143,0.0004
656,0.3109343647956848,0.8482464551925659,0.9423076923076923,0.9423076923076923,0.7857142857142857,0.7857142857142857,0.0004
657,0.4378879964351654,1.8814218044281006,0.9038461538461539,0.9230769230769231,0.7142857142857143,0.6428571428571429,0.0004
658,0.36293381452560425,1.1328818798065186,0.9038461538461539,0.9615384615384616,0.6428571428571429,0.8571428571428571,0.0004
659,0.2777451276779175,1.7149286270141602,0.9423076923076923,0.9615384615384616,0.7142857142857143,0.7857142857142857,0.0004
660,0.24196235835552216,1.9644296169281006,0.9807692307692307,0.9615384615384616,0.7142857142857143,0.7142857142857143,0.0004
661,0.27937573194503784,1.3379936218261719,0.9807692307692307,0.9038461538461539,0.7857142857142857,0.7142857142857143,0.0004
662,0.3877028673887253,1.5485575199127197,0.9230769230769231,0.9615384615384616,0.7857142857142857,0.7142857142857143,0.0004
663,0.27957621216773987,0.9645837545394897,0.9230769230769231,0.9807692307692307,0.7142857142857143,0.7857142857142857,0.0004
664,0.37206733226776123,1.6195870637893677,0.8461538461538461,0.9615384615384616,0.5714285714285714,0.8571428571428571,0.0004
665,0.4331064820289612,1.2396819591522217,0.8846153846153846,0.9615384615384616,0.5714285714285714,0.8571428571428571,0.0004
666,0.4106209725141525,1.455209732055664,0.8846153846153846,0.9230769230769231,0.7857142857142857,0.8571428571428571,0.0004
667,0.3655932694673538,1.2375848293304443,0.9423076923076923,0.9807692307692307,0.7857142857142857,0.7142857142857143,0.0004
668,0.39882130920886993,1.4069652557373047,0.9230769230769231,0.9615384615384616,0.7857142857142857,0.7142857142857143,0.0004
669,0.4653511494398117,1.3709526062011719,0.8846153846153846,0.9423076923076923,0.7142857142857143,0.7857142857142857,0.0004
670,0.5038746148347855,0.7180612087249756,0.8269230769230769,0.9038461538461539,0.8571428571428571,0.7857142857142857,0.0004
671,0.471702441573143,0.9427844882011414,0.8653846153846154,0.9230769230769231,0.7857142857142857,0.7857142857142857,0.0004
672,0.21922703832387924,1.1314700841903687,0.9423076923076923,1.0,0.7142857142857143,0.7857142857142857,0.0004
673,0.4377724826335907,1.9852159023284912,0.9038461538461539,0.9230769230769231,0.5714285714285714,0.7142857142857143,0.0004
674,0.2788460850715637,1.1904332637786865,0.8846153846153846,0.9807692307692307,0.7857142857142857,0.7142857142857143,0.0004
675,0.3561183214187622,1.4201908111572266,0.8653846153846154,0.9230769230769231,0.6428571428571429,0.7142857142857143,0.0004
676,0.40847504138946533,1.225574016571045,0.8846153846153846,0.9423076923076923,0.7142857142857143,0.6428571428571429,0.0004
677,0.3487275540828705,1.3801398277282715,0.8846153846153846,0.9807692307692307,0.7142857142857143,0.7857142857142857,0.0004
678,0.510441929101944,1.5507398843765259,0.9230769230769231,0.9230769230769231,0.7142857142857143,0.7142857142857143,0.0004
679,0.3332280367612839,1.1905670166015625,0.8846153846153846,0.9423076923076923,0.7857142857142857,0.7142857142857143,0.0004
680,0.3817452937364578,0.7986977696418762,0.8846153846153846,0.9423076923076923,0.7857142857142857,0.8571428571428571,0.0004
681,0.23249442875385284,2.2399775981903076,0.9230769230769231,0.9807692307692307,0.42857142857142855,0.8571428571428571,0.0004
682,0.2625255212187767,1.0200388431549072,0.9230769230769231,1.0,0.7857142857142857,0.8571428571428571,0.0004
683,0.4140104800462723,0.6921002864837646,0.8269230769230769,0.9807692307692307,0.8571428571428571,0.8571428571428571,0.0004
684,0.2957194969058037,1.3121275901794434,0.8846153846153846,0.9615384615384616,0.6428571428571429,0.8571428571428571,0.0004
685,0.32641901075839996,1.5182619094848633,0.9423076923076923,0.9230769230769231,0.5714285714285714,0.9285714285714286,0.0004
686,0.35086581110954285,0.8504098653793335,0.9038461538461539,0.9230769230769231,0.7857142857142857,0.8571428571428571,0.0004
687,0.38944268226623535,1.1922343969345093,0.9423076923076923,0.9423076923076923,0.7857142857142857,0.9285714285714286,0.0004
688,0.4262600839138031,0.9250839352607727,0.8461538461538461,0.9807692307692307,0.7857142857142857,0.9285714285714286,0.0004
689,0.39914944767951965,1.0335073471069336,0.9038461538461539,0.9423076923076923,0.6428571428571429,1.0,0.0004
690,0.4080134183168411,0.6451542973518372,0.9038461538461539,0.9230769230769231,1.0,0.7142857142857143,0.0004
691,0.6211429834365845,1.0575958490371704,0.8653846153846154,0.9230769230769231,0.7142857142857143,0.7142857142857143,0.0004
692,0.36707374453544617,0.9229840040206909,0.8846153846153846,0.9423076923076923,0.7857142857142857,0.7857142857142857,0.0004
693,0.3277685195207596,0.7545018196105957,0.9423076923076923,0.9038461538461539,0.7142857142857143,0.8571428571428571,0.0004
694,0.347173810005188,1.4939839839935303,0.9230769230769231,0.9615384615384616,0.5714285714285714,0.9285714285714286,0.0004
695,0.5002044588327408,1.5193264484405518,0.8461538461538461,0.9615384615384616,0.7857142857142857,0.7857142857142857,0.0004
696,0.7035261392593384,1.157507300376892,0.8269230769230769,0.9423076923076923,0.8571428571428571,0.7857142857142857,0.0004
697,0.48250971734523773,1.1687695980072021,0.9423076923076923,0.9423076923076923,0.7142857142857143,0.7857142857142857,0.0004
698,0.2711659371852875,1.8691704273223877,0.9423076923076923,0.9423076923076923,0.6428571428571429,0.7857142857142857,0.0004
699,0.3083569258451462,1.3705170154571533,0.8846153846153846,1.0,0.7142857142857143,0.8571428571428571,0.0004
700,0.3746233433485031,0.9394680261611938,0.8653846153846154,0.9807692307692307,0.7142857142857143,0.8571428571428571,0.0004
701,0.33468151092529297,0.7739129662513733,0.9423076923076923,0.9615384615384616,0.7142857142857143,0.9285714285714286,0.0004
702,0.3522365912795067,1.1056296825408936,0.9038461538461539,0.9807692307692307,0.5714285714285714,0.9285714285714286,0.0004
703,0.25931216776371,1.1578962802886963,0.9038461538461539,0.9615384615384616,0.6428571428571429,0.8571428571428571,0.0004
704,0.22705718874931335,1.2658870220184326,0.9615384615384616,0.9423076923076923,0.6428571428571429,0.9285714285714286,0.0004
705,0.23842646181583405,1.7287427186965942,0.9615384615384616,0.9423076923076923,0.6428571428571429,0.8571428571428571,0.0004
706,0.5142538249492645,0.7838575839996338,0.8653846153846154,0.9423076923076923,0.8571428571428571,0.7142857142857143,0.0004
707,0.34704869985580444,1.2342127561569214,0.8653846153846154,0.9615384615384616,0.7142857142857143,0.7857142857142857,0.0004
708,0.49118025600910187,0.7046025991439819,0.9038461538461539,0.9423076923076923,0.9285714285714286,0.8571428571428571,0.0004
709,0.26523539423942566,0.5902287364006042,0.9038461538461539,0.9807692307692307,0.7857142857142857,0.9285714285714286,0.0004
710,0.3683937191963196,1.2603027820587158,0.9423076923076923,0.9615384615384616,0.7857142857142857,0.7857142857142857,0.0004
711,0.2437029778957367,1.2664107084274292,0.9615384615384616,0.9423076923076923,0.7142857142857143,0.8571428571428571,0.0004
712,0.2529161423444748,0.4734920859336853,0.9615384615384616,0.9615384615384616,0.9285714285714286,0.8571428571428571,0.0004
713,0.4606964886188507,1.2960575819015503,0.8461538461538461,0.9423076923076923,0.7142857142857143,0.8571428571428571,0.0004
714,0.3574284613132477,0.8897140026092529,0.9230769230769231,0.9615384615384616,0.7857142857142857,0.7857142857142857,0.0004
715,0.32942548394203186,0.9647849798202515,0.8653846153846154,0.9615384615384616,0.7142857142857143,0.7857142857142857,0.0004
716,0.42361050844192505,1.6275784969329834,0.9038461538461539,0.9615384615384616,0.7142857142857143,0.7857142857142857,0.0004
717,0.29561544954776764,0.4768367111682892,0.9423076923076923,0.9807692307692307,0.9285714285714286,0.7857142857142857,0.0004
718,0.22410891950130463,1.1191742420196533,0.9230769230769231,0.9807692307692307,0.7142857142857143,0.9285714285714286,0.0004
719,0.38454292714595795,0.6071580052375793,0.9230769230769231,0.9423076923076923,0.9285714285714286,0.7857142857142857,0.0004
720,0.29663150757551193,1.5054006576538086,0.8846153846153846,0.9615384615384616,0.6428571428571429,0.7857142857142857,0.0004
721,0.24302920699119568,0.7814006805419922,0.9423076923076923,0.9615384615384616,0.7142857142857143,1.0,0.0004
722,0.23362698405981064,1.571146011352539,0.9230769230769231,1.0,0.8571428571428571,0.8571428571428571,0.0004
723,0.37297338247299194,0.7529703378677368,0.8846153846153846,0.9230769230769231,0.7142857142857143,0.8571428571428571,0.0004
724,0.3452470302581787,1.7513107061386108,0.9230769230769231,0.9423076923076923,0.42857142857142855,0.8571428571428571,0.0004
725,0.28058046102523804,1.1534620523452759,0.9230769230769231,0.9615384615384616,0.8571428571428571,0.7857142857142857,0.0004
726,0.16887305676937103,0.7301920652389526,0.9615384615384616,0.9807692307692307,0.7857142857142857,0.7857142857142857,0.0004
727,0.5260298252105713,1.1355435848236084,0.8461538461538461,0.9423076923076923,0.8571428571428571,0.7857142857142857,0.0004
728,0.38075001537799835,1.5294537544250488,0.8846153846153846,0.9615384615384616,0.7142857142857143,0.8571428571428571,0.0004
729,0.371015265583992,1.267928123474121,0.8653846153846154,1.0,0.7142857142857143,0.9285714285714286,0.0004
730,0.24797260016202927,1.1254749298095703,0.9230769230769231,0.9807692307692307,0.7857142857142857,0.8571428571428571,0.0004
731,0.49906614422798157,1.5235357284545898,0.8461538461538461,0.9807692307692307,0.7142857142857143,0.7142857142857143,0.0004
732,0.24515432864427567,0.7528655529022217,0.9615384615384616,0.9230769230769231,0.9285714285714286,0.7142857142857143,0.0004
733,0.5774566233158112,1.4268465042114258,0.8269230769230769,0.9615384615384616,0.6428571428571429,0.7142857142857143,0.0004
734,0.4897241145372391,1.2647019624710083,0.8653846153846154,0.9038461538461539,0.5714285714285714,1.0,0.0004
735,0.3127952069044113,0.6936150193214417,0.8653846153846154,0.9807692307692307,0.9285714285714286,0.7142857142857143,0.0004
736,0.5556363165378571,1.160832166671753,0.9230769230769231,0.9230769230769231,0.7857142857142857,0.7857142857142857,0.0004
737,0.2878657206892967,1.1589412689208984,0.9038461538461539,0.9615384615384616,0.7857142857142857,0.7142857142857143,0.0004
738,0.4699808955192566,0.9047800898551941,0.8269230769230769,0.9615384615384616,0.6428571428571429,0.9285714285714286,0.0004
739,0.3514929711818695,1.2538813352584839,0.8846153846153846,0.9807692307692307,0.5714285714285714,0.9285714285714286,0.0004
740,0.4442288875579834,1.5300266742706299,0.8846153846153846,0.9615384615384616,0.7857142857142857,0.7857142857142857,0.0004
741,0.38302963972091675,1.879211187362671,0.8653846153846154,0.9423076923076923,0.5,0.8571428571428571,0.0004
742,0.400202676653862,1.459778070449829,0.8846153846153846,0.9423076923076923,0.8571428571428571,0.7857142857142857,0.0004
743,0.24594388902187347,1.5449937582015991,0.9615384615384616,0.9615384615384616,0.5714285714285714,0.7142857142857143,0.0004
744,0.21384768933057785,1.80288565158844,0.9230769230769231,1.0,0.6428571428571429,0.8571428571428571,0.0004
745,0.3819992393255234,1.124463438987732,0.8653846153846154,0.9423076923076923,0.6428571428571429,0.7857142857142857,0.0004
746,0.28486354649066925,1.0400224924087524,0.9230769230769231,0.9423076923076923,0.8571428571428571,0.7857142857142857,0.0004
747,0.5657087564468384,1.1081442832946777,0.8653846153846154,0.9423076923076923,0.7142857142857143,0.8571428571428571,0.0004
748,0.39558231830596924,1.098928689956665,0.9423076923076923,0.9423076923076923,0.8571428571428571,0.7857142857142857,0.0004
749,0.3344738930463791,1.3032042980194092,0.9038461538461539,0.9807692307692307,0.6428571428571429,0.8571428571428571,0.0004
750,0.3461783826351166,1.0856013298034668,0.9038461538461539,0.9230769230769231,0.7857142857142857,0.7857142857142857,0.0004
751,0.3540216535329819,0.5518087148666382,0.9038461538461539,0.9230769230769231,0.9285714285714286,0.7857142857142857,0.0004
752,0.36167412996292114,1.2917091846466064,0.9038461538461539,0.9230769230769231,0.7857142857142857,0.7142857142857143,0.0004
753,0.22497457265853882,1.1472301483154297,0.9615384615384616,0.9423076923076923,0.9285714285714286,0.7857142857142857,0.0004
754,0.46746833622455597,0.764000415802002,0.8846153846153846,0.9230769230769231,0.9285714285714286,0.7857142857142857,0.0004
755,0.4771597683429718,1.90311598777771,0.8461538461538461,0.9615384615384616,0.7142857142857143,0.8571428571428571,0.0004
756,0.29820745438337326,1.2545543909072876,0.9038461538461539,0.9807692307692307,0.7857142857142857,0.8571428571428571,0.0004
757,0.33765488862991333,1.2377444505691528,0.8846153846153846,0.9615384615384616,0.6428571428571429,0.8571428571428571,0.0004
758,0.4905604422092438,0.8936423063278198,0.9038461538461539,0.9615384615384616,0.8571428571428571,0.7857142857142857,0.0004
759,0.21797873079776764,0.9666319489479065,0.9807692307692307,0.9423076923076923,0.7142857142857143,0.9285714285714286,0.0004
760,0.4943796992301941,1.2044272422790527,0.8653846153846154,0.9230769230769231,0.5714285714285714,0.8571428571428571,0.0004
761,0.23417237401008606,1.351096272468567,0.9230769230769231,0.9615384615384616,0.7857142857142857,0.7857142857142857,0.0004
762,0.42838121950626373,0.8278294801712036,0.9038461538461539,0.9423076923076923,0.9285714285714286,0.8571428571428571,0.0004
763,0.4449499845504761,0.8208581209182739,0.8846153846153846,0.9423076923076923,0.7142857142857143,0.8571428571428571,0.0004
764,0.3282549977302551,1.494672179222107,0.9038461538461539,0.9423076923076923,0.6428571428571429,0.7857142857142857,0.0004
765,0.37838808447122574,0.7966532707214355,0.8846153846153846,0.9615384615384616,0.8571428571428571,0.7142857142857143,0.0004
766,0.42728614807128906,0.8765318393707275,0.8846153846153846,0.9615384615384616,0.7857142857142857,0.7857142857142857,0.0004
767,0.26552003622055054,0.6357949376106262,0.9615384615384616,0.9423076923076923,0.8571428571428571,0.7857142857142857,0.0004
768,0.545068770647049,1.6554629802703857,0.8846153846153846,0.9615384615384616,0.7142857142857143,0.7857142857142857,0.0004
769,0.5844576805830002,1.538068413734436,0.8653846153846154,0.9230769230769231,0.7142857142857143,0.6428571428571429,0.0004
770,0.3383427709341049,2.170210361480713,0.9230769230769231,0.9807692307692307,0.5,0.7857142857142857,0.0004
771,0.23208242654800415,0.8442962169647217,0.9423076923076923,0.9615384615384616,0.7142857142857143,0.8571428571428571,0.0004
772,0.2829316034913063,1.8361663818359375,0.9423076923076923,0.9615384615384616,0.6428571428571429,0.7857142857142857,0.0004
773,0.426596075296402,1.3058156967163086,0.8846153846153846,0.9230769230769231,0.7142857142857143,0.7857142857142857,0.0004
774,0.5503652989864349,1.7702010869979858,0.8653846153846154,0.9423076923076923,0.7857142857142857,0.9285714285714286,0.0004
775,0.4923021048307419,1.3832426071166992,0.8846153846153846,0.9615384615384616,0.7142857142857143,0.8571428571428571,0.0004
776,0.25261442363262177,1.69777512550354,0.9038461538461539,0.9423076923076923,0.5714285714285714,0.8571428571428571,0.0004
777,0.3357461541891098,0.7340832948684692,0.8846153846153846,0.9423076923076923,0.7857142857142857,0.9285714285714286,0.0004
778,0.28193386644124985,0.9111602306365967,0.9230769230769231,0.9807692307692307,0.8571428571428571,0.7857142857142857,0.0004
779,0.3135193735361099,0.8532346487045288,0.9230769230769231,0.9807692307692307,0.7857142857142857,0.8571428571428571,0.0004
780,0.5856649577617645,0.9607197642326355,0.9038461538461539,0.9038461538461539,0.7142857142857143,0.8571428571428571,0.0004
781,0.428815096616745,0.8602058291435242,0.8846153846153846,1.0,0.7857142857142857,0.8571428571428571,0.0004
782,0.39349381625652313,1.654404878616333,0.8653846153846154,0.9230769230769231,0.7857142857142857,0.6428571428571429,0.0004
783,0.30447039008140564,1.065016508102417,0.9230769230769231,0.9615384615384616,0.7142857142857143,0.9285714285714286,0.0004
784,0.5052942186594009,1.933476448059082,0.8653846153846154,0.9230769230769231,0.5,0.7857142857142857,0.0004
785,0.5048597604036331,0.9624172449111938,0.8461538461538461,0.9230769230769231,0.8571428571428571,0.8571428571428571,0.0004
786,0.24886295571923256,1.4220380783081055,0.8846153846153846,0.9807692307692307,0.7142857142857143,0.9285714285714286,0.0004
787,0.3904266357421875,1.1527241468429565,0.9230769230769231,0.9038461538461539,0.7857142857142857,0.8571428571428571,0.0004
788,0.4036632478237152,1.0301257371902466,0.9038461538461539,0.9615384615384616,0.7142857142857143,0.8571428571428571,0.0004
789,0.5032570213079453,1.7169368267059326,0.9038461538461539,0.9230769230769231,0.7857142857142857,0.7142857142857143,0.0004
790,0.14775928482413292,1.0424001216888428,0.9615384615384616,1.0,0.8571428571428571,0.7857142857142857,0.0004
791,0.30730190873146057,0.8080000877380371,0.8846153846153846,0.9807692307692307,0.7857142857142857,0.9285714285714286,0.0004
792,0.3484068512916565,0.8953310251235962,0.8653846153846154,0.9423076923076923,0.9285714285714286,0.7142857142857143,0.0004
793,0.3329724669456482,1.171344518661499,0.9423076923076923,0.9423076923076923,0.7142857142857143,0.8571428571428571,0.0004
794,0.2538818269968033,1.3687279224395752,0.9230769230769231,1.0,0.5714285714285714,0.8571428571428571,0.0004
795,0.22405631840229034,1.579404354095459,0.9423076923076923,0.9615384615384616,0.7857142857142857,0.7857142857142857,0.0004
796,0.236980102956295,1.6020649671554565,0.8846153846153846,1.0,0.5,1.0,0.0004
797,0.2692919373512268,0.8870549201965332,0.9230769230769231,0.9807692307692307,0.8571428571428571,0.7857142857142857,0.0004
798,0.3302258402109146,1.1973793506622314,0.9038461538461539,0.9423076923076923,0.6428571428571429,0.9285714285714286,0.0004
799,0.2901139482855797,0.6719067096710205,0.9615384615384616,0.9423076923076923,0.8571428571428571,0.7857142857142857,0.0004
800,0.21899668127298355,1.0546855926513672,0.9423076923076923,1.0,0.7857142857142857,0.7857142857142857,0.0004
801,0.3388165682554245,1.0587456226348877,0.9038461538461539,0.9615384615384616,0.8571428571428571,0.6428571428571429,0.0004
802,0.38751623034477234,2.0001637935638428,0.8653846153846154,0.9423076923076923,0.5714285714285714,0.7857142857142857,0.0004
803,0.43267539143562317,0.7856108546257019,0.9038461538461539,0.9230769230769231,0.8571428571428571,0.7857142857142857,0.0004
804,0.27824459969997406,0.6865873336791992,0.9038461538461539,0.9423076923076923,0.8571428571428571,0.8571428571428571,0.0004
805,0.4863428622484207,1.1007022857666016,0.8461538461538461,0.9423076923076923,0.7142857142857143,0.8571428571428571,0.0004
806,0.3452795147895813,0.8147625923156738,0.9230769230769231,0.9615384615384616,0.8571428571428571,0.7857142857142857,0.0004
807,0.644384354352951,0.9473993182182312,0.8461538461538461,0.9615384615384616,0.7142857142857143,1.0,0.0004
808,0.4420541822910309,0.931581437587738,0.8846153846153846,0.9230769230769231,0.7142857142857143,0.7142857142857143,0.0004
809,0.325359970331192,0.7971458435058594,0.8846153846153846,0.9230769230769231,0.7857142857142857,0.7857142857142857,0.0004
810,0.39437513053417206,0.5784546732902527,0.8846153846153846,0.9807692307692307,0.9285714285714286,0.8571428571428571,0.0004
811,0.2321801334619522,0.7368778586387634,0.9038461538461539,0.9807692307692307,0.8571428571428571,0.9285714285714286,0.0004
812,0.49346789717674255,1.4556485414505005,0.8461538461538461,0.9038461538461539,0.7142857142857143,0.8571428571428571,0.0004
813,0.42019976675510406,0.4473820924758911,0.8653846153846154,0.9615384615384616,0.7857142857142857,0.9285714285714286,0.0004
814,0.300835058093071,0.7688019275665283,0.9038461538461539,0.9615384615384616,0.8571428571428571,0.7857142857142857,0.0004
815,0.43572914600372314,1.123962640762329,0.9038461538461539,0.9230769230769231,0.7857142857142857,0.7142857142857143,0.0004
816,0.2539568990468979,0.8886374235153198,0.8846153846153846,0.9807692307692307,0.7857142857142857,0.7857142857142857,0.0004
817,0.29911406338214874,1.4725137948989868,0.9423076923076923,0.9615384615384616,0.7142857142857143,0.7142857142857143,0.0004
818,0.3164703696966171,1.7810873985290527,0.9230769230769231,0.9423076923076923,0.7857142857142857,0.5714285714285714,0.0004
819,0.3272571936249733,2.3416779041290283,0.8846153846153846,0.9423076923076923,0.6428571428571429,0.7142857142857143,0.0004
820,0.2717154771089554,1.2327091693878174,0.9423076923076923,0.9615384615384616,0.7857142857142857,0.7857142857142857,0.0004
821,0.21439605206251144,1.1262162923812866,0.9615384615384616,0.9615384615384616,0.6428571428571429,0.7857142857142857,0.0004
822,0.37696604430675507,1.0027248859405518,0.8653846153846154,0.9615384615384616,0.9285714285714286,0.7857142857142857,0.0004
823,0.33313898742198944,0.6799920201301575,0.9423076923076923,0.9423076923076923,1.0,0.7857142857142857,0.0004
824,0.7295724451541901,1.4790337085723877,0.7884615384615384,0.9038461538461539,0.7142857142857143,0.8571428571428571,0.0004
825,0.48270779848098755,1.5933098793029785,0.8461538461538461,0.9807692307692307,0.6428571428571429,0.8571428571428571,0.0004
826,0.3787612169981003,1.782611608505249,0.8846153846153846,0.9230769230769231,0.7142857142857143,0.8571428571428571,0.0004
827,0.5833377987146378,1.5588276386260986,0.8461538461538461,0.9230769230769231,0.6428571428571429,0.7857142857142857,0.0004
828,0.31861910223960876,0.703683614730835,0.9038461538461539,0.9615384615384616,0.9285714285714286,0.7857142857142857,0.0004
829,0.34202317893505096,1.237955093383789,0.9038461538461539,0.9615384615384616,0.8571428571428571,0.7857142857142857,0.0004
830,0.35524873435497284,0.6871482729911804,0.9230769230769231,0.9423076923076923,0.9285714285714286,0.7857142857142857,0.0004
831,0.4462907016277313,0.9571544528007507,0.8846153846153846,0.9807692307692307,0.7142857142857143,0.9285714285714286,0.0004
832,0.5915590226650238,1.6077978610992432,0.8269230769230769,0.9038461538461539,0.6428571428571429,0.7142857142857143,0.0004
833,0.27688561379909515,1.0358102321624756,0.9423076923076923,0.9807692307692307,0.7857142857142857,0.7142857142857143,0.0004
834,0.2644098922610283,1.0284548997879028,0.9230769230769231,1.0,0.8571428571428571,0.7142857142857143,0.0004
835,0.4114074259996414,0.9348820447921753,0.9230769230769231,0.9230769230769231,0.7142857142857143,0.7857142857142857,0.0004
836,0.32430300116539,0.9684480428695679,0.9230769230769231,0.9423076923076923,0.9285714285714286,0.7142857142857143,0.0004
837,0.3870144784450531,1.0054950714111328,0.8653846153846154,0.9807692307692307,0.7857142857142857,0.7857142857142857,0.0004
838,0.2952819913625717,0.6002733111381531,0.9038461538461539,0.9807692307692307,0.8571428571428571,0.7142857142857143,0.0004
839,0.47809354960918427,0.7212494611740112,0.9038461538461539,0.8846153846153846,0.9285714285714286,0.7857142857142857,0.0004
840,0.5854011476039886,0.8518512845039368,0.8269230769230769,0.9230769230769231,0.7857142857142857,0.7142857142857143,0.0004
841,0.27996567636728287,1.0648877620697021,0.9230769230769231,0.9807692307692307,0.7142857142857143,0.9285714285714286,0.0004
842,0.49928954243659973,0.6226093769073486,0.8653846153846154,0.9230769230769231,0.8571428571428571,0.8571428571428571,0.0004
843,0.3701791316270828,0.8059669733047485,0.9038461538461539,0.9423076923076923,0.7857142857142857,0.7857142857142857,0.0004
844,0.4245873987674713,1.0639746189117432,0.8461538461538461,0.9615384615384616,0.7142857142857143,0.8571428571428571,0.0004
845,0.3350006267428398,1.3168888092041016,0.9230769230769231,0.9615384615384616,0.8571428571428571,0.7142857142857143,0.0004
846,0.17634600773453712,0.872048556804657,0.9423076923076923,0.9807692307692307,0.7857142857142857,0.8571428571428571,0.0004
847,0.6047882586717606,1.237748384475708,0.8461538461538461,0.9423076923076923,0.7142857142857143,0.7857142857142857,0.0004
848,0.4299733638763428,1.1283752918243408,0.8269230769230769,0.9615384615384616,0.5714285714285714,0.8571428571428571,0.0004
849,0.511884480714798,0.8482733368873596,0.8653846153846154,0.9423076923076923,0.7142857142857143,0.8571428571428571,0.0004
850,0.34107065200805664,1.4248840808868408,0.9038461538461539,0.9807692307692307,0.7142857142857143,0.8571428571428571,0.0004
851,0.40129752457141876,0.8457657098770142,0.9230769230769231,0.9807692307692307,0.8571428571428571,0.7857142857142857,0.0004
852,0.32652647793293,0.9607759714126587,0.8653846153846154,1.0,0.8571428571428571,0.7857142857142857,0.0004
853,0.1434200406074524,1.045464277267456,0.9807692307692307,0.9807692307692307,0.7857142857142857,0.8571428571428571,0.0004
854,0.4352446645498276,1.618114709854126,0.8846153846153846,0.9423076923076923,0.6428571428571429,0.8571428571428571,0.0004
855,0.45624178647994995,1.2717405557632446,0.8653846153846154,0.9423076923076923,0.7857142857142857,0.7857142857142857,0.0004
856,0.45412349700927734,1.0242646932601929,0.8846153846153846,0.9615384615384616,0.8571428571428571,0.7142857142857143,0.0004
857,0.34600262343883514,0.9213435649871826,0.8846153846153846,0.9423076923076923,0.7857142857142857,0.7857142857142857,0.0004
858,0.32562464475631714,1.2240536212921143,0.9038461538461539,0.9615384615384616,0.6428571428571429,0.7857142857142857,0.0004
859,0.3875189274549484,1.1265078783035278,0.8653846153846154,0.9615384615384616,0.7857142857142857,0.7857142857142857,0.0004
860,0.4261980354785919,2.1589584350585938,0.9230769230769231,0.9423076923076923,0.5714285714285714,0.8571428571428571,0.0004
861,0.44047410786151886,0.6286830902099609,0.8076923076923077,1.0,0.8571428571428571,0.8571428571428571,0.0004
862,0.24599182605743408,1.4123258590698242,0.9230769230769231,0.9807692307692307,0.7142857142857143,0.8571428571428571,0.0004
863,0.16280648857355118,1.0778337717056274,0.9615384615384616,0.9807692307692307,0.7142857142857143,0.8571428571428571,0.0004
864,0.2593950480222702,1.086534857749939,0.9038461538461539,0.9807692307692307,0.9285714285714286,0.7857142857142857,0.0004
865,0.3842327743768692,1.2490911483764648,0.8269230769230769,0.9230769230769231,0.7142857142857143,0.8571428571428571,0.0004
866,0.5320014357566833,1.0840842723846436,0.8461538461538461,0.9423076923076923,0.6428571428571429,0.9285714285714286,0.0004
867,0.31346292793750763,0.663909912109375,0.9423076923076923,0.9423076923076923,0.8571428571428571,0.7857142857142857,0.0004
868,0.4478326737880707,0.8382762670516968,0.8461538461538461,0.8846153846153846,0.8571428571428571,0.8571428571428571,0.0004
869,0.3893171399831772,1.3201740980148315,0.8846153846153846,0.9807692307692307,0.7142857142857143,0.8571428571428571,0.0004
870,0.47674500942230225,0.854479193687439,0.8653846153846154,0.9423076923076923,0.8571428571428571,0.7857142857142857,0.0004
871,0.4090568423271179,1.5591719150543213,0.9038461538461539,0.9038461538461539,0.7142857142857143,0.7857142857142857,0.0004
872,0.6484492421150208,0.9811943173408508,0.8653846153846154,0.9423076923076923,0.8571428571428571,0.9285714285714286,0.0004
873,0.5188894420862198,1.436145305633545,0.8846153846153846,0.9423076923076923,0.7142857142857143,0.8571428571428571,0.0004
874,0.4537419229745865,1.750659704208374,0.8846153846153846,0.9423076923076923,0.7142857142857143,0.7142857142857143,0.0004
875,0.44906678795814514,1.0496227741241455,0.8653846153846154,0.9230769230769231,0.8571428571428571,0.7142857142857143,0.0004
876,0.3988243341445923,1.843350887298584,0.8653846153846154,0.9615384615384616,0.7142857142857143,0.7142857142857143,0.0004
877,0.41650405526161194,0.8113237619400024,0.8461538461538461,0.9615384615384616,0.7857142857142857,0.8571428571428571,0.0004
878,0.3276805430650711,1.0970860719680786,0.9423076923076923,0.9230769230769231,0.7857142857142857,0.6428571428571429,0.0004
879,0.6605780571699142,1.340226173400879,0.7884615384615384,0.9038461538461539,0.8571428571428571,0.7142857142857143,0.0004
880,0.4012182205915451,1.2209904193878174,0.8846153846153846,0.9230769230769231,0.7857142857142857,0.7142857142857143,0.0004
881,0.3448634743690491,1.6290206909179688,0.8653846153846154,0.9615384615384616,0.5714285714285714,0.8571428571428571,0.0004
882,0.18718554079532623,1.2531726360321045,0.9615384615384616,0.9807692307692307,0.6428571428571429,0.7142857142857143,0.0004
883,0.2418578863143921,1.836264967918396,0.9615384615384616,0.9807692307692307,0.5714285714285714,0.8571428571428571,0.0004
884,0.26042604446411133,1.6896061897277832,0.9423076923076923,1.0,0.5714285714285714,0.9285714285714286,0.0004
885,0.43829013407230377,0.5183073282241821,0.8846153846153846,0.9615384615384616,1.0,0.7142857142857143,0.0004
886,0.5047739446163177,1.3814617395401,0.9038461538461539,0.9615384615384616,0.7142857142857143,1.0,0.0004
887,0.3567664623260498,0.9015157222747803,0.8653846153846154,0.9615384615384616,0.7857142857142857,0.8571428571428571,0.0004
888,0.5132977366447449,1.2316744327545166,0.8653846153846154,0.9230769230769231,0.7142857142857143,0.9285714285714286,0.0004
889,0.3258391469717026,1.8922984600067139,0.9230769230769231,0.9423076923076923,0.7857142857142857,0.8571428571428571,0.0004
890,0.24031522870063782,0.852026104927063,0.9615384615384616,0.9807692307692307,0.7857142857142857,0.7857142857142857,0.0004
891,0.19550641626119614,1.201425552368164,0.9423076923076923,1.0,0.7142857142857143,0.9285714285714286,0.0004
892,0.42392586171627045,0.6803619265556335,0.9038461538461539,0.9423076923076923,0.8571428571428571,0.9285714285714286,0.0004
893,0.40281371772289276,1.679542899131775,0.9038461538461539,0.9230769230769231,0.6428571428571429,0.7857142857142857,0.0004
894,0.4786524176597595,0.9208221435546875,0.8846153846153846,0.9423076923076923,0.7857142857142857,0.8571428571428571,0.0004
895,0.22154918313026428,1.0042669773101807,0.9423076923076923,1.0,0.7857142857142857,0.8571428571428571,0.0004
896,0.4405672699213028,0.8208743333816528,0.8846153846153846,0.9230769230769231,0.8571428571428571,0.7857142857142857,0.0004
897,0.401711642742157,0.8426551818847656,0.8653846153846154,0.9423076923076923,0.7857142857142857,0.8571428571428571,0.0004
898,0.3895755261182785,1.4654055833816528,0.8846153846153846,0.9615384615384616,0.7857142857142857,0.7857142857142857,0.0004
899,0.3120073229074478,0.7349227666854858,0.9423076923076923,0.9615384615384616,0.9285714285714286,0.7857142857142857,0.0004
900,0.3302503228187561,1.453782558441162,0.9423076923076923,0.9423076923076923,0.7142857142857143,0.5714285714285714,0.0004
901,0.4004480540752411,0.4661727845668793,0.8653846153846154,0.9807692307692307,0.9285714285714286,0.7857142857142857,0.0004
902,0.27808137983083725,0.9415301084518433,0.9230769230769231,0.9615384615384616,0.7142857142857143,0.7142857142857143,0.0004
903,0.35452014207839966,1.0045298337936401,0.9230769230769231,0.9615384615384616,0.7142857142857143,0.7857142857142857,0.0004
904,0.33679796755313873,1.3752145767211914,0.9038461538461539,0.9807692307692307,0.7142857142857143,0.8571428571428571,0.0004
905,0.40176964551210403,1.344106674194336,0.9230769230769231,0.9615384615384616,0.7857142857142857,0.8571428571428571,0.0004
906,0.5910578221082687,1.3954253196716309,0.9038461538461539,0.9423076923076923,0.5714285714285714,0.8571428571428571,0.0004
907,0.2114986702799797,1.0888655185699463,0.9230769230769231,1.0,0.7142857142857143,0.7857142857142857,0.0004
908,0.47664423286914825,1.1131045818328857,0.8846153846153846,0.9423076923076923,0.9285714285714286,0.7142857142857143,0.0004
909,0.2473425790667534,1.3660798072814941,0.8846153846153846,0.9807692307692307,0.7142857142857143,0.7857142857142857,0.0004
910,0.36467576026916504,1.606022596359253,0.8653846153846154,0.9807692307692307,0.7142857142857143,0.7857142857142857,0.0004
911,0.31460605934262276,1.1852471828460693,0.9230769230769231,0.9615384615384616,0.7857142857142857,0.7857142857142857,0.0004
912,0.6568610966205597,0.9471410512924194,0.8076923076923077,0.9230769230769231,0.7857142857142857,0.7857142857142857,0.0004
913,0.3518592119216919,0.7860493659973145,0.9230769230769231,0.9423076923076923,0.7857142857142857,0.9285714285714286,0.0004
914,0.1771390587091446,1.1785820722579956,0.9423076923076923,0.9807692307692307,0.8571428571428571,0.7857142857142857,0.0004
915,0.3486585021018982,1.3600389957427979,0.9423076923076923,0.9423076923076923,0.6428571428571429,0.7857142857142857,0.0004
916,0.4418327957391739,1.391977071762085,0.8846153846153846,0.9807692307692307,0.6428571428571429,0.7142857142857143,0.0004
917,0.3809000551700592,0.6968773603439331,0.9038461538461539,0.9423076923076923,0.8571428571428571,0.8571428571428571,0.0004
918,0.30341845005750656,1.6585912704467773,0.9230769230769231,0.9807692307692307,0.5,0.7142857142857143,0.0004
919,0.47787347435951233,1.1085681915283203,0.8269230769230769,0.9038461538461539,0.6428571428571429,0.7857142857142857,0.0004
920,0.3419276177883148,1.2367087602615356,0.8653846153846154,0.9807692307692307,0.7857142857142857,0.7857142857142857,0.0004
921,0.3415997177362442,1.1646424531936646,0.9230769230769231,0.9230769230769231,0.7857142857142857,0.7142857142857143,0.0004
922,0.19253669679164886,1.7082117795944214,0.9230769230769231,1.0,0.6428571428571429,0.7142857142857143,0.0004
923,0.3255009949207306,1.5384740829467773,0.9038461538461539,0.9038461538461539,0.7857142857142857,0.8571428571428571,0.0004
924,0.34635087847709656,1.232382893562317,0.8461538461538461,0.9423076923076923,0.7857142857142857,0.7857142857142857,0.0004
925,0.3943388909101486,1.2289682626724243,0.9230769230769231,0.9038461538461539,0.8571428571428571,0.7857142857142857,0.0004
926,0.32638874650001526,1.2133042812347412,0.8846153846153846,0.9423076923076923,0.7857142857142857,0.7857142857142857,0.0004
927,0.256985068321228,0.6882736682891846,0.9423076923076923,1.0,0.8571428571428571,0.8571428571428571,0.0004
928,0.2867947071790695,1.1698763370513916,0.9230769230769231,0.9807692307692307,0.8571428571428571,0.9285714285714286,0.0004
929,0.3689442425966263,1.0034886598587036,0.9423076923076923,0.8653846153846154,0.8571428571428571,0.8571428571428571,0.0004
930,0.4384579360485077,0.7866032123565674,0.8846153846153846,0.9038461538461539,0.8571428571428571,0.8571428571428571,0.0004
931,0.2774561792612076,0.9388836622238159,0.9230769230769231,0.9615384615384616,0.9285714285714286,0.7142857142857143,0.0004
932,0.6176764965057373,1.6168341636657715,0.8269230769230769,0.9423076923076923,0.5,0.8571428571428571,0.0004
933,0.45611801743507385,1.5313224792480469,0.8653846153846154,0.9423076923076923,0.7142857142857143,0.7857142857142857,0.0004
934,0.4571027457714081,1.4384286403656006,0.9230769230769231,0.9038461538461539,0.5714285714285714,0.7857142857142857,0.0004
935,0.32047367841005325,1.8348602056503296,0.9230769230769231,0.9615384615384616,0.8571428571428571,0.7142857142857143,0.0004
936,0.585424542427063,0.6511191725730896,0.9038461538461539,0.8653846153846154,0.9285714285714286,0.7857142857142857,0.0004
937,0.3152247816324234,1.3253283500671387,0.9230769230769231,0.9423076923076923,0.5,0.9285714285714286,0.0004
938,0.30983878672122955,0.5996733903884888,0.9423076923076923,0.9423076923076923,0.9285714285714286,0.7857142857142857,0.0004
939,0.5434020459651947,1.468988060951233,0.8269230769230769,0.9230769230769231,0.5714285714285714,0.8571428571428571,0.0004
940,0.40981486439704895,1.5398476123809814,0.8653846153846154,0.9615384615384616,0.7142857142857143,0.7142857142857143,0.0004
941,0.30215784907341003,1.3178398609161377,0.9423076923076923,0.9423076923076923,0.7142857142857143,0.7857142857142857,0.0004
942,0.43950793147087097,1.7692463397979736,0.9038461538461539,0.9423076923076923,0.7857142857142857,0.7857142857142857,0.0004
943,0.3111950159072876,0.9912657737731934,0.9423076923076923,0.9615384615384616,0.7857142857142857,0.8571428571428571,0.0004
944,0.42598283290863037,1.3812791109085083,0.8653846153846154,0.9230769230769231,0.7857142857142857,0.7857142857142857,0.0004
945,0.32167384028434753,0.5315693616867065,0.8846153846153846,1.0,0.8571428571428571,0.8571428571428571,0.0004
946,0.3819436579942703,1.1084935665130615,0.8076923076923077,0.9807692307692307,0.9285714285714286,0.8571428571428571,0.0004
947,0.3373190462589264,1.7862696647644043,0.9038461538461539,0.9615384615384616,0.7142857142857143,0.8571428571428571,0.0004
948,0.18288534879684448,0.9100396633148193,0.9615384615384616,0.9615384615384616,0.7857142857142857,0.7142857142857143,0.0004
949,0.23014165461063385,0.8339989185333252,0.9230769230769231,1.0,0.6428571428571429,0.8571428571428571,0.0004
950,0.3701639622449875,1.4879238605499268,0.9038461538461539,0.9038461538461539,0.7142857142857143,0.7857142857142857,0.0004
951,0.33806952834129333,0.7939261794090271,0.9038461538461539,0.9230769230769231,0.7857142857142857,0.8571428571428571,0.0004
952,0.4867013990879059,0.9629228115081787,0.9230769230769231,0.9423076923076923,0.8571428571428571,0.6428571428571429,0.0004
953,0.4352012574672699,1.1311405897140503,0.8461538461538461,0.9615384615384616,0.9285714285714286,0.7857142857142857,0.0004
954,0.3631790727376938,0.5117020606994629,0.8846153846153846,0.9615384615384616,0.7857142857142857,0.9285714285714286,0.0004
955,0.3462572693824768,1.3140068054199219,0.8653846153846154,0.9807692307692307,0.7857142857142857,0.7142857142857143,0.0004
956,0.29642899334430695,0.588178277015686,0.9423076923076923,0.9615384615384616,0.8571428571428571,0.8571428571428571,0.0004
957,0.43413838744163513,1.071373701095581,0.9038461538461539,0.9230769230769231,0.6428571428571429,1.0,0.0004
958,0.25122780352830887,0.5717605948448181,0.8653846153846154,1.0,0.8571428571428571,0.8571428571428571,0.0004
959,0.372573584318161,1.4578399658203125,0.8653846153846154,0.9423076923076923,0.7142857142857143,0.7857142857142857,0.0004
960,0.34022119641304016,0.9676833748817444,0.9038461538461539,0.9038461538461539,0.7142857142857143,0.7857142857142857,0.0004
961,0.3320576772093773,1.3543851375579834,0.9038461538461539,0.9807692307692307,0.7857142857142857,0.7142857142857143,0.0004
962,0.3440852165222168,0.8818057775497437,0.9038461538461539,0.9807692307692307,0.7142857142857143,0.9285714285714286,0.0004
963,0.21537699177861214,1.62453293800354,0.9038461538461539,0.9807692307692307,0.5,0.7857142857142857,0.0004
964,0.3960498869419098,1.553179383277893,0.8653846153846154,0.9615384615384616,0.7142857142857143,0.7857142857142857,0.0004
965,0.5499800145626068,0.858366847038269,0.8461538461538461,0.9615384615384616,0.9285714285714286,0.6428571428571429,0.0004
966,0.5295269936323166,0.7506445646286011,0.8461538461538461,0.9230769230769231,0.8571428571428571,0.8571428571428571,0.0004
967,0.2606951519846916,0.7609212398529053,0.9423076923076923,0.9615384615384616,0.9285714285714286,0.7857142857142857,0.0004
968,0.36447010934352875,1.0233094692230225,0.8846153846153846,0.9423076923076923,0.8571428571428571,0.8571428571428571,0.0004
969,0.32862231135368347,1.0079550743103027,0.8846153846153846,0.9615384615384616,0.7142857142857143,0.8571428571428571,0.0004
970,0.16673757880926132,1.372330665588379,0.9615384615384616,1.0,0.8571428571428571,0.7142857142857143,0.0004
971,0.39226025342941284,0.9138926267623901,0.9038461538461539,0.9230769230769231,0.7142857142857143,0.8571428571428571,0.0004
972,0.4613988846540451,1.0154680013656616,0.8653846153846154,0.9038461538461539,0.7142857142857143,0.9285714285714286,0.0004
973,0.3408404439687729,1.3702573776245117,0.9615384615384616,0.9423076923076923,0.7142857142857143,0.8571428571428571,0.0004
